3996.73391,-0.00004
3994.67373,0.00009
3992.61356,0.00035
3990.55339,0.00060
3988.49322,0.00063
3986.43305,0.00053
3984.37287,0.00039
3982.31270,0.00020
3980.25253,0.00018
3978.19236,0.00030
3976.13219,0.00034
3974.07201,0.00026
3972.01184,0.00012
3969.95167,-0.00002
3967.89150,0.00000
3965.83133,0.00017
3963.77115,0.00032
3961.71098,0.00030
3959.65081,0.00017
3957.59064,0.00011
3955.53046,0.00021
3953.47029,0.00040
3951.41012,0.00052
3949.34995,0.00055
3947.28978,0.00062
3945.22960,0.00075
3943.16943,0.00076
3941.10926,0.00058
3939.04909,0.00036
3936.98892,0.00021
3934.92874,0.00023
3932.86857,0.00044
3930.80840,0.00070
3928.74823,0.00084
3926.68805,0.00075
3924.62788,0.00060
3922.56771,0.00056
3920.50754,0.00057
3918.44737,0.00052
3916.38719,0.00056
3914.32702,0.00079
3912.26685,0.00099
3910.20668,0.00098
3908.14651,0.00083
3906.08633,0.00063
3904.02616,0.00030
3901.96599,0.00003
3899.90582,0.00016
3897.84565,0.00043
3895.78547,0.00062
3893.72530,0.00088
3891.66513,0.00112
3889.60496,0.00099
3887.54478,0.00060
3885.48461,0.00041
3883.42444,0.00048
3881.36427,0.00063
3879.30410,0.00073
3877.24392,0.00076
3875.18375,0.00087
3873.12358,0.00106
3871.06341,0.00109
3869.00324,0.00095
3866.94306,0.00090
3864.88289,0.00100
3862.82272,0.00101
3860.76255,0.00073
3858.70237,0.00030
3856.64220,0.00000
3854.58203,0.00021
3852.52186,0.00074
3850.46169,0.00084
3848.40151,0.00070
3846.34134,0.00089
3844.28117,0.00112
3842.22100,0.00091
3840.16083,0.00056
3838.10065,0.00052
3836.04048,0.00060
3833.98031,0.00064
3831.92014,0.00077
3829.85997,0.00089
3827.79979,0.00080
3825.73962,0.00054
3823.67945,0.00041
3821.61928,0.00068
3819.55910,0.00114
3817.49893,0.00132
3815.43876,0.00123
3813.37859,0.00101
3811.31842,0.00082
3809.25824,0.00095
3807.19807,0.00124
3805.13790,0.00130
3803.07773,0.00124
3801.01756,0.00128
3798.95738,0.00126
3796.89721,0.00118
3794.83704,0.00127
3792.77687,0.00137
3790.71670,0.00130
3788.65652,0.00121
3786.59635,0.00134
3784.53618,0.00166
3782.47601,0.00195
3780.41583,0.00211
3778.35566,0.00209
3776.29549,0.00192
3774.23532,0.00181
3772.17515,0.00179
3770.11497,0.00176
3768.05480,0.00162
3765.99463,0.00138
3763.93446,0.00116
3761.87429,0.00115
3759.81411,0.00135
3757.75394,0.00150
3755.69377,0.00144
3753.63360,0.00136
3751.57342,0.00121
3749.51325,0.00070
3747.45308,0.00016
3745.39291,0.00000
3743.33274,0.00038
3741.27256,0.00083
3739.21239,0.00095
3737.15222,0.00084
3735.09205,0.00070
3733.03188,0.00087
3730.97170,0.00117
3728.91153,0.00126
3726.85136,0.00114
3724.79119,0.00095
3722.73102,0.00086
3720.67084,0.00110
3718.61067,0.00151
3716.55050,0.00163
3714.49033,0.00140
3712.43015,0.00127
3710.36998,0.00150
3708.30981,0.00181
3706.24964,0.00190
3704.18947,0.00188
3702.12929,0.00196
3700.06912,0.00203
3698.00895,0.00196
3695.94878,0.00186
3693.88861,0.00180
3691.82843,0.00189
3689.76826,0.00208
3687.70809,0.00213
3685.64792,0.00205
3683.58775,0.00204
3681.52757,0.00221
3679.46740,0.00249
3677.40723,0.00270
3675.34706,0.00271
3673.28688,0.00257
3671.22671,0.00253
3669.16654,0.00271
3667.10637,0.00285
3665.04620,0.00284
3662.98602,0.00280
3660.92585,0.00266
3658.86568,0.00238
3656.80551,0.00234
3654.74534,0.00262
3652.68516,0.00302
3650.62499,0.00354
3648.56482,0.00391
3646.50465,0.00402
3644.44447,0.00396
3642.38430,0.00396
3640.32413,0.00410
3638.26396,0.00423
3636.20379,0.00433
3634.14361,0.00455
3632.08344,0.00475
3630.02327,0.00479
3627.96310,0.00491
3625.90293,0.00536
3623.84275,0.00592
3621.78258,0.00637
3619.72241,0.00661
3617.66224,0.00660
3615.60207,0.00637
3613.54189,0.00617
3611.48172,0.00615
3609.42155,0.00637
3607.36138,0.00682
3605.30120,0.00729
3603.24103,0.00758
3601.18086,0.00779
3599.12069,0.00815
3597.06052,0.00860
3595.00034,0.00896
3592.94017,0.00926
3590.88000,0.00939
3588.81983,0.00928
3586.75966,0.00920
3584.69948,0.00940
3582.63931,0.00974
3580.57914,0.01010
3578.51897,0.01037
3576.45879,0.01054
3574.39862,0.01062
3572.33845,0.01066
3570.27828,0.01076
3568.21811,0.01098
3566.15793,0.01119
3564.09776,0.01125
3562.03759,0.01126
3559.97742,0.01156
3557.91725,0.01212
3555.85707,0.01255
3553.79690,0.01281
3551.73673,0.01291
3549.67656,0.01263
3547.61639,0.01233
3545.55621,0.01269
3543.49604,0.01350
3541.43587,0.01409
3539.37570,0.01437
3537.31552,0.01449
3535.25535,0.01457
3533.19518,0.01477
3531.13501,0.01508
3529.07484,0.01533
3527.01466,0.01549
3524.95449,0.01568
3522.89432,0.01582
3520.83415,0.01585
3518.77398,0.01585
3516.71380,0.01590
3514.65363,0.01589
3512.59346,0.01597
3510.53329,0.01638
3508.47312,0.01696
3506.41294,0.01728
3504.35277,0.01730
3502.29260,0.01733
3500.23243,0.01760
3498.17225,0.01799
3496.11208,0.01832
3494.05191,0.01864
3491.99174,0.01887
3489.93157,0.01886
3487.87139,0.01879
3485.81122,0.01887
3483.75105,0.01910
3481.69088,0.01935
3479.63071,0.01942
3477.57053,0.01935
3475.51036,0.01947
3473.45019,0.01982
3471.39002,0.02030
3469.32984,0.02071
3467.26967,0.02084
3465.20950,0.02084
3463.14933,0.02097
3461.08916,0.02120
3459.02898,0.02134
3456.96881,0.02130
3454.90864,0.02121
3452.84847,0.02118
3450.78830,0.02133
3448.72812,0.02172
3446.66795,0.02219
3444.60778,0.02246
3442.54761,0.02256
3440.48744,0.02273
3438.42726,0.02295
3436.36709,0.02318
3434.30692,0.02336
3432.24675,0.02342
3430.18657,0.02333
3428.12640,0.02319
3426.06623,0.02320
3424.00606,0.02329
3421.94589,0.02341
3419.88571,0.02360
3417.82554,0.02392
3415.76537,0.02419
3413.70520,0.02425
3411.64503,0.02425
3409.58485,0.02440
3407.52468,0.02454
3405.46451,0.02465
3403.40434,0.02475
3401.34416,0.02461
3399.28399,0.02430
3397.22382,0.02442
3395.16365,0.02469
3393.10348,0.02496
3391.04330,0.02519
3388.98313,0.02523
3386.92296,0.02519
3384.86279,0.02535
3382.80262,0.02569
3380.74244,0.02591
3378.68227,0.02588
3376.62210,0.02570
3374.56193,0.02560
3372.50176,0.02562
3370.44158,0.02570
3368.38141,0.02588
3366.32124,0.02606
3364.26107,0.02617
3362.20089,0.02627
3360.14072,0.02626
3358.08055,0.02608
3356.02038,0.02606
3353.96021,0.02635
3351.90003,0.02668
3349.83986,0.02677
3347.77969,0.02675
3345.71952,0.02685
3343.65935,0.02696
3341.59917,0.02694
3339.53900,0.02694
3337.47883,0.02692
3335.41866,0.02691
3333.35849,0.02701
3331.29831,0.02708
3329.23814,0.02710
3327.17797,0.02719
3325.11780,0.02728
3323.05762,0.02728
3320.99745,0.02727
3318.93728,0.02725
3316.87711,0.02704
3314.81694,0.02657
3312.75676,0.02630
3310.69659,0.02657
3308.63642,0.02696
3306.57625,0.02710
3304.51608,0.02721
3302.45590,0.02737
3300.39573,0.02734
3298.33556,0.02724
3296.27539,0.02726
3294.21521,0.02734
3292.15504,0.02743
3290.09487,0.02750
3288.03470,0.02758
3285.97453,0.02766
3283.91435,0.02767
3281.85418,0.02763
3279.79401,0.02756
3277.73384,0.02741
3275.67367,0.02725
3273.61349,0.02722
3271.55332,0.02732
3269.49315,0.02746
3267.43298,0.02753
3265.37281,0.02748
3263.31263,0.02735
3261.25246,0.02723
3259.19229,0.02727
3257.13212,0.02744
3255.07194,0.02756
3253.01177,0.02765
3250.95160,0.02771
3248.89143,0.02771
3246.83126,0.02767
3244.77108,0.02763
3242.71091,0.02753
3240.65074,0.02743
3238.59057,0.02746
3236.53040,0.02763
3234.47022,0.02774
3232.41005,0.02763
3230.34988,0.02744
3228.28971,0.02733
3226.22954,0.02727
3224.16936,0.02724
3222.10919,0.02729
3220.04902,0.02734
3217.98885,0.02716
3215.92867,0.02688
3213.86850,0.02684
3211.80833,0.02707
3209.74816,0.02732
3207.68799,0.02735
3205.62781,0.02714
3203.56764,0.02682
3201.50747,0.02654
3199.44730,0.02634
3197.38713,0.02628
3195.32695,0.02633
3193.26678,0.02640
3191.20661,0.02654
3189.14644,0.02670
3187.08626,0.02674
3185.02609,0.02666
3182.96592,0.02659
3180.90575,0.02650
3178.84558,0.02632
3176.78540,0.02619
3174.72523,0.02622
3172.66506,0.02627
3170.60489,0.02615
3168.54472,0.02592
3166.48454,0.02576
3164.42437,0.02565
3162.36420,0.02560
3160.30403,0.02561
3158.24386,0.02556
3156.18368,0.02549
3154.12351,0.02545
3152.06334,0.02523
3150.00317,0.02494
3147.94299,0.02486
3145.88282,0.02496
3143.82265,0.02511
3141.76248,0.02522
3139.70231,0.02519
3137.64213,0.02510
3135.58196,0.02502
3133.52179,0.02492
3131.46162,0.02470
3129.40145,0.02438
3127.34127,0.02409
3125.28110,0.02391
3123.22093,0.02384
3121.16076,0.02380
3119.10058,0.02377
3117.04041,0.02379
3114.98024,0.02382
3112.92007,0.02377
3110.85990,0.02365
3108.79972,0.02357
3106.73955,0.02359
3104.67938,0.02356
3102.61921,0.02337
3100.55904,0.02303
3098.49886,0.02277
3096.43869,0.02280
3094.37852,0.02305
3092.31835,0.02320
3090.25818,0.02303
3088.19800,0.02268
3086.13783,0.02242
3084.07766,0.02231
3082.01749,0.02232
3079.95731,0.02239
3077.89714,0.02248
3075.83697,0.02247
3073.77680,0.02222
3071.71663,0.02182
3069.65645,0.02161
3067.59628,0.02167
3065.53611,0.02174
3063.47594,0.02168
3061.41577,0.02160
3059.35559,0.02159
3057.29542,0.02156
3055.23525,0.02148
3053.17508,0.02143
3051.11491,0.02135
3049.05473,0.02111
3046.99456,0.02085
3044.93439,0.02071
3042.87422,0.02058
3040.81404,0.02049
3038.75387,0.02045
3036.69370,0.02035
3034.63353,0.02023
3032.57336,0.02020
3030.51318,0.02022
3028.45301,0.02012
3026.39284,0.01992
3024.33267,0.01967
3022.27250,0.01949
3020.21232,0.01951
3018.15215,0.01954
3016.09198,0.01939
3014.03181,0.01922
3011.97163,0.01918
3009.91146,0.01913
3007.85129,0.01895
3005.79112,0.01884
3003.73095,0.01886
3001.67077,0.01874
2999.61060,0.01858
2997.55043,0.01852
2995.49026,0.01840
2993.43009,0.01820
2991.36991,0.01825
2989.30974,0.01845
2987.24957,0.01851
2985.18940,0.01843
2983.12923,0.01846
2981.06905,0.01865
2979.00888,0.01873
2976.94871,0.01858
2974.88854,0.01847
2972.82836,0.01849
2970.76819,0.01845
2968.70802,0.01837
2966.64785,0.01838
2964.58768,0.01841
2962.52750,0.01829
2960.46733,0.01817
2958.40716,0.01825
2956.34699,0.01836
2954.28682,0.01836
2952.22664,0.01825
2950.16647,0.01813
2948.10630,0.01813
2946.04613,0.01826
2943.98596,0.01840
2941.92578,0.01847
2939.86561,0.01845
2937.80544,0.01830
2935.74527,0.01819
2933.68509,0.01826
2931.62492,0.01845
2929.56475,0.01852
2927.50458,0.01844
2925.44441,0.01834
2923.38423,0.01830
2921.32406,0.01839
2919.26389,0.01853
2917.20372,0.01842
2915.14355,0.01797
2913.08337,0.01749
2911.02320,0.01732
2908.96303,0.01736
2906.90286,0.01732
2904.84268,0.01710
2902.78251,0.01690
2900.72234,0.01683
2898.66217,0.01676
2896.60200,0.01662
2894.54182,0.01650
2892.48165,0.01628
2890.42148,0.01607
2888.36131,0.01604
2886.30114,0.01613
2884.24096,0.01629
2882.18079,0.01634
2880.12062,0.01611
2878.06045,0.01587
2876.00028,0.01580
2873.94010,0.01578
2871.87993,0.01570
2869.81976,0.01550
2867.75959,0.01523
2865.69941,0.01506
2863.63924,0.01508
2861.57907,0.01519
2859.51890,0.01519
2857.45873,0.01500
2855.39855,0.01483
2853.33838,0.01482
2851.27821,0.01478
2849.21804,0.01468
2847.15787,0.01461
2845.09769,0.01448
2843.03752,0.01423
2840.97735,0.01390
2838.91718,0.01369
2836.85700,0.01368
2834.79683,0.01362
2832.73666,0.01335
2830.67649,0.01306
2828.61632,0.01294
2826.55614,0.01291
2824.49597,0.01293
2822.43580,0.01293
2820.37563,0.01288
2818.31546,0.01274
2816.25528,0.01256
2814.19511,0.01257
2812.13494,0.01277
2810.07477,0.01280
2808.01460,0.01267
2805.95442,0.01255
2803.89425,0.01243
2801.83408,0.01226
2799.77391,0.01204
2797.71373,0.01190
2795.65356,0.01191
2793.59339,0.01197
2791.53322,0.01193
2789.47305,0.01182
2787.41287,0.01167
2785.35270,0.01149
2783.29253,0.01137
2781.23236,0.01130
2779.17219,0.01120
2777.11201,0.01107
2775.05184,0.01096
2772.99167,0.01088
2770.93150,0.01087
2768.87133,0.01090
2766.81115,0.01091
2764.75098,0.01078
2762.69081,0.01055
2760.63064,0.01036
2758.57046,0.01037
2756.51029,0.01054
2754.45012,0.01068
2752.38995,0.01065
2750.32978,0.01062
2748.26960,0.01056
2746.20943,0.01036
2744.14926,0.01018
2742.08909,0.01016
2740.02892,0.01015
2737.96874,0.01008
2735.90857,0.01000
2733.84840,0.00989
2731.78823,0.00982
2729.72805,0.00988
2727.66788,0.00992
2725.60771,0.00984
2723.54754,0.00970
2721.48737,0.00959
2719.42719,0.00958
2717.36702,0.00958
2715.30685,0.00952
2713.24668,0.00944
2711.18651,0.00939
2709.12633,0.00941
2707.06616,0.00945
2705.00599,0.00941
2702.94582,0.00925
2700.88565,0.00911
2698.82547,0.00902
2696.76530,0.00888
2694.70513,0.00885
2692.64496,0.00896
2690.58478,0.00900
2688.52461,0.00895
2686.46444,0.00890
2684.40427,0.00888
2682.34410,0.00884
2680.28392,0.00881
2678.22375,0.00882
2676.16358,0.00879
2674.10341,0.00866
2672.04324,0.00838
2669.98306,0.00818
2667.92289,0.00829
2665.86272,0.00847
2663.80255,0.00849
2661.74238,0.00843
2659.68220,0.00839
2657.62203,0.00839
2655.56186,0.00848
2653.50169,0.00856
2651.44151,0.00848
2649.38134,0.00826
2647.32117,0.00812
2645.26100,0.00814
2643.20083,0.00811
2641.14065,0.00793
2639.08048,0.00780
2637.02031,0.00783
2634.96014,0.00790
2632.89997,0.00792
2630.83979,0.00788
2628.77962,0.00777
2626.71945,0.00771
2624.65928,0.00765
2622.59910,0.00744
2620.53893,0.00728
2618.47876,0.00733
2616.41859,0.00743
2614.35842,0.00745
2612.29824,0.00737
2610.23807,0.00722
2608.17790,0.00709
2606.11773,0.00707
2604.05756,0.00709
2601.99738,0.00704
2599.93721,0.00701
2597.87704,0.00708
2595.81687,0.00712
2593.75670,0.00715
2591.69652,0.00713
2589.63635,0.00698
2587.57618,0.00677
2585.51601,0.00656
2583.45583,0.00645
2581.39566,0.00656
2579.33549,0.00677
2577.27532,0.00695
2575.21515,0.00692
2573.15497,0.00652
2571.09480,0.00608
2569.03463,0.00599
2566.97446,0.00613
2564.91429,0.00633
2562.85411,0.00658
2560.79394,0.00671
2558.73377,0.00673
2556.67360,0.00670
2554.61342,0.00665
2552.55325,0.00668
2550.49308,0.00670
2548.43291,0.00653
2546.37274,0.00630
2544.31256,0.00619
2542.25239,0.00616
2540.19222,0.00626
2538.13205,0.00653
2536.07188,0.00669
2534.01170,0.00656
2531.95153,0.00635
2529.89136,0.00616
2527.83119,0.00596
2525.77102,0.00600
2523.71084,0.00632
2521.65067,0.00652
2519.59050,0.00647
2517.53033,0.00630
2515.47015,0.00621
2513.40998,0.00634
2511.34981,0.00646
2509.28964,0.00644
2507.22947,0.00648
2505.16929,0.00646
2503.10912,0.00610
2501.04895,0.00587
2498.98878,0.00620
2496.92861,0.00657
2494.86843,0.00654
2492.80826,0.00629
2490.74809,0.00616
2488.68792,0.00624
2486.62775,0.00651
2484.56757,0.00687
2482.50740,0.00697
2480.44723,0.00681
2478.38706,0.00670
2476.32688,0.00667
2474.26671,0.00664
2472.20654,0.00660
2470.14637,0.00665
2468.08620,0.00685
2466.02602,0.00701
2463.96585,0.00704
2461.90568,0.00704
2459.84551,0.00702
2457.78534,0.00694
2455.72516,0.00674
2453.66499,0.00655
2451.60482,0.00644
2449.54465,0.00623
2447.48447,0.00609
2445.42430,0.00629
2443.36413,0.00658
2441.30396,0.00678
2439.24379,0.00673
2437.18361,0.00647
2435.12344,0.00636
2433.06327,0.00634
2431.00310,0.00622
2428.94293,0.00609
2426.88275,0.00617
2424.82258,0.00641
2422.76241,0.00649
2420.70224,0.00645
2418.64207,0.00648
2416.58189,0.00645
2414.52172,0.00633
2412.46155,0.00634
2410.40138,0.00648
2408.34120,0.00655
2406.28103,0.00648
2404.22086,0.00628
2402.16069,0.00613
2400.10052,0.00634
2398.04034,0.00628
2395.98017,0.00632
2393.92000,0.00637
2391.85983,0.00647
2389.79966,0.00668
2387.73948,0.00689
2385.67931,0.00696
2383.61914,0.00686
2381.55897,0.00666
2379.49880,0.00650
2377.43862,0.00642
2375.37845,0.00632
2373.31828,0.00637
2371.25811,0.00705
2369.19793,0.00840
2367.13776,0.00959
2365.07759,0.01026
2363.01742,0.01080
2360.95725,0.01114
2358.89707,0.01094
2356.83690,0.01072
2354.77673,0.01068
2352.71656,0.01008
2350.65639,0.00929
2348.59621,0.00895
2346.53604,0.00894
2344.47587,0.00908
2342.41570,0.00933
2340.35552,0.00958
2338.29535,0.00964
2336.23518,0.00966
2334.17501,0.00974
2332.11484,0.00958
2330.05466,0.00916
2327.99449,0.00883
2325.93432,0.00864
2323.87415,0.00837
2321.81398,0.00801
2319.75380,0.00774
2317.69363,0.00762
2315.63346,0.00758
2313.57329,0.00742
2311.51312,0.00709
2309.45294,0.00677
2307.39277,0.00663
2305.33260,0.00667
2303.27243,0.00674
2301.21225,0.00678
2299.15208,0.00679
2297.09191,0.00695
2295.03174,0.00728
2292.97157,0.00756
2290.91139,0.00767
2288.85122,0.00768
2286.79105,0.00739
2284.73088,0.00672
2282.67071,0.00604
2280.61053,0.00585
2278.55036,0.00621
2276.49019,0.00652
2274.43002,0.00634
2272.36984,0.00592
2270.30967,0.00578
2268.24950,0.00608
2266.18933,0.00639
2264.12916,0.00633
2262.06898,0.00610
2260.00881,0.00588
2257.94864,0.00575
2255.88847,0.00580
2253.82830,0.00594
2251.76812,0.00601
2249.70795,0.00588
2247.64778,0.00586
2245.58761,0.00589
2243.52744,0.00578
2241.46726,0.00550
2239.40709,0.00510
2237.34692,0.00495
2235.28675,0.00544
2233.22657,0.00584
2231.16640,0.00566
2229.10623,0.00555
2227.04606,0.00546
2224.98589,0.00518
2222.92571,0.00514
2220.86554,0.00530
2218.80537,0.00545
2216.74520,0.00592
2214.68503,0.00642
2212.62485,0.00600
2210.56468,0.00472
2208.50451,0.00387
2206.44434,0.00421
2204.38417,0.00497
2202.32399,0.00519
2200.26382,0.00495
2198.20365,0.00481
2196.14348,0.00470
2194.08330,0.00472
2192.02313,0.00494
2189.96296,0.00480
2187.90279,0.00444
2185.84262,0.00442
2183.78244,0.00429
2181.72227,0.00408
2179.66210,0.00446
2177.60193,0.00460
2175.54176,0.00455
2173.48158,0.00539
2171.42141,0.00614
2169.36124,0.00596
2167.30107,0.00543
2165.24089,0.00505
2163.18072,0.00468
2161.12055,0.00348
2159.06038,0.00135
2157.00021,0.00000
2154.94003,0.00034
2152.87986,0.00161
2150.81969,0.00237
2148.75952,0.00241
2146.69935,0.00296
2144.63917,0.00393
2142.57900,0.00438
2140.51883,0.00438
2138.45866,0.00369
2136.39849,0.00234
2134.33831,0.00183
2132.27814,0.00254
2130.21797,0.00341
2128.15780,0.00382
2126.09762,0.00379
2124.03745,0.00362
2121.97728,0.00344
2119.91711,0.00330
2117.85694,0.00334
2115.79676,0.00339
2113.73659,0.00362
2111.67642,0.00402
2109.61625,0.00408
2107.55608,0.00388
2105.49590,0.00374
2103.43573,0.00356
2101.37556,0.00344
2099.31539,0.00373
2097.25521,0.00363
2095.19504,0.00311
2093.13487,0.00280
2091.07470,0.00303
2089.01453,0.00341
2086.95435,0.00343
2084.89418,0.00324
2082.83401,0.00314
2080.77384,0.00314
2078.71367,0.00334
2076.65349,0.00367
2074.59332,0.00370
2072.53315,0.00319
2070.47298,0.00271
2068.41281,0.00290
2066.35263,0.00338
2064.29246,0.00355
2062.23229,0.00343
2060.17212,0.00317
2058.11194,0.00294
2056.05177,0.00281
2053.99160,0.00288
2051.93143,0.00334
2049.87126,0.00338
2047.81108,0.00275
2045.75091,0.00258
2043.69074,0.00265
2041.63057,0.00231
2039.57040,0.00220
2037.51022,0.00259
2035.45005,0.00326
2033.38988,0.00380
2031.32971,0.00392
2029.26954,0.00371
2027.20936,0.00300
2025.14919,0.00215
2023.08902,0.00193
2021.02885,0.00203
2018.96867,0.00218
2016.90850,0.00267
2014.84833,0.00314
2012.78816,0.00322
2010.72799,0.00309
2008.66781,0.00293
2006.60764,0.00308
2004.54747,0.00347
2002.48730,0.00318
2000.42713,0.00172
1998.36695,0.00047
1996.30678,0.00074
1994.24661,0.00159
1992.18644,0.00192
1990.12626,0.00204
1988.06609,0.00215
1986.00592,0.00198
1983.94575,0.00174
1981.88558,0.00207
1979.82540,0.00272
1977.76523,0.00312
1975.70506,0.00374
1973.64489,0.00422
1971.58472,0.00370
1969.52454,0.00271
1967.46437,0.00172
1965.40420,0.00064
1963.34403,0.00013
1961.28386,0.00054
1959.22368,0.00100
1957.16351,0.00119
1955.10334,0.00149
1953.04317,0.00145
1950.98299,0.00076
1948.92282,0.00036
1946.86265,0.00086
1944.80248,0.00163
1942.74231,0.00203
1940.68213,0.00202
1938.62196,0.00180
1936.56179,0.00145
1934.50162,0.00130
1932.44145,0.00150
1930.38127,0.00159
1928.32110,0.00134
1926.26093,0.00112
1924.20076,0.00132
1922.14059,0.00168
1920.08041,0.00154
1918.02024,0.00114
1915.96007,0.00102
1913.89990,0.00112
1911.83972,0.00125
1909.77955,0.00117
1907.71938,0.00092
1905.65921,0.00087
1903.59904,0.00102
1901.53886,0.00110
1899.47869,0.00114
1897.41852,0.00130
1895.35835,0.00134
1893.29818,0.00118
1891.23800,0.00118
1889.17783,0.00133
1887.11766,0.00147
1885.05749,0.00151
1882.99731,0.00134
1880.93714,0.00102
1878.87697,0.00094
1876.81680,0.00118
1874.75663,0.00136
1872.69645,0.00123
1870.63628,0.00100
1868.57611,0.00088
1866.51594,0.00086
1864.45577,0.00089
1862.39559,0.00093
1860.33542,0.00091
1858.27525,0.00079
1856.21508,0.00073
1854.15491,0.00084
1852.09473,0.00102
1850.03456,0.00114
1847.97439,0.00126
1845.91422,0.00128
1843.85404,0.00107
1841.79387,0.00088
1839.73370,0.00091
1837.67353,0.00100
1835.61336,0.00106
1833.55318,0.00121
1831.49301,0.00143
1829.43284,0.00148
1827.37267,0.00137
1825.31250,0.00139
1823.25232,0.00159
1821.19215,0.00164
1819.13198,0.00141
1817.07181,0.00117
1815.01163,0.00113
1812.95146,0.00115
1810.89129,0.00108
1808.83112,0.00098
1806.77095,0.00090
1804.71077,0.00081
1802.65060,0.00075
1800.59043,0.00085
1798.53026,0.00105
1796.47009,0.00121
1794.40991,0.00117
1792.34974,0.00096
1790.28957,0.00083
1788.22940,0.00093
1786.16923,0.00102
1784.10905,0.00110
1782.04888,0.00127
1779.98871,0.00141
1777.92854,0.00133
1775.86836,0.00124
1773.80819,0.00137
1771.74802,0.00146
1769.68785,0.00129
1767.62768,0.00113
1765.56750,0.00110
1763.50733,0.00121
1761.44716,0.00149
1759.38699,0.00180
1757.32682,0.00202
1755.26664,0.00224
1753.20647,0.00255
1751.14630,0.00282
1749.08613,0.00288
1747.02596,0.00283
1744.96578,0.00292
1742.90561,0.00305
1740.84544,0.00309
1738.78527,0.00308
1736.72509,0.00312
1734.66492,0.00324
1732.60475,0.00335
1730.54458,0.00333
1728.48441,0.00329
1726.42423,0.00336
1724.36406,0.00339
1722.30389,0.00326
1720.24372,0.00317
1718.18355,0.00336
1716.12337,0.00357
1714.06320,0.00356
1712.00303,0.00343
1709.94286,0.00342
1707.88268,0.00354
1705.82251,0.00364
1703.76234,0.00367
1701.70217,0.00382
1699.64200,0.00418
1697.58182,0.00466
1695.52165,0.00516
1693.46148,0.00558
1691.40131,0.00596
1689.34114,0.00642
1687.28096,0.00693
1685.22079,0.00752
1683.16062,0.00809
1681.10045,0.00861
1679.04028,0.00915
1676.98010,0.00978
1674.91993,0.01053
1672.85976,0.01126
1670.79959,0.01196
1668.73941,0.01255
1666.67924,0.01285
1664.61907,0.01300
1662.55890,0.01321
1660.49873,0.01345
1658.43855,0.01371
1656.37838,0.01401
1654.31821,0.01431
1652.25804,0.01449
1650.19787,0.01459
1648.13769,0.01453
1646.07752,0.01440
1644.01735,0.01424
1641.95718,0.01407
1639.89701,0.01401
1637.83683,0.01416
1635.77666,0.01419
1633.71649,0.01385
1631.65632,0.01334
1629.59614,0.01292
1627.53597,0.01264
1625.47580,0.01248
1623.41563,0.01228
1621.35546,0.01195
1619.29528,0.01177
1617.23511,0.01181
1615.17494,0.01171
1613.11477,0.01146
1611.05460,0.01128
1608.99442,0.01118
1606.93425,0.01106
1604.87408,0.01091
1602.81391,0.01073
1600.75373,0.01057
1598.69356,0.01049
1596.63339,0.01042
1594.57322,0.01025
1592.51305,0.00997
1590.45287,0.00970
1588.39270,0.00950
1586.33253,0.00934
1584.27236,0.00915
1582.21219,0.00895
1580.15201,0.00882
1578.09184,0.00875
1576.03167,0.00856
1573.97150,0.00820
1571.91133,0.00793
1569.85115,0.00779
1567.79098,0.00761
1565.73081,0.00744
1563.67064,0.00744
1561.61046,0.00769
1559.55029,0.00783
1557.49012,0.00718
1555.42995,0.00644
1553.36978,0.00616
1551.30960,0.00612
1549.24943,0.00603
1547.18926,0.00591
1545.12909,0.00589
1543.06892,0.00592
1541.00874,0.00587
1538.94857,0.00557
1536.88840,0.00510
1534.82823,0.00477
1532.76805,0.00457
1530.70788,0.00438
1528.64771,0.00427
1526.58754,0.00425
1524.52737,0.00418
1522.46719,0.00399
1520.40702,0.00367
1518.34685,0.00348
1516.28668,0.00337
1514.22651,0.00313
1512.16633,0.00289
1510.10616,0.00273
1508.04599,0.00262
1505.98582,0.00259
1503.92565,0.00256
1501.86547,0.00249
1499.80530,0.00254
1497.74513,0.00265
1495.68496,0.00263
1493.62478,0.00254
1491.56461,0.00248
1489.50444,0.00243
1487.44427,0.00237
1485.38410,0.00226
1483.32392,0.00216
1481.26375,0.00215
1479.20358,0.00221
1477.14341,0.00233
1475.08324,0.00250
1473.02306,0.00268
1470.96289,0.00281
1468.90272,0.00296
1466.84255,0.00329
1464.78238,0.00361
1462.72220,0.00368
1460.66203,0.00370
1458.60186,0.00384
1456.54169,0.00376
1454.48151,0.00350
1452.42134,0.00340
1450.36117,0.00359
1448.30100,0.00382
1446.24083,0.00380
1444.18065,0.00368
1442.12048,0.00369
1440.06031,0.00382
1438.00014,0.00388
1435.93997,0.00380
1433.87979,0.00371
1431.81962,0.00371
1429.75945,0.00381
1427.69928,0.00397
1425.63910,0.00420
1423.57893,0.00446
1421.51876,0.00464
1419.45859,0.00470
1417.39842,0.00471
1415.33824,0.00478
1413.27807,0.00488
1411.21790,0.00489
1409.15773,0.00487
1407.09756,0.00486
1405.03738,0.00480
1402.97721,0.00467
1400.91704,0.00460
1398.85687,0.00453
1396.79670,0.00444
1394.73652,0.00434
1392.67635,0.00416
1390.61618,0.00391
1388.55601,0.00372
1386.49583,0.00369
1384.43566,0.00379
1382.37549,0.00387
1380.31532,0.00388
1378.25515,0.00382
1376.19497,0.00380
1374.13480,0.00385
1372.07463,0.00387
1370.01446,0.00379
1367.95429,0.00360
1365.89411,0.00340
1363.83394,0.00325
1361.77377,0.00315
1359.71360,0.00309
1357.65343,0.00311
1355.59325,0.00312
1353.53308,0.00308
1351.47291,0.00304
1349.41274,0.00300
1347.35256,0.00285
1345.29239,0.00262
1343.23222,0.00242
1341.17205,0.00229
1339.11188,0.00222
1337.05170,0.00225
1334.99153,0.00231
1332.93136,0.00235
1330.87119,0.00238
1328.81102,0.00243
1326.75084,0.00244
1324.69067,0.00237
1322.63050,0.00233
1320.57033,0.00240
1318.51015,0.00247
1316.44998,0.00250
1314.38981,0.00243
1312.32964,0.00230
1310.26947,0.00223
1308.20929,0.00228
1306.14912,0.00238
1304.08895,0.00248
1302.02878,0.00253
1299.96861,0.00259
1297.90843,0.00274
1295.84826,0.00297
1293.78809,0.00316
1291.72792,0.00322
1289.66775,0.00313
1287.60757,0.00291
1285.54740,0.00269
1283.48723,0.00257
1281.42706,0.00261
1279.36688,0.00273
1277.30671,0.00291
1275.24654,0.00306
1273.18637,0.00306
1271.12620,0.00294
1269.06602,0.00282
1267.00585,0.00268
1264.94568,0.00262
1262.88551,0.00279
1260.82534,0.00310
1258.76516,0.00328
1256.70499,0.00325
1254.64482,0.00316
1252.58465,0.00312
1250.52447,0.00307
1248.46430,0.00298
1246.40413,0.00289
1244.34396,0.00281
1242.28379,0.00276
1240.22361,0.00275
1238.16344,0.00273
1236.10327,0.00261
1234.04310,0.00241
1231.98293,0.00225
1229.92275,0.00217
1227.86258,0.00205
1225.80241,0.00182
1223.74224,0.00156
1221.68207,0.00136
1219.62189,0.00116
1217.56172,0.00094
1215.50155,0.00079
1213.44138,0.00070
1211.38120,0.00056
1209.32103,0.00041
1207.26086,0.00027
1205.20069,0.00015
1203.14052,0.00005
1201.08034,0.00000
1199.02017,-0.00000
1196.96000,-0.00000
1194.89983,0.00000
1192.83966,0.00005
1190.77948,0.00007
1188.71931,0.00013
1186.65914,0.00028
1184.59897,0.00044
1182.53880,0.00056
1180.47862,0.00068
1178.41845,0.00091
1176.35828,0.00137
1174.29811,0.00192
1172.23793,0.00222
1170.17776,0.00235
1168.11759,0.00259
1166.05742,0.00291
1163.99725,0.00328
1161.93707,0.00367
1159.87690,0.00399
1157.81673,0.00426
1155.75656,0.00456
1153.69639,0.00496
1151.63621,0.00543
1149.57604,0.00585
1147.51587,0.00622
1145.45570,0.00667
1143.39552,0.00726
1141.33535,0.00787
1139.27518,0.00840
1137.21501,0.00887
1135.15484,0.00943
1133.09466,0.01013
1131.03449,0.01101
1128.97432,0.01191
1126.91415,0.01274
1124.85398,0.01365
1122.79380,0.01467
1120.73363,0.01571
1118.67346,0.01674
1116.61329,0.01770
1114.55312,0.01868
1112.49294,0.01968
1110.43277,0.02059
1108.37260,0.02137
1106.31243,0.02219
1104.25225,0.02322
1102.19208,0.02422
1100.13191,0.02497
1098.07174,0.02556
1096.01157,0.02610
1093.95139,0.02660
1091.89122,0.02722
1089.83105,0.02799
1087.77088,0.02858
1085.71071,0.02894
1083.65053,0.02931
1081.59036,0.02987
1079.53019,0.03061
1077.47002,0.03122
1075.40985,0.03152
1073.34967,0.03165
1071.28950,0.03181
1069.22933,0.03204
1067.16916,0.03221
1065.10898,0.03211
1063.04881,0.03187
1060.98864,0.03162
1058.92847,0.03131
1056.86830,0.03090
1054.80812,0.03037
1052.74795,0.02961
1050.68778,0.02878
1048.62761,0.02799
1046.56744,0.02705
1044.50726,0.02602
1042.44709,0.02504
1040.38692,0.02399
1038.32675,0.02280
1036.26657,0.02166
1034.20640,0.02053
1032.14623,0.01924
1030.08606,0.01792
1028.02589,0.01681
1025.96571,0.01599
1023.90554,0.01530
1021.84537,0.01464
1019.78520,0.01403
1017.72503,0.01344
1015.66485,0.01297
1013.60468,0.01264
1011.54451,0.01246
1009.48434,0.01235
1007.42417,0.01240
1005.36399,0.01266
1003.30382,0.01309
1001.24365,0.01367
999.18348,0.01434
997.12330,0.01501
995.06313,0.01562
993.00296,0.01620
990.94279,0.01668
988.88262,0.01705
986.82244,0.01744
984.76227,0.01784
982.70210,0.01808
980.64193,0.01801
978.58176,0.01778
976.52158,0.01770
974.46141,0.01753
972.40124,0.01695
970.34107,0.01622
968.28089,0.01556
966.22072,0.01484
964.16055,0.01406
962.10038,0.01331
960.04021,0.01253
957.98003,0.01166
955.91986,0.01088
953.85969,0.01018
951.79952,0.00949
949.73935,0.00882
947.67917,0.00817
945.61900,0.00757
943.55883,0.00695
941.49866,0.00637
939.43849,0.00583
937.37831,0.00513
935.31814,0.00459
933.25797,0.00428
931.19780,0.00390
929.13762,0.00364
927.07745,0.00349
925.01728,0.00308
922.95711,0.00254
920.89694,0.00225
918.83676,0.00218
916.77659,0.00206
914.71642,0.00178
912.65625,0.00150
910.59608,0.00124
908.53590,0.00103
906.47573,0.00104
904.41556,0.00112
902.35539,0.00113
900.29522,0.00113
898.23504,0.00116
896.17487,0.00140
894.11470,0.00189
892.05453,0.00232
889.99435,0.00249
887.93418,0.00284
885.87401,0.00351
883.81384,0.00405
881.75367,0.00426
879.69349,0.00442
877.63332,0.00477
875.57315,0.00528
873.51298,0.00591
871.45281,0.00651
869.39263,0.00687
867.33246,0.00708
865.27229,0.00729
863.21212,0.00746
861.15194,0.00757
859.09177,0.00766
857.03160,0.00767
854.97143,0.00760
852.91126,0.00758
850.85108,0.00750
848.79091,0.00732
846.73074,0.00718
844.67057,0.00690
842.61040,0.00644
840.55022,0.00602
838.49005,0.00572
836.42988,0.00540
834.36971,0.00490
832.30954,0.00441
830.24936,0.00403
828.18919,0.00375
826.12902,0.00371
824.06885,0.00364
822.00867,0.00336
819.94850,0.00309
817.88833,0.00280
815.82816,0.00240
813.76799,0.00225
811.70781,0.00245
809.64764,0.00252
807.58747,0.00239
805.52730,0.00216
803.46713,0.00196
801.40695,0.00195
799.34678,0.00185
797.28661,0.00152
795.22644,0.00129
793.16627,0.00129
791.10609,0.00144
789.04592,0.00146
786.98575,0.00133
784.92558,0.00128
782.86540,0.00125
780.80523,0.00108
778.74506,0.00112
776.68489,0.00136
774.62472,0.00139
772.56454,0.00124
770.50437,0.00123
768.44420,0.00133
766.38403,0.00126
764.32386,0.00085
762.26368,0.00052
760.20351,0.00078
758.14334,0.00123
756.08317,0.00123
754.02299,0.00097
751.96282,0.00065
749.90265,0.00018
747.84248,0.00000
745.78231,0.00042
743.72213,0.00074
741.66196,0.00061
739.60179,0.00063
737.54162,0.00099
735.48145,0.00125
733.42127,0.00091
731.36110,0.00043
729.30093,0.00081
727.24076,0.00160
725.18059,0.00167
723.12041,0.00169
721.06024,0.00154
719.00007,0.00128
716.93990,0.00087
714.87972,0.00057
712.81955,0.00066
710.75938,0.00090
708.69921,0.00087
706.63904,0.00074
704.57886,0.00099
702.51869,0.00153
700.45852,0.00198
698.39835,0.00214
696.33818,0.00214
694.27800,0.00212
692.21783,0.00194
690.15766,0.00142
688.09749,0.00094
686.03731,0.00123
683.97714,0.00230
681.91697,0.00321
679.85680,0.00338
677.79663,0.00311
675.73645,0.00254
673.67628,0.00178
671.61611,0.00102
669.55594,0.00080
667.49577,0.00171
665.43559,0.00248
663.37542,0.00275
661.31525,0.00195
659.25508,0.00117
657.19491,0.00175
655.13473,0.00298
653.07456,0.00363
651.01439,0.00358
648.95422,0.00318
646.89404,0.00289
644.83387,0.00260
642.77370,0.00214
640.71353,0.00190
638.65336,0.00174
636.59318,0.00118
634.53301,0.00077
632.47284,0.00105
630.41267,0.00170
628.35250,0.00224
626.29232,0.00185
624.23215,0.00045
622.17198,0.00000
620.11181,0.00115
618.05164,0.00228
615.99146,0.00269
613.93129,0.00338
611.87112,0.00339
609.81095,0.00200
607.75077,0.00086
605.69060,0.00056
603.63043,0.00037
601.57026,0.00039
599.51009,0.00000
