3996.73391,0.00019
3994.67373,0.00028
3992.61356,0.00035
3990.55339,0.00051
3988.49322,0.00062
3986.43305,0.00048
3984.37287,0.00020
3982.31270,0.00001
3980.25253,-0.00003
3978.19236,-0.00003
3976.13219,0.00001
3974.07201,0.00007
3972.01184,0.00004
3969.95167,0.00003
3967.89150,0.00013
3965.83133,0.00016
3963.77115,0.00007
3961.71098,-0.00001
3959.65081,0.00000
3957.59064,0.00013
3955.53046,0.00031
3953.47029,0.00038
3951.41012,0.00034
3949.34995,0.00040
3947.28978,0.00052
3945.22960,0.00053
3943.16943,0.00046
3941.10926,0.00041
3939.04909,0.00037
3936.98892,0.00033
3934.92874,0.00031
3932.86857,0.00036
3930.80840,0.00054
3928.74823,0.00072
3926.68805,0.00063
3924.62788,0.00033
3922.56771,0.00013
3920.50754,0.00013
3918.44737,0.00021
3916.38719,0.00039
3914.32702,0.00066
3912.26685,0.00095
3910.20668,0.00111
3908.14651,0.00103
3906.08633,0.00072
3904.02616,0.00028
3901.96599,0.00000
3899.90582,0.00012
3897.84565,0.00035
3895.78547,0.00037
3893.72530,0.00046
3891.66513,0.00088
3889.60496,0.00113
3887.54478,0.00089
3885.48461,0.00054
3883.42444,0.00045
3881.36427,0.00064
3879.30410,0.00076
3877.24392,0.00065
3875.18375,0.00066
3873.12358,0.00106
3871.06341,0.00150
3869.00324,0.00151
3866.94306,0.00114
3864.88289,0.00083
3862.82272,0.00071
3860.76255,0.00056
3858.70237,0.00027
3856.64220,0.00003
3854.58203,0.00017
3852.52186,0.00063
3850.46169,0.00079
3848.40151,0.00065
3846.34134,0.00062
3844.28117,0.00071
3842.22100,0.00054
3840.16083,0.00014
3838.10065,0.00000
3836.04048,0.00020
3833.98031,0.00047
3831.92014,0.00074
3829.85997,0.00095
3827.79979,0.00095
3825.73962,0.00074
3823.67945,0.00057
3821.61928,0.00067
3819.55910,0.00092
3817.49893,0.00100
3815.43876,0.00098
3813.37859,0.00091
3811.31842,0.00085
3809.25824,0.00093
3807.19807,0.00101
3805.13790,0.00093
3803.07773,0.00083
3801.01756,0.00088
3798.95738,0.00104
3796.89721,0.00128
3794.83704,0.00146
3792.77687,0.00126
3790.71670,0.00086
3788.65652,0.00075
3786.59635,0.00108
3784.53618,0.00154
3782.47601,0.00173
3780.41583,0.00159
3778.35566,0.00128
3776.29549,0.00098
3774.23532,0.00087
3772.17515,0.00101
3770.11497,0.00119
3768.05480,0.00112
3765.99463,0.00095
3763.93446,0.00086
3761.87429,0.00076
3759.81411,0.00075
3757.75394,0.00093
3755.69377,0.00105
3753.63360,0.00107
3751.57342,0.00119
3749.51325,0.00149
3747.45308,0.00185
3745.39291,0.00210
3743.33274,0.00189
3741.27256,0.00138
3739.21239,0.00104
3737.15222,0.00087
3735.09205,0.00081
3733.03188,0.00105
3730.97170,0.00134
3728.91153,0.00129
3726.85136,0.00090
3724.79119,0.00054
3722.73102,0.00055
3720.67084,0.00090
3718.61067,0.00128
3716.55050,0.00137
3714.49033,0.00108
3712.43015,0.00075
3710.36998,0.00077
3708.30981,0.00092
3706.24964,0.00084
3704.18947,0.00061
3702.12929,0.00049
3700.06912,0.00058
3698.00895,0.00086
3695.94878,0.00119
3693.88861,0.00124
3691.82843,0.00094
3689.76826,0.00071
3687.70809,0.00082
3685.64792,0.00106
3683.58775,0.00120
3681.52757,0.00116
3679.46740,0.00107
3677.40723,0.00118
3675.34706,0.00145
3673.28688,0.00160
3671.22671,0.00173
3669.16654,0.00196
3667.10637,0.00207
3665.04620,0.00203
3662.98602,0.00199
3660.92585,0.00194
3658.86568,0.00178
3656.80551,0.00164
3654.74534,0.00166
3652.68516,0.00176
3650.62499,0.00194
3648.56482,0.00231
3646.50465,0.00259
3644.44447,0.00258
3642.38430,0.00249
3640.32413,0.00241
3638.26396,0.00230
3636.20379,0.00233
3634.14361,0.00260
3632.08344,0.00288
3630.02327,0.00291
3627.96310,0.00274
3625.90293,0.00273
3623.84275,0.00295
3621.78258,0.00318
3619.72241,0.00332
3617.66224,0.00327
3615.60207,0.00303
3613.54189,0.00286
3611.48172,0.00292
3609.42155,0.00319
3607.36138,0.00365
3605.30120,0.00400
3603.24103,0.00396
3601.18086,0.00382
3599.12069,0.00400
3597.06052,0.00444
3595.00034,0.00477
3592.94017,0.00497
3590.88000,0.00499
3588.81983,0.00485
3586.75966,0.00471
3584.69948,0.00471
3582.63931,0.00493
3580.57914,0.00529
3578.51897,0.00553
3576.45879,0.00564
3574.39862,0.00580
3572.33845,0.00592
3570.27828,0.00593
3568.21811,0.00602
3566.15793,0.00615
3564.09776,0.00616
3562.03759,0.00618
3559.97742,0.00639
3557.91725,0.00655
3555.85707,0.00653
3553.79690,0.00652
3551.73673,0.00659
3549.67656,0.00656
3547.61639,0.00649
3545.55621,0.00666
3543.49604,0.00709
3541.43587,0.00753
3539.37570,0.00778
3537.31552,0.00786
3535.25535,0.00786
3533.19518,0.00792
3531.13501,0.00803
3529.07484,0.00802
3527.01466,0.00793
3524.95449,0.00790
3522.89432,0.00790
3520.83415,0.00795
3518.77398,0.00811
3516.71380,0.00826
3514.65363,0.00822
3512.59346,0.00818
3510.53329,0.00837
3508.47312,0.00872
3506.41294,0.00896
3504.35277,0.00900
3502.29260,0.00894
3500.23243,0.00898
3498.17225,0.00924
3496.11208,0.00968
3494.05191,0.00997
3491.99174,0.00990
3489.93157,0.00971
3487.87139,0.00963
3485.81122,0.00960
3483.75105,0.00954
3481.69088,0.00957
3479.63071,0.00977
3477.57053,0.00998
3475.51036,0.01009
3473.45019,0.01010
3471.39002,0.01017
3469.32984,0.01048
3467.26967,0.01079
3465.20950,0.01067
3463.14933,0.01035
3461.08916,0.01037
3459.02898,0.01063
3456.96881,0.01073
3454.90864,0.01067
3452.84847,0.01071
3450.78830,0.01085
3448.72812,0.01098
3446.66795,0.01107
3444.60778,0.01099
3442.54761,0.01092
3440.48744,0.01119
3438.42726,0.01162
3436.36709,0.01193
3434.30692,0.01205
3432.24675,0.01200
3430.18657,0.01189
3428.12640,0.01172
3426.06623,0.01166
3424.00606,0.01191
3421.94589,0.01225
3419.88571,0.01236
3417.82554,0.01229
3415.76537,0.01226
3413.70520,0.01232
3411.64503,0.01242
3409.58485,0.01246
3407.52468,0.01235
3405.46451,0.01241
3403.40434,0.01268
3401.34416,0.01277
3399.28399,0.01272
3397.22382,0.01264
3395.16365,0.01251
3393.10348,0.01255
3391.04330,0.01281
3388.98313,0.01308
3386.92296,0.01329
3384.86279,0.01336
3382.80262,0.01331
3380.74244,0.01327
3378.68227,0.01313
3376.62210,0.01288
3374.56193,0.01272
3372.50176,0.01274
3370.44158,0.01287
3368.38141,0.01295
3366.32124,0.01295
3364.26107,0.01298
3362.20089,0.01311
3360.14072,0.01326
3358.08055,0.01333
3356.02038,0.01335
3353.96021,0.01330
3351.90003,0.01315
3349.83986,0.01317
3347.77969,0.01345
3345.71952,0.01370
3343.65935,0.01366
3341.59917,0.01347
3339.53900,0.01339
3337.47883,0.01341
3335.41866,0.01344
3333.35849,0.01354
3331.29831,0.01360
3329.23814,0.01358
3327.17797,0.01358
3325.11780,0.01354
3323.05762,0.01341
3320.99745,0.01332
3318.93728,0.01322
3316.87711,0.01299
3314.81694,0.01283
3312.75676,0.01295
3310.69659,0.01317
3308.63642,0.01327
3306.57625,0.01332
3304.51608,0.01343
3302.45590,0.01364
3300.39573,0.01373
3298.33556,0.01362
3296.27539,0.01357
3294.21521,0.01365
3292.15504,0.01371
3290.09487,0.01375
3288.03470,0.01388
3285.97453,0.01397
3283.91435,0.01391
3281.85418,0.01388
3279.79401,0.01388
3277.73384,0.01380
3275.67367,0.01374
3273.61349,0.01379
3271.55332,0.01379
3269.49315,0.01372
3267.43298,0.01369
3265.37281,0.01364
3263.31263,0.01347
3261.25246,0.01336
3259.19229,0.01348
3257.13212,0.01363
3255.07194,0.01365
3253.01177,0.01368
3250.95160,0.01371
3248.89143,0.01371
3246.83126,0.01380
3244.77108,0.01392
3242.71091,0.01382
3240.65074,0.01361
3238.59057,0.01354
3236.53040,0.01368
3234.47022,0.01386
3232.41005,0.01389
3230.34988,0.01384
3228.28971,0.01374
3226.22954,0.01355
3224.16936,0.01342
3222.10919,0.01348
3220.04902,0.01360
3217.98885,0.01363
3215.92867,0.01351
3213.86850,0.01331
3211.80833,0.01327
3209.74816,0.01350
3207.68799,0.01356
3205.62781,0.01337
3203.56764,0.01325
3201.50747,0.01311
3199.44730,0.01283
3197.38713,0.01279
3195.32695,0.01300
3193.26678,0.01309
3191.20661,0.01308
3189.14644,0.01308
3187.08626,0.01305
3185.02609,0.01302
3182.96592,0.01298
3180.90575,0.01299
3178.84558,0.01304
3176.78540,0.01298
3174.72523,0.01283
3172.66506,0.01274
3170.60489,0.01268
3168.54472,0.01268
3166.48454,0.01277
3164.42437,0.01274
3162.36420,0.01254
3160.30403,0.01240
3158.24386,0.01232
3156.18368,0.01226
3154.12351,0.01232
3152.06334,0.01236
3150.00317,0.01233
3147.94299,0.01232
3145.88282,0.01233
3143.82265,0.01229
3141.76248,0.01223
3139.70231,0.01230
3137.64213,0.01235
3135.58196,0.01228
3133.52179,0.01216
3131.46162,0.01202
3129.40145,0.01186
3127.34127,0.01189
3125.28110,0.01208
3123.22093,0.01212
3121.16076,0.01194
3119.10058,0.01175
3117.04041,0.01171
3114.98024,0.01175
3112.92007,0.01175
3110.85990,0.01171
3108.79972,0.01171
3106.73955,0.01173
3104.67938,0.01166
3102.61921,0.01147
3100.55904,0.01129
3098.49886,0.01129
3096.43869,0.01138
3094.37852,0.01142
3092.31835,0.01138
3090.25818,0.01130
3088.19800,0.01119
3086.13783,0.01106
3084.07766,0.01096
3082.01749,0.01099
3079.95731,0.01106
3077.89714,0.01112
3075.83697,0.01118
3073.77680,0.01119
3071.71663,0.01117
3069.65645,0.01108
3067.59628,0.01092
3065.53611,0.01080
3063.47594,0.01077
3061.41577,0.01081
3059.35559,0.01090
3057.29542,0.01092
3055.23525,0.01084
3053.17508,0.01077
3051.11491,0.01076
3049.05473,0.01069
3046.99456,0.01059
3044.93439,0.01054
3042.87422,0.01045
3040.81404,0.01030
3038.75387,0.01010
3036.69370,0.00993
3034.63353,0.00989
3032.57336,0.00998
3030.51318,0.01013
3028.45301,0.01018
3026.39284,0.01003
3024.33267,0.00978
3022.27250,0.00965
3020.21232,0.00970
3018.15215,0.00970
3016.09198,0.00958
3014.03181,0.00952
3011.97163,0.00958
3009.91146,0.00957
3007.85129,0.00940
3005.79112,0.00928
3003.73095,0.00933
3001.67077,0.00929
2999.61060,0.00908
2997.55043,0.00894
2995.49026,0.00894
2993.43009,0.00900
2991.36991,0.00903
2989.30974,0.00907
2987.24957,0.00919
2985.18940,0.00931
2983.12923,0.00940
2981.06905,0.00951
2979.00888,0.00955
2976.94871,0.00942
2974.88854,0.00923
2972.82836,0.00909
2970.76819,0.00906
2968.70802,0.00913
2966.64785,0.00926
2964.58768,0.00935
2962.52750,0.00924
2960.46733,0.00901
2958.40716,0.00889
2956.34699,0.00899
2954.28682,0.00920
2952.22664,0.00922
2950.16647,0.00910
2948.10630,0.00902
2946.04613,0.00894
2943.98596,0.00893
2941.92578,0.00901
2939.86561,0.00898
2937.80544,0.00890
2935.74527,0.00885
2933.68509,0.00882
2931.62492,0.00887
2929.56475,0.00891
2927.50458,0.00888
2925.44441,0.00887
2923.38423,0.00885
2921.32406,0.00891
2919.26389,0.00900
2917.20372,0.00900
2915.14355,0.00883
2913.08337,0.00851
2911.02320,0.00831
2908.96303,0.00830
2906.90286,0.00838
2904.84268,0.00848
2902.78251,0.00851
2900.72234,0.00845
2898.66217,0.00834
2896.60200,0.00820
2894.54182,0.00812
2892.48165,0.00797
2890.42148,0.00784
2888.36131,0.00795
2886.30114,0.00817
2884.24096,0.00830
2882.18079,0.00823
2880.12062,0.00805
2878.06045,0.00793
2876.00028,0.00785
2873.94010,0.00774
2871.87993,0.00771
2869.81976,0.00777
2867.75959,0.00767
2865.69941,0.00737
2863.63924,0.00719
2861.57907,0.00732
2859.51890,0.00749
2857.45873,0.00748
2855.39855,0.00736
2853.33838,0.00724
2851.27821,0.00714
2849.21804,0.00702
2847.15787,0.00694
2845.09769,0.00696
2843.03752,0.00696
2840.97735,0.00685
2838.91718,0.00672
2836.85700,0.00673
2834.79683,0.00678
2832.73666,0.00667
2830.67649,0.00642
2828.61632,0.00630
2826.55614,0.00636
2824.49597,0.00644
2822.43580,0.00644
2820.37563,0.00644
2818.31546,0.00644
2816.25528,0.00635
2814.19511,0.00631
2812.13494,0.00635
2810.07477,0.00632
2808.01460,0.00630
2805.95442,0.00626
2803.89425,0.00616
2801.83408,0.00604
2799.77391,0.00595
2797.71373,0.00593
2795.65356,0.00602
2793.59339,0.00611
2791.53322,0.00611
2789.47305,0.00603
2787.41287,0.00587
2785.35270,0.00575
2783.29253,0.00574
2781.23236,0.00576
2779.17219,0.00575
2777.11201,0.00567
2775.05184,0.00550
2772.99167,0.00537
2770.93150,0.00539
2768.87133,0.00548
2766.81115,0.00557
2764.75098,0.00564
2762.69081,0.00553
2760.63064,0.00534
2758.57046,0.00526
2756.51029,0.00531
2754.45012,0.00536
2752.38995,0.00535
2750.32978,0.00538
2748.26960,0.00539
2746.20943,0.00518
2744.14926,0.00495
2742.08909,0.00502
2740.02892,0.00525
2737.96874,0.00536
2735.90857,0.00533
2733.84840,0.00522
2731.78823,0.00512
2729.72805,0.00500
2727.66788,0.00481
2725.60771,0.00466
2723.54754,0.00465
2721.48737,0.00468
2719.42719,0.00474
2717.36702,0.00480
2715.30685,0.00479
2713.24668,0.00475
2711.18651,0.00477
2709.12633,0.00481
2707.06616,0.00478
2705.00599,0.00470
2702.94582,0.00460
2700.88565,0.00454
2698.82547,0.00457
2696.76530,0.00459
2694.70513,0.00458
2692.64496,0.00462
2690.58478,0.00460
2688.52461,0.00453
2686.46444,0.00453
2684.40427,0.00463
2682.34410,0.00471
2680.28392,0.00467
2678.22375,0.00461
2676.16358,0.00459
2674.10341,0.00457
2672.04324,0.00442
2669.98306,0.00425
2667.92289,0.00426
2665.86272,0.00440
2663.80255,0.00443
2661.74238,0.00444
2659.68220,0.00447
2657.62203,0.00451
2655.56186,0.00458
2653.50169,0.00462
2651.44151,0.00451
2649.38134,0.00436
2647.32117,0.00428
2645.26100,0.00427
2643.20083,0.00426
2641.14065,0.00411
2639.08048,0.00391
2637.02031,0.00388
2634.96014,0.00395
2632.89997,0.00401
2630.83979,0.00409
2628.77962,0.00404
2626.71945,0.00392
2624.65928,0.00391
2622.59910,0.00394
2620.53893,0.00379
2618.47876,0.00349
2616.41859,0.00343
2614.35842,0.00364
2612.29824,0.00378
2610.23807,0.00382
2608.17790,0.00383
2606.11773,0.00378
2604.05756,0.00365
2601.99738,0.00356
2599.93721,0.00358
2597.87704,0.00359
2595.81687,0.00360
2593.75670,0.00361
2591.69652,0.00356
2589.63635,0.00351
2587.57618,0.00342
2585.51601,0.00321
2583.45583,0.00301
2581.39566,0.00304
2579.33549,0.00324
2577.27532,0.00345
2575.21515,0.00354
2573.15497,0.00334
2571.09480,0.00310
2569.03463,0.00314
2566.97446,0.00329
2564.91429,0.00347
2562.85411,0.00385
2560.79394,0.00401
2558.73377,0.00374
2556.67360,0.00353
2554.61342,0.00361
2552.55325,0.00376
2550.49308,0.00374
2548.43291,0.00355
2546.37274,0.00341
2544.31256,0.00332
2542.25239,0.00324
2540.19222,0.00328
2538.13205,0.00336
2536.07188,0.00337
2534.01170,0.00336
2531.95153,0.00338
2529.89136,0.00343
2527.83119,0.00340
2525.77102,0.00332
2523.71084,0.00330
2521.65067,0.00340
2519.59050,0.00342
2517.53033,0.00329
2515.47015,0.00331
2513.40998,0.00349
2511.34981,0.00351
2509.28964,0.00332
2507.22947,0.00317
2505.16929,0.00308
2503.10912,0.00291
2501.04895,0.00283
2498.98878,0.00308
2496.92861,0.00343
2494.86843,0.00349
2492.80826,0.00328
2490.74809,0.00314
2488.68792,0.00319
2486.62775,0.00335
2484.56757,0.00358
2482.50740,0.00368
2480.44723,0.00368
2478.38706,0.00366
2476.32688,0.00357
2474.26671,0.00347
2472.20654,0.00339
2470.14637,0.00345
2468.08620,0.00369
2466.02602,0.00385
2463.96585,0.00381
2461.90568,0.00374
2459.84551,0.00372
2457.78534,0.00365
2455.72516,0.00350
2453.66499,0.00337
2451.60482,0.00335
2449.54465,0.00319
2447.48447,0.00300
2445.42430,0.00312
2443.36413,0.00336
2441.30396,0.00341
2439.24379,0.00319
2437.18361,0.00306
2435.12344,0.00324
2433.06327,0.00339
2431.00310,0.00333
2428.94293,0.00318
2426.88275,0.00320
2424.82258,0.00331
2422.76241,0.00319
2420.70224,0.00300
2418.64207,0.00307
2416.58189,0.00328
2414.52172,0.00336
2412.46155,0.00334
2410.40138,0.00331
2408.34120,0.00323
2406.28103,0.00312
2404.22086,0.00319
2402.16069,0.00337
2400.10052,0.00348
2398.04034,0.00347
2395.98017,0.00348
2393.92000,0.00350
2391.85983,0.00348
2389.79966,0.00345
2387.73948,0.00340
2385.67931,0.00333
2383.61914,0.00320
2381.55897,0.00297
2379.49880,0.00276
2377.43862,0.00276
2375.37845,0.00278
2373.31828,0.00244
2371.25811,0.00173
2369.19793,0.00113
2367.13776,0.00139
2365.07759,0.00269
2363.01742,0.00412
2360.95725,0.00456
2358.89707,0.00388
2356.83690,0.00310
2354.77673,0.00263
2352.71656,0.00232
2350.65639,0.00235
2348.59621,0.00252
2346.53604,0.00248
2344.47587,0.00231
2342.41570,0.00246
2340.35552,0.00313
2338.29535,0.00369
2336.23518,0.00368
2334.17501,0.00343
2332.11484,0.00310
2330.05466,0.00261
2327.99449,0.00234
2325.93432,0.00263
2323.87415,0.00327
2321.81398,0.00390
2319.75380,0.00408
2317.69363,0.00383
2315.63346,0.00373
2313.57329,0.00390
2311.51312,0.00391
2309.45294,0.00365
2307.39277,0.00335
2305.33260,0.00317
2303.27243,0.00317
2301.21225,0.00331
2299.15208,0.00348
2297.09191,0.00370
2295.03174,0.00403
2292.97157,0.00429
2290.91139,0.00437
2288.85122,0.00433
2286.79105,0.00411
2284.73088,0.00371
2282.67071,0.00340
2280.61053,0.00337
2278.55036,0.00362
2276.49019,0.00382
2274.43002,0.00366
2272.36984,0.00346
2270.30967,0.00360
2268.24950,0.00386
2266.18933,0.00377
2264.12916,0.00336
2262.06898,0.00311
2260.00881,0.00304
2257.94864,0.00293
2255.88847,0.00293
2253.82830,0.00312
2251.76812,0.00324
2249.70795,0.00318
2247.64778,0.00319
2245.58761,0.00322
2243.52744,0.00312
2241.46726,0.00300
2239.40709,0.00293
2237.34692,0.00308
2235.28675,0.00350
2233.22657,0.00347
2231.16640,0.00288
2229.10623,0.00269
2227.04606,0.00278
2224.98589,0.00270
2222.92571,0.00308
2220.86554,0.00363
2218.80537,0.00341
2216.74520,0.00295
2214.68503,0.00304
2212.62485,0.00325
2210.56468,0.00285
2208.50451,0.00207
2206.44434,0.00176
2204.38417,0.00212
2202.32399,0.00270
2200.26382,0.00292
2198.20365,0.00267
2196.14348,0.00226
2194.08330,0.00225
2192.02313,0.00296
2189.96296,0.00363
2187.90279,0.00401
2185.84262,0.00429
2183.78244,0.00403
2181.72227,0.00356
2179.66210,0.00320
2177.60193,0.00236
2175.54176,0.00208
2173.48158,0.00305
2171.42141,0.00384
2169.36124,0.00412
2167.30107,0.00390
2165.24089,0.00319
2163.18072,0.00280
2161.12055,0.00188
2159.06038,0.00034
2157.00021,0.00049
2154.94003,0.00191
2152.87986,0.00266
2150.81969,0.00201
2148.75952,0.00116
2146.69935,0.00177
2144.63917,0.00270
2142.57900,0.00272
2140.51883,0.00258
2138.45866,0.00227
2136.39849,0.00163
2134.33831,0.00145
2132.27814,0.00180
2130.21797,0.00216
2128.15780,0.00225
2126.09762,0.00219
2124.03745,0.00216
2121.97728,0.00187
2119.91711,0.00173
2117.85694,0.00217
2115.79676,0.00268
2113.73659,0.00298
2111.67642,0.00294
2109.61625,0.00254
2107.55608,0.00244
2105.49590,0.00279
2103.43573,0.00297
2101.37556,0.00283
2099.31539,0.00280
2097.25521,0.00283
2095.19504,0.00298
2093.13487,0.00345
2091.07470,0.00362
2089.01453,0.00326
2086.95435,0.00294
2084.89418,0.00292
2082.83401,0.00291
2080.77384,0.00298
2078.71367,0.00344
2076.65349,0.00376
2074.59332,0.00319
2072.53315,0.00235
2070.47298,0.00221
2068.41281,0.00246
2066.35263,0.00243
2064.29246,0.00237
2062.23229,0.00241
2060.17212,0.00227
2058.11194,0.00213
2056.05177,0.00224
2053.99160,0.00246
2051.93143,0.00254
2049.87126,0.00236
2047.81108,0.00240
2045.75091,0.00259
2043.69074,0.00215
2041.63057,0.00098
2039.57040,0.00000
2037.51022,0.00028
2035.45005,0.00151
2033.38988,0.00268
2031.32971,0.00315
2029.26954,0.00257
2027.20936,0.00137
2025.14919,0.00050
2023.08902,0.00049
2021.02885,0.00126
2018.96867,0.00217
2016.90850,0.00223
2014.84833,0.00177
2012.78816,0.00168
2010.72799,0.00172
2008.66781,0.00194
2006.60764,0.00272
2004.54747,0.00331
2002.48730,0.00293
2000.42713,0.00218
1998.36695,0.00189
1996.30678,0.00202
1994.24661,0.00222
1992.18644,0.00233
1990.12626,0.00244
1988.06609,0.00237
1986.00592,0.00209
1983.94575,0.00196
1981.88558,0.00232
1979.82540,0.00252
1977.76523,0.00180
1975.70506,0.00149
1973.64489,0.00208
1971.58472,0.00206
1969.52454,0.00159
1967.46437,0.00163
1965.40420,0.00150
1963.34403,0.00111
1961.28386,0.00107
1959.22368,0.00103
1957.16351,0.00116
1955.10334,0.00175
1953.04317,0.00215
1950.98299,0.00179
1948.92282,0.00092
1946.86265,0.00036
1944.80248,0.00065
1942.74231,0.00135
1940.68213,0.00156
1938.62196,0.00130
1936.56179,0.00126
1934.50162,0.00148
1932.44145,0.00153
1930.38127,0.00125
1928.32110,0.00103
1926.26093,0.00113
1924.20076,0.00128
1922.14059,0.00122
1920.08041,0.00107
1918.02024,0.00121
1915.96007,0.00156
1913.89990,0.00156
1911.83972,0.00138
1909.77955,0.00138
1907.71938,0.00130
1905.65921,0.00103
1903.59904,0.00080
1901.53886,0.00081
1899.47869,0.00109
1897.41852,0.00139
1895.35835,0.00145
1893.29818,0.00135
1891.23800,0.00130
1889.17783,0.00139
1887.11766,0.00142
1885.05749,0.00123
1882.99731,0.00092
1880.93714,0.00078
1878.87697,0.00096
1876.81680,0.00130
1874.75663,0.00151
1872.69645,0.00140
1870.63628,0.00113
1868.57611,0.00102
1866.51594,0.00101
1864.45577,0.00095
1862.39559,0.00097
1860.33542,0.00105
1858.27525,0.00101
1856.21508,0.00093
1854.15491,0.00103
1852.09473,0.00119
1850.03456,0.00120
1847.97439,0.00116
1845.91422,0.00118
1843.85404,0.00124
1841.79387,0.00123
1839.73370,0.00113
1837.67353,0.00109
1835.61336,0.00122
1833.55318,0.00133
1831.49301,0.00138
1829.43284,0.00143
1827.37267,0.00143
1825.31250,0.00142
1823.25232,0.00143
1821.19215,0.00130
1819.13198,0.00104
1817.07181,0.00093
1815.01163,0.00105
1812.95146,0.00113
1810.89129,0.00102
1808.83112,0.00090
1806.77095,0.00087
1804.71077,0.00090
1802.65060,0.00099
1800.59043,0.00110
1798.53026,0.00120
1796.47009,0.00124
1794.40991,0.00122
1792.34974,0.00121
1790.28957,0.00134
1788.22940,0.00152
1786.16923,0.00155
1784.10905,0.00145
1782.04888,0.00137
1779.98871,0.00134
1777.92854,0.00129
1775.86836,0.00124
1773.80819,0.00129
1771.74802,0.00142
1769.68785,0.00148
1767.62768,0.00149
1765.56750,0.00145
1763.50733,0.00138
1761.44716,0.00145
1759.38699,0.00171
1757.32682,0.00200
1755.26664,0.00219
1753.20647,0.00227
1751.14630,0.00228
1749.08613,0.00229
1747.02596,0.00239
1744.96578,0.00248
1742.90561,0.00246
1740.84544,0.00238
1738.78527,0.00241
1736.72509,0.00252
1734.66492,0.00263
1732.60475,0.00269
1730.54458,0.00270
1728.48441,0.00272
1726.42423,0.00278
1724.36406,0.00287
1722.30389,0.00282
1720.24372,0.00265
1718.18355,0.00258
1716.12337,0.00269
1714.06320,0.00274
1712.00303,0.00275
1709.94286,0.00282
1707.88268,0.00289
1705.82251,0.00301
1703.76234,0.00325
1701.70217,0.00357
1699.64200,0.00383
1697.58182,0.00403
1695.52165,0.00430
1693.46148,0.00458
1691.40131,0.00482
1689.34114,0.00504
1687.28096,0.00521
1685.22079,0.00543
1683.16062,0.00584
1681.10045,0.00631
1679.04028,0.00668
1676.98010,0.00702
1674.91993,0.00738
1672.85976,0.00768
1670.79959,0.00798
1668.73941,0.00837
1666.67924,0.00868
1664.61907,0.00887
1662.55890,0.00899
1660.49873,0.00913
1658.43855,0.00933
1656.37838,0.00945
1654.31821,0.00938
1652.25804,0.00935
1650.19787,0.00956
1648.13769,0.00970
1646.07752,0.00966
1644.01735,0.00962
1641.95718,0.00957
1639.89701,0.00946
1637.83683,0.00932
1635.77666,0.00915
1633.71649,0.00901
1631.65632,0.00886
1629.59614,0.00864
1627.53597,0.00842
1625.47580,0.00829
1623.41563,0.00821
1621.35546,0.00810
1619.29528,0.00794
1617.23511,0.00776
1615.17494,0.00752
1613.11477,0.00729
1611.05460,0.00713
1608.99442,0.00703
1606.93425,0.00696
1604.87408,0.00690
1602.81391,0.00681
1600.75373,0.00670
1598.69356,0.00662
1596.63339,0.00654
1594.57322,0.00634
1592.51305,0.00605
1590.45287,0.00588
1588.39270,0.00589
1586.33253,0.00589
1584.27236,0.00570
1582.21219,0.00542
1580.15201,0.00518
1578.09184,0.00503
1576.03167,0.00497
1573.97150,0.00499
1571.91133,0.00498
1569.85115,0.00500
1567.79098,0.00504
1565.73081,0.00505
1563.67064,0.00507
1561.61046,0.00517
1559.55029,0.00517
1557.49012,0.00479
1555.42995,0.00444
1553.36978,0.00441
1551.30960,0.00449
1549.24943,0.00450
1547.18926,0.00449
1545.12909,0.00446
1543.06892,0.00431
1541.00874,0.00397
1538.94857,0.00371
1536.88840,0.00369
1534.82823,0.00371
1532.76805,0.00367
1530.70788,0.00361
1528.64771,0.00346
1526.58754,0.00320
1524.52737,0.00299
1522.46719,0.00292
1520.40702,0.00298
1518.34685,0.00313
1516.28668,0.00321
1514.22651,0.00315
1512.16633,0.00292
1510.10616,0.00259
1508.04599,0.00225
1505.98582,0.00207
1503.92565,0.00212
1501.86547,0.00223
1499.80530,0.00233
1497.74513,0.00239
1495.68496,0.00235
1493.62478,0.00215
1491.56461,0.00188
1489.50444,0.00176
1487.44427,0.00193
1485.38410,0.00209
1483.32392,0.00212
1481.26375,0.00210
1479.20358,0.00207
1477.14341,0.00204
1475.08324,0.00204
1473.02306,0.00208
1470.96289,0.00218
1468.90272,0.00231
1466.84255,0.00245
1464.78238,0.00263
1462.72220,0.00281
1460.66203,0.00283
1458.60186,0.00268
1456.54169,0.00254
1454.48151,0.00259
1452.42134,0.00267
1450.36117,0.00272
1448.30100,0.00276
1446.24083,0.00278
1444.18065,0.00278
1442.12048,0.00279
1440.06031,0.00284
1438.00014,0.00283
1435.93997,0.00271
1433.87979,0.00260
1431.81962,0.00261
1429.75945,0.00271
1427.69928,0.00283
1425.63910,0.00296
1423.57893,0.00310
1421.51876,0.00317
1419.45859,0.00316
1417.39842,0.00318
1415.33824,0.00321
1413.27807,0.00319
1411.21790,0.00317
1409.15773,0.00320
1407.09756,0.00320
1405.03738,0.00309
1402.97721,0.00298
1400.91704,0.00295
1398.85687,0.00292
1396.79670,0.00282
1394.73652,0.00271
1392.67635,0.00263
1390.61618,0.00255
1388.55601,0.00252
1386.49583,0.00256
1384.43566,0.00258
1382.37549,0.00256
1380.31532,0.00258
1378.25515,0.00264
1376.19497,0.00262
1374.13480,0.00252
1372.07463,0.00241
1370.01446,0.00236
1367.95429,0.00238
1365.89411,0.00239
1363.83394,0.00234
1361.77377,0.00226
1359.71360,0.00221
1357.65343,0.00219
1355.59325,0.00218
1353.53308,0.00216
1351.47291,0.00218
1349.41274,0.00222
1347.35256,0.00219
1345.29239,0.00203
1343.23222,0.00184
1341.17205,0.00168
1339.11188,0.00155
1337.05170,0.00154
1334.99153,0.00167
1332.93136,0.00179
1330.87119,0.00186
1328.81102,0.00185
1326.75084,0.00181
1324.69067,0.00176
1322.63050,0.00175
1320.57033,0.00174
1318.51015,0.00170
1316.44998,0.00167
1314.38981,0.00168
1312.32964,0.00174
1310.26947,0.00181
1308.20929,0.00181
1306.14912,0.00177
1304.08895,0.00170
1302.02878,0.00172
1299.96861,0.00187
1297.90843,0.00206
1295.84826,0.00225
1293.78809,0.00238
1291.72792,0.00234
1289.66775,0.00223
1287.60757,0.00211
1285.54740,0.00200
1283.48723,0.00193
1281.42706,0.00188
1279.36688,0.00187
1277.30671,0.00199
1275.24654,0.00212
1273.18637,0.00209
1271.12620,0.00199
1269.06602,0.00194
1267.00585,0.00186
1264.94568,0.00178
1262.88551,0.00184
1260.82534,0.00197
1258.76516,0.00205
1256.70499,0.00211
1254.64482,0.00215
1252.58465,0.00221
1250.52447,0.00226
1248.46430,0.00220
1246.40413,0.00205
1244.34396,0.00191
1242.28379,0.00184
1240.22361,0.00189
1238.16344,0.00196
1236.10327,0.00191
1234.04310,0.00174
1231.98293,0.00157
1229.92275,0.00147
1227.86258,0.00140
1225.80241,0.00132
1223.74224,0.00122
1221.68207,0.00117
1219.62189,0.00110
1217.56172,0.00092
1215.50155,0.00076
1213.44138,0.00075
1211.38120,0.00068
1209.32103,0.00045
1207.26086,0.00025
1205.20069,0.00016
1203.14052,0.00006
1201.08034,0.00000
1199.02017,0.00003
1196.96000,0.00006
1194.89983,-0.00001
1192.83966,-0.00002
1190.77948,0.00001
1188.71931,-0.00002
1186.65914,-0.00003
1184.59897,0.00006
1182.53880,0.00014
1180.47862,0.00017
1178.41845,0.00020
1176.35828,0.00037
1174.29811,0.00070
1172.23793,0.00093
1170.17776,0.00103
1168.11759,0.00112
1166.05742,0.00124
1163.99725,0.00148
1161.93707,0.00179
1159.87690,0.00199
1157.81673,0.00207
1155.75656,0.00221
1153.69639,0.00247
1151.63621,0.00274
1149.57604,0.00292
1147.51587,0.00315
1145.45570,0.00343
1143.39552,0.00366
1141.33535,0.00390
1139.27518,0.00418
1137.21501,0.00445
1135.15484,0.00476
1133.09466,0.00515
1131.03449,0.00557
1128.97432,0.00597
1126.91415,0.00638
1124.85398,0.00692
1122.79380,0.00752
1120.73363,0.00812
1118.67346,0.00872
1116.61329,0.00920
1114.55312,0.00960
1112.49294,0.01004
1110.43277,0.01051
1108.37260,0.01104
1106.31243,0.01165
1104.25225,0.01211
1102.19208,0.01243
1100.13191,0.01285
1098.07174,0.01327
1096.01157,0.01356
1093.95139,0.01379
1091.89122,0.01406
1089.83105,0.01442
1087.77088,0.01473
1085.71071,0.01492
1083.65053,0.01516
1081.59036,0.01556
1079.53019,0.01595
1077.47002,0.01616
1075.40985,0.01624
1073.34967,0.01634
1071.28950,0.01643
1069.22933,0.01648
1067.16916,0.01652
1065.10898,0.01658
1063.04881,0.01662
1060.98864,0.01657
1058.92847,0.01633
1056.86830,0.01606
1054.80812,0.01588
1052.74795,0.01560
1050.68778,0.01524
1048.62761,0.01492
1046.56744,0.01451
1044.50726,0.01403
1042.44709,0.01355
1040.38692,0.01295
1038.32675,0.01230
1036.26657,0.01175
1034.20640,0.01122
1032.14623,0.01055
1030.08606,0.00990
1028.02589,0.00937
1025.96571,0.00892
1023.90554,0.00847
1021.84537,0.00800
1019.78520,0.00758
1017.72503,0.00732
1015.66485,0.00707
1013.60468,0.00673
1011.54451,0.00644
1009.48434,0.00629
1007.42417,0.00642
1005.36399,0.00675
1003.30382,0.00710
1001.24365,0.00742
999.18348,0.00777
997.12330,0.00817
995.06313,0.00850
993.00296,0.00877
990.94279,0.00894
988.88262,0.00901
986.82244,0.00919
984.76227,0.00954
982.70210,0.00979
980.64193,0.00972
978.58176,0.00961
976.52158,0.00963
974.46141,0.00954
972.40124,0.00915
970.34107,0.00861
968.28089,0.00821
966.22072,0.00782
964.16055,0.00737
962.10038,0.00706
960.04021,0.00673
957.98003,0.00618
955.91986,0.00552
953.85969,0.00494
951.79952,0.00448
949.73935,0.00420
947.67917,0.00396
945.61900,0.00357
943.55883,0.00302
941.49866,0.00253
939.43849,0.00226
937.37831,0.00212
935.31814,0.00203
933.25797,0.00193
931.19780,0.00172
929.13762,0.00147
927.07745,0.00135
925.01728,0.00125
922.95711,0.00092
920.89694,0.00053
918.83676,0.00047
916.77659,0.00065
914.71642,0.00067
912.65625,0.00054
910.59608,0.00053
908.53590,0.00052
906.47573,0.00031
904.41556,0.00011
902.35539,0.00021
900.29522,0.00038
898.23504,0.00031
896.17487,0.00025
894.11470,0.00051
892.05453,0.00082
889.99435,0.00094
887.93418,0.00110
885.87401,0.00147
883.81384,0.00186
881.75367,0.00200
879.69349,0.00187
877.63332,0.00173
875.57315,0.00186
873.51298,0.00221
871.45281,0.00253
869.39263,0.00271
867.33246,0.00296
865.27229,0.00316
863.21212,0.00312
861.15194,0.00325
859.09177,0.00355
857.03160,0.00354
854.97143,0.00339
852.91126,0.00354
850.85108,0.00360
848.79091,0.00347
846.73074,0.00357
844.67057,0.00363
842.61040,0.00340
840.55022,0.00326
838.49005,0.00321
836.42988,0.00284
834.36971,0.00227
832.30954,0.00206
830.24936,0.00207
828.18919,0.00181
826.12902,0.00155
824.06885,0.00158
822.00867,0.00169
819.94850,0.00174
817.88833,0.00170
815.82816,0.00157
813.76799,0.00142
811.70781,0.00124
809.64764,0.00114
807.58747,0.00126
805.52730,0.00133
803.46713,0.00117
801.40695,0.00097
799.34678,0.00069
797.28661,0.00045
795.22644,0.00037
793.16627,0.00036
791.10609,0.00045
789.04592,0.00057
786.98575,0.00057
784.92558,0.00068
782.86540,0.00093
780.80523,0.00104
778.74506,0.00109
776.68489,0.00105
774.62472,0.00062
772.56454,0.00038
770.50437,0.00073
768.44420,0.00105
766.38403,0.00088
764.32386,0.00039
762.26368,0.00015
760.20351,0.00048
758.14334,0.00076
756.08317,0.00056
754.02299,0.00035
751.96282,0.00036
749.90265,0.00026
747.84248,0.00023
745.78231,0.00049
743.72213,0.00070
741.66196,0.00069
739.60179,0.00071
737.54162,0.00088
735.48145,0.00104
733.42127,0.00089
731.36110,0.00062
729.30093,0.00072
727.24076,0.00102
725.18059,0.00118
723.12041,0.00124
721.06024,0.00107
719.00007,0.00068
716.93990,0.00040
714.87972,0.00049
712.81955,0.00075
710.75938,0.00092
708.69921,0.00084
706.63904,0.00054
704.57886,0.00029
702.51869,0.00031
700.45852,0.00069
698.39835,0.00121
696.33818,0.00142
694.27800,0.00133
692.21783,0.00115
690.15766,0.00074
688.09749,0.00019
686.03731,0.00016
683.97714,0.00090
681.91697,0.00173
679.85680,0.00208
677.79663,0.00217
675.73645,0.00226
673.67628,0.00228
671.61611,0.00212
669.55594,0.00176
667.49577,0.00146
665.43559,0.00143
663.37542,0.00127
661.31525,0.00073
659.25508,0.00069
657.19491,0.00160
655.13473,0.00256
653.07456,0.00322
651.01439,0.00362
648.95422,0.00323
646.89404,0.00248
644.83387,0.00194
642.77370,0.00142
640.71353,0.00129
638.65336,0.00168
636.59318,0.00218
634.53301,0.00248
632.47284,0.00197
630.41267,0.00076
628.35250,0.00000
626.29232,-0.00002
624.23215,0.00013
622.17198,-0.00005
620.11181,-0.00030
618.05164,0.00011
615.99146,0.00119
613.93129,0.00160
611.87112,0.00086
609.81095,0.00040
607.75077,0.00108
605.69060,0.00172
603.63043,0.00126
601.57026,0.00064
599.51009,0.00000
