3996.73391,0.00009
3994.67373,0.00028
3992.61356,0.00026
3990.55339,0.00019
3988.49322,0.00022
3986.43305,0.00033
3984.37287,0.00043
3982.31270,0.00041
3980.25253,0.00057
3978.19236,0.00085
3976.13219,0.00067
3974.07201,0.00021
3972.01184,0.00000
3969.95167,0.00001
3967.89150,0.00007
3965.83133,0.00029
3963.77115,0.00070
3961.71098,0.00099
3959.65081,0.00080
3957.59064,0.00037
3955.53046,0.00011
3953.47029,0.00016
3951.41012,0.00047
3949.34995,0.00084
3947.28978,0.00087
3945.22960,0.00068
3943.16943,0.00079
3941.10926,0.00104
3939.04909,0.00105
3936.98892,0.00094
3934.92874,0.00085
3932.86857,0.00090
3930.80840,0.00106
3928.74823,0.00110
3926.68805,0.00113
3924.62788,0.00129
3922.56771,0.00141
3920.50754,0.00142
3918.44737,0.00153
3916.38719,0.00155
3914.32702,0.00135
3912.26685,0.00119
3910.20668,0.00099
3908.14651,0.00065
3906.08633,0.00070
3904.02616,0.00137
3901.96599,0.00179
3899.90582,0.00150
3897.84565,0.00112
3895.78547,0.00091
3893.72530,0.00090
3891.66513,0.00108
3889.60496,0.00125
3887.54478,0.00161
3885.48461,0.00232
3883.42444,0.00272
3881.36427,0.00258
3879.30410,0.00212
3877.24392,0.00139
3875.18375,0.00097
3873.12358,0.00142
3871.06341,0.00236
3869.00324,0.00282
3866.94306,0.00249
3864.88289,0.00202
3862.82272,0.00201
3860.76255,0.00229
3858.70237,0.00256
3856.64220,0.00276
3854.58203,0.00276
3852.52186,0.00265
3850.46169,0.00229
3848.40151,0.00187
3846.34134,0.00147
3844.28117,0.00127
3842.22100,0.00154
3840.16083,0.00227
3838.10065,0.00294
3836.04048,0.00295
3833.98031,0.00248
3831.92014,0.00210
3829.85997,0.00198
3827.79979,0.00201
3825.73962,0.00205
3823.67945,0.00210
3821.61928,0.00219
3819.55910,0.00231
3817.49893,0.00215
3815.43876,0.00177
3813.37859,0.00150
3811.31842,0.00134
3809.25824,0.00114
3807.19807,0.00103
3805.13790,0.00100
3803.07773,0.00083
3801.01756,0.00060
3798.95738,0.00044
3796.89721,0.00052
3794.83704,0.00090
3792.77687,0.00134
3790.71670,0.00145
3788.65652,0.00105
3786.59635,0.00053
3784.53618,0.00045
3782.47601,0.00067
3780.41583,0.00073
3778.35566,0.00066
3776.29549,0.00076
3774.23532,0.00115
3772.17515,0.00155
3770.11497,0.00174
3768.05480,0.00183
3765.99463,0.00184
3763.93446,0.00158
3761.87429,0.00131
3759.81411,0.00145
3757.75394,0.00191
3755.69377,0.00242
3753.63360,0.00281
3751.57342,0.00319
3749.51325,0.00399
3747.45308,0.00483
3745.39291,0.00514
3743.33274,0.00468
3741.27256,0.00416
3739.21239,0.00445
3737.15222,0.00523
3735.09205,0.00537
3733.03188,0.00438
3730.97170,0.00363
3728.91153,0.00392
3726.85136,0.00448
3724.79119,0.00448
3722.73102,0.00409
3720.67084,0.00381
3718.61067,0.00364
3716.55050,0.00341
3714.49033,0.00292
3712.43015,0.00239
3710.36998,0.00251
3708.30981,0.00297
3706.24964,0.00330
3704.18947,0.00345
3702.12929,0.00324
3700.06912,0.00271
3698.00895,0.00248
3695.94878,0.00269
3693.88861,0.00272
3691.82843,0.00258
3689.76826,0.00306
3687.70809,0.00374
3685.64792,0.00368
3683.58775,0.00322
3681.52757,0.00304
3679.46740,0.00341
3677.40723,0.00401
3675.34706,0.00443
3673.28688,0.00443
3671.22671,0.00443
3669.16654,0.00475
3667.10637,0.00480
3665.04620,0.00461
3662.98602,0.00478
3660.92585,0.00529
3658.86568,0.00566
3656.80551,0.00587
3654.74534,0.00577
3652.68516,0.00538
3650.62499,0.00609
3648.56482,0.00829
3646.50465,0.00940
3644.44447,0.00909
3642.38430,0.00853
3640.32413,0.00823
3638.26396,0.00854
3636.20379,0.00936
3634.14361,0.01020
3632.08344,0.01089
3630.02327,0.01154
3627.96310,0.01210
3625.90293,0.01247
3623.84275,0.01274
3621.78258,0.01298
3619.72241,0.01342
3617.66224,0.01413
3615.60207,0.01508
3613.54189,0.01628
3611.48172,0.01738
3609.42155,0.01811
3607.36138,0.01857
3605.30120,0.01875
3603.24103,0.01857
3601.18086,0.01839
3599.12069,0.01864
3597.06052,0.01925
3595.00034,0.01997
3592.94017,0.02078
3590.88000,0.02153
3588.81983,0.02215
3586.75966,0.02253
3584.69948,0.02247
3582.63931,0.02257
3580.57914,0.02312
3578.51897,0.02369
3576.45879,0.02421
3574.39862,0.02480
3572.33845,0.02527
3570.27828,0.02583
3568.21811,0.02687
3566.15793,0.02787
3564.09776,0.02819
3562.03759,0.02832
3559.97742,0.02864
3557.91725,0.02879
3555.85707,0.02864
3553.79690,0.02874
3551.73673,0.02952
3549.67656,0.03082
3547.61639,0.03212
3545.55621,0.03286
3543.49604,0.03278
3541.43587,0.03246
3539.37570,0.03276
3537.31552,0.03360
3535.25535,0.03431
3533.19518,0.03465
3531.13501,0.03503
3529.07484,0.03584
3527.01466,0.03687
3524.95449,0.03765
3522.89432,0.03801
3520.83415,0.03817
3518.77398,0.03823
3516.71380,0.03816
3514.65363,0.03816
3512.59346,0.03861
3510.53329,0.03961
3508.47312,0.04064
3506.41294,0.04115
3504.35277,0.04143
3502.29260,0.04192
3500.23243,0.04234
3498.17225,0.04251
3496.11208,0.04296
3494.05191,0.04384
3491.99174,0.04463
3489.93157,0.04525
3487.87139,0.04588
3485.81122,0.04620
3483.75105,0.04617
3481.69088,0.04640
3479.63071,0.04710
3477.57053,0.04777
3475.51036,0.04785
3473.45019,0.04764
3471.39002,0.04810
3469.32984,0.04917
3467.26967,0.05001
3465.20950,0.05049
3463.14933,0.05087
3461.08916,0.05109
3459.02898,0.05128
3456.96881,0.05165
3454.90864,0.05203
3452.84847,0.05231
3450.78830,0.05250
3448.72812,0.05275
3446.66795,0.05320
3444.60778,0.05362
3442.54761,0.05391
3440.48744,0.05439
3438.42726,0.05504
3436.36709,0.05557
3434.30692,0.05594
3432.24675,0.05627
3430.18657,0.05650
3428.12640,0.05663
3426.06623,0.05694
3424.00606,0.05729
3421.94589,0.05763
3419.88571,0.05840
3417.82554,0.05917
3415.76537,0.05923
3413.70520,0.05896
3411.64503,0.05920
3409.58485,0.05993
3407.52468,0.06036
3405.46451,0.06042
3403.40434,0.06065
3401.34416,0.06093
3399.28399,0.06136
3397.22382,0.06145
3395.16365,0.06163
3393.10348,0.06209
3391.04330,0.06278
3388.98313,0.06311
3386.92296,0.06305
3384.86279,0.06322
3382.80262,0.06351
3380.74244,0.06362
3378.68227,0.06387
3376.62210,0.06427
3374.56193,0.06447
3372.50176,0.06441
3370.44158,0.06429
3368.38141,0.06441
3366.32124,0.06485
3364.26107,0.06520
3362.20089,0.06513
3360.14072,0.06501
3358.08055,0.06512
3356.02038,0.06523
3353.96021,0.06523
3351.90003,0.06546
3349.83986,0.06592
3347.77969,0.06609
3345.71952,0.06579
3343.65935,0.06558
3341.59917,0.06601
3339.53900,0.06672
3337.47883,0.06695
3335.41866,0.06667
3333.35849,0.06647
3331.29831,0.06652
3329.23814,0.06669
3327.17797,0.06690
3325.11780,0.06716
3323.05762,0.06745
3320.99745,0.06751
3318.93728,0.06731
3316.87711,0.06729
3314.81694,0.06761
3312.75676,0.06792
3310.69659,0.06805
3308.63642,0.06815
3306.57625,0.06825
3304.51608,0.06839
3302.45590,0.06844
3300.39573,0.06846
3298.33556,0.06859
3296.27539,0.06873
3294.21521,0.06899
3292.15504,0.06934
3290.09487,0.06951
3288.03470,0.06960
3285.97453,0.06957
3283.91435,0.06937
3281.85418,0.06940
3279.79401,0.06964
3277.73384,0.06967
3275.67367,0.06952
3273.61349,0.06940
3271.55332,0.06935
3269.49315,0.06949
3267.43298,0.06967
3265.37281,0.06960
3263.31263,0.06944
3261.25246,0.06922
3259.19229,0.06892
3257.13212,0.06898
3255.07194,0.06919
3253.01177,0.06910
3250.95160,0.06907
3248.89143,0.06953
3246.83126,0.07011
3244.77108,0.07035
3242.71091,0.07014
3240.65074,0.06964
3238.59057,0.06941
3236.53040,0.06981
3234.47022,0.07034
3232.41005,0.07042
3230.34988,0.07026
3228.28971,0.07014
3226.22954,0.07015
3224.16936,0.07028
3222.10919,0.07015
3220.04902,0.06971
3217.98885,0.06947
3215.92867,0.06965
3213.86850,0.06983
3211.80833,0.06953
3209.74816,0.06908
3207.68799,0.06900
3205.62781,0.06900
3203.56764,0.06880
3201.50747,0.06872
3199.44730,0.06882
3197.38713,0.06872
3195.32695,0.06836
3193.26678,0.06800
3191.20661,0.06770
3189.14644,0.06732
3187.08626,0.06692
3185.02609,0.06688
3182.96592,0.06725
3180.90575,0.06751
3178.84558,0.06741
3176.78540,0.06710
3174.72523,0.06684
3172.66506,0.06696
3170.60489,0.06727
3168.54472,0.06735
3166.48454,0.06723
3164.42437,0.06699
3162.36420,0.06659
3160.30403,0.06629
3158.24386,0.06624
3156.18368,0.06606
3154.12351,0.06553
3152.06334,0.06508
3150.00317,0.06504
3147.94299,0.06504
3145.88282,0.06475
3143.82265,0.06432
3141.76248,0.06399
3139.70231,0.06389
3137.64213,0.06388
3135.58196,0.06387
3133.52179,0.06391
3131.46162,0.06358
3129.40145,0.06281
3127.34127,0.06222
3125.28110,0.06200
3123.22093,0.06192
3121.16076,0.06188
3119.10058,0.06183
3117.04041,0.06182
3114.98024,0.06176
3112.92007,0.06150
3110.85990,0.06103
3108.79972,0.06069
3106.73955,0.06062
3104.67938,0.06044
3102.61921,0.06008
3100.55904,0.05996
3098.49886,0.05997
3096.43869,0.05962
3094.37852,0.05914
3092.31835,0.05897
3090.25818,0.05883
3088.19800,0.05843
3086.13783,0.05805
3084.07766,0.05795
3082.01749,0.05808
3079.95731,0.05818
3077.89714,0.05791
3075.83697,0.05728
3073.77680,0.05661
3071.71663,0.05618
3069.65645,0.05593
3067.59628,0.05571
3065.53611,0.05555
3063.47594,0.05532
3061.41577,0.05496
3059.35559,0.05474
3057.29542,0.05457
3055.23525,0.05441
3053.17508,0.05439
3051.11491,0.05425
3049.05473,0.05376
3046.99456,0.05325
3044.93439,0.05288
3042.87422,0.05252
3040.81404,0.05218
3038.75387,0.05194
3036.69370,0.05177
3034.63353,0.05158
3032.57336,0.05144
3030.51318,0.05129
3028.45301,0.05104
3026.39284,0.05080
3024.33267,0.05065
3022.27250,0.05039
3020.21232,0.04996
3018.15215,0.04955
3016.09198,0.04949
3014.03181,0.04955
3011.97163,0.04925
3009.91146,0.04871
3007.85129,0.04840
3005.79112,0.04831
3003.73095,0.04808
3001.67077,0.04773
2999.61060,0.04747
2997.55043,0.04728
2995.49026,0.04694
2993.43009,0.04671
2991.36991,0.04667
2989.30974,0.04656
2987.24957,0.04646
2985.18940,0.04641
2983.12923,0.04612
2981.06905,0.04591
2979.00888,0.04596
2976.94871,0.04593
2974.88854,0.04573
2972.82836,0.04542
2970.76819,0.04500
2968.70802,0.04477
2966.64785,0.04492
2964.58768,0.04519
2962.52750,0.04522
2960.46733,0.04496
2958.40716,0.04459
2956.34699,0.04425
2954.28682,0.04394
2952.22664,0.04377
2950.16647,0.04378
2948.10630,0.04371
2946.04613,0.04343
2943.98596,0.04307
2941.92578,0.04288
2939.86561,0.04304
2937.80544,0.04332
2935.74527,0.04322
2933.68509,0.04281
2931.62492,0.04258
2929.56475,0.04251
2927.50458,0.04219
2925.44441,0.04172
2923.38423,0.04143
2921.32406,0.04109
2919.26389,0.04062
2917.20372,0.04039
2915.14355,0.04059
2913.08337,0.04078
2911.02320,0.04044
2908.96303,0.03989
2906.90286,0.03967
2904.84268,0.03959
2902.78251,0.03940
2900.72234,0.03903
2898.66217,0.03849
2896.60200,0.03804
2894.54182,0.03782
2892.48165,0.03773
2890.42148,0.03760
2888.36131,0.03745
2886.30114,0.03742
2884.24096,0.03741
2882.18079,0.03724
2880.12062,0.03691
2878.06045,0.03664
2876.00028,0.03641
2873.94010,0.03605
2871.87993,0.03576
2869.81976,0.03562
2867.75959,0.03541
2865.69941,0.03514
2863.63924,0.03470
2861.57907,0.03419
2859.51890,0.03389
2857.45873,0.03368
2855.39855,0.03330
2853.33838,0.03276
2851.27821,0.03232
2849.21804,0.03214
2847.15787,0.03213
2845.09769,0.03200
2843.03752,0.03161
2840.97735,0.03127
2838.91718,0.03099
2836.85700,0.03072
2834.79683,0.03062
2832.73666,0.03044
2830.67649,0.02999
2828.61632,0.02950
2826.55614,0.02930
2824.49597,0.02936
2822.43580,0.02930
2820.37563,0.02905
2818.31546,0.02890
2816.25528,0.02872
2814.19511,0.02838
2812.13494,0.02815
2810.07477,0.02803
2808.01460,0.02786
2805.95442,0.02771
2803.89425,0.02763
2801.83408,0.02752
2799.77391,0.02732
2797.71373,0.02701
2795.65356,0.02663
2793.59339,0.02622
2791.53322,0.02592
2789.47305,0.02583
2787.41287,0.02585
2785.35270,0.02589
2783.29253,0.02583
2781.23236,0.02558
2779.17219,0.02529
2777.11201,0.02505
2775.05184,0.02484
2772.99167,0.02469
2770.93150,0.02455
2768.87133,0.02444
2766.81115,0.02436
2764.75098,0.02431
2762.69081,0.02443
2760.63064,0.02462
2758.57046,0.02454
2756.51029,0.02417
2754.45012,0.02372
2752.38995,0.02335
2750.32978,0.02323
2748.26960,0.02323
2746.20943,0.02307
2744.14926,0.02281
2742.08909,0.02255
2740.02892,0.02226
2737.96874,0.02203
2735.90857,0.02189
2733.84840,0.02164
2731.78823,0.02144
2729.72805,0.02149
2727.66788,0.02152
2725.60771,0.02138
2723.54754,0.02124
2721.48737,0.02112
2719.42719,0.02092
2717.36702,0.02067
2715.30685,0.02054
2713.24668,0.02061
2711.18651,0.02067
2709.12633,0.02042
2707.06616,0.02012
2705.00599,0.02004
2702.94582,0.01991
2700.88565,0.01959
2698.82547,0.01938
2696.76530,0.01936
2694.70513,0.01917
2692.64496,0.01881
2690.58478,0.01850
2688.52461,0.01848
2686.46444,0.01870
2684.40427,0.01871
2682.34410,0.01836
2680.28392,0.01807
2678.22375,0.01798
2676.16358,0.01800
2674.10341,0.01802
2672.04324,0.01786
2669.98306,0.01750
2667.92289,0.01722
2665.86272,0.01708
2663.80255,0.01699
2661.74238,0.01699
2659.68220,0.01699
2657.62203,0.01678
2655.56186,0.01650
2653.50169,0.01636
2651.44151,0.01635
2649.38134,0.01633
2647.32117,0.01621
2645.26100,0.01608
2643.20083,0.01610
2641.14065,0.01605
2639.08048,0.01589
2637.02031,0.01572
2634.96014,0.01554
2632.89997,0.01537
2630.83979,0.01509
2628.77962,0.01474
2626.71945,0.01457
2624.65928,0.01444
2622.59910,0.01416
2620.53893,0.01395
2618.47876,0.01380
2616.41859,0.01351
2614.35842,0.01340
2612.29824,0.01370
2610.23807,0.01409
2608.17790,0.01405
2606.11773,0.01371
2604.05756,0.01347
2601.99738,0.01335
2599.93721,0.01336
2597.87704,0.01329
2595.81687,0.01303
2593.75670,0.01310
2591.69652,0.01347
2589.63635,0.01341
2587.57618,0.01289
2585.51601,0.01258
2583.45583,0.01261
2581.39566,0.01266
2579.33549,0.01260
2577.27532,0.01249
2575.21515,0.01230
2573.15497,0.01211
2571.09480,0.01208
2569.03463,0.01226
2566.97446,0.01246
2564.91429,0.01234
2562.85411,0.01220
2560.79394,0.01215
2558.73377,0.01188
2556.67360,0.01187
2554.61342,0.01227
2552.55325,0.01248
2550.49308,0.01236
2548.43291,0.01226
2546.37274,0.01236
2544.31256,0.01257
2542.25239,0.01280
2540.19222,0.01301
2538.13205,0.01304
2536.07188,0.01284
2534.01170,0.01249
2531.95153,0.01218
2529.89136,0.01213
2527.83119,0.01214
2525.77102,0.01217
2523.71084,0.01220
2521.65067,0.01187
2519.59050,0.01128
2517.53033,0.01102
2515.47015,0.01114
2513.40998,0.01166
2511.34981,0.01254
2509.28964,0.01302
2507.22947,0.01301
2505.16929,0.01301
2503.10912,0.01300
2501.04895,0.01285
2498.98878,0.01288
2496.92861,0.01281
2494.86843,0.01250
2492.80826,0.01243
2490.74809,0.01265
2488.68792,0.01289
2486.62775,0.01298
2484.56757,0.01304
2482.50740,0.01308
2480.44723,0.01297
2478.38706,0.01307
2476.32688,0.01348
2474.26671,0.01378
2472.20654,0.01370
2470.14637,0.01352
2468.08620,0.01355
2466.02602,0.01350
2463.96585,0.01329
2461.90568,0.01332
2459.84551,0.01347
2457.78534,0.01344
2455.72516,0.01347
2453.66499,0.01350
2451.60482,0.01338
2449.54465,0.01348
2447.48447,0.01373
2445.42430,0.01387
2443.36413,0.01392
2441.30396,0.01365
2439.24379,0.01323
2437.18361,0.01316
2435.12344,0.01315
2433.06327,0.01291
2431.00310,0.01285
2428.94293,0.01304
2426.88275,0.01323
2424.82258,0.01357
2422.76241,0.01380
2420.70224,0.01351
2418.64207,0.01318
2416.58189,0.01350
2414.52172,0.01401
2412.46155,0.01419
2410.40138,0.01411
2408.34120,0.01387
2406.28103,0.01369
2404.22086,0.01355
2402.16069,0.01317
2400.10052,0.01283
2398.04034,0.01140
2395.98017,0.01176
2393.92000,0.01265
2391.85983,0.01338
2389.79966,0.01434
2387.73948,0.01567
2385.67931,0.01701
2383.61914,0.01798
2381.55897,0.01840
2379.49880,0.01871
2377.43862,0.01929
2375.37845,0.02019
2373.31828,0.02088
2371.25811,0.02112
2369.19793,0.02098
2367.13776,0.02103
2365.07759,0.02186
2363.01742,0.02136
2360.95725,0.01727
2358.89707,0.01525
2356.83690,0.01878
2354.77673,0.02332
2352.71656,0.02469
2350.65639,0.02457
2348.59621,0.02465
2346.53604,0.02478
2344.47587,0.02267
2342.41570,0.02217
2340.35552,0.02336
2338.29535,0.02370
2336.23518,0.02328
2334.17501,0.02264
2332.11484,0.02234
2330.05466,0.02299
2327.99449,0.02387
2325.93432,0.02329
2323.87415,0.02159
2321.81398,0.01969
2319.75380,0.01933
2317.69363,0.01959
2315.63346,0.01935
2313.57329,0.01841
2311.51312,0.01803
2309.45294,0.01856
2307.39277,0.01863
2305.33260,0.01793
2303.27243,0.01717
2301.21225,0.01663
2299.15208,0.01641
2297.09191,0.01670
2295.03174,0.01697
2292.97157,0.01668
2290.91139,0.01612
2288.85122,0.01548
2286.79105,0.01453
2284.73088,0.01347
2282.67071,0.01269
2280.61053,0.01220
2278.55036,0.01186
2276.49019,0.01180
2274.43002,0.01205
2272.36984,0.01224
2270.30967,0.01201
2268.24950,0.01156
2266.18933,0.01131
2264.12916,0.01148
2262.06898,0.01186
2260.00881,0.01187
2257.94864,0.01148
2255.88847,0.01124
2253.82830,0.01123
2251.76812,0.01118
2249.70795,0.01092
2247.64778,0.01124
2245.58761,0.01131
2243.52744,0.01105
2241.46726,0.01083
2239.40709,0.01055
2237.34692,0.01020
2235.28675,0.01028
2233.22657,0.01036
2231.16640,0.00992
2229.10623,0.00931
2227.04606,0.00891
2224.98589,0.00867
2222.92571,0.00869
2220.86554,0.00940
2218.80537,0.01010
2216.74520,0.00971
2214.68503,0.00864
2212.62485,0.00774
2210.56468,0.00721
2208.50451,0.00742
2206.44434,0.00839
2204.38417,0.00914
2202.32399,0.00909
2200.26382,0.00854
2198.20365,0.00776
2196.14348,0.00801
2194.08330,0.00976
2192.02313,0.01056
2189.96296,0.00936
2187.90279,0.00766
2185.84262,0.00685
2183.78244,0.00782
2181.72227,0.00903
2179.66210,0.00831
2177.60193,0.00677
2175.54176,0.00635
2173.48158,0.00763
2171.42141,0.00977
2169.36124,0.01053
2167.30107,0.00935
2165.24089,0.00805
2163.18072,0.00608
2161.12055,0.00277
2159.06038,0.00086
2157.00021,0.00029
2154.94003,0.00092
2152.87986,0.00349
2150.81969,0.00514
2148.75952,0.00510
2146.69935,0.00533
2144.63917,0.00604
2142.57900,0.00608
2140.51883,0.00553
2138.45866,0.00535
2136.39849,0.00517
2134.33831,0.00539
2132.27814,0.00639
2130.21797,0.00676
2128.15780,0.00657
2126.09762,0.00711
2124.03745,0.00787
2121.97728,0.00807
2119.91711,0.00818
2117.85694,0.00835
2115.79676,0.00834
2113.73659,0.00826
2111.67642,0.00779
2109.61625,0.00699
2107.55608,0.00662
2105.49590,0.00666
2103.43573,0.00679
2101.37556,0.00722
2099.31539,0.00742
2097.25521,0.00753
2095.19504,0.00775
2093.13487,0.00803
2091.07470,0.00809
2089.01453,0.00788
2086.95435,0.00709
2084.89418,0.00619
2082.83401,0.00641
2080.77384,0.00715
2078.71367,0.00700
2076.65349,0.00655
2074.59332,0.00646
2072.53315,0.00652
2070.47298,0.00670
2068.41281,0.00681
2066.35263,0.00675
2064.29246,0.00667
2062.23229,0.00675
2060.17212,0.00734
2058.11194,0.00795
2056.05177,0.00765
2053.99160,0.00685
2051.93143,0.00570
2049.87126,0.00425
2047.81108,0.00422
2045.75091,0.00495
2043.69074,0.00439
2041.63057,0.00343
2039.57040,0.00334
2037.51022,0.00297
2035.45005,0.00197
2033.38988,0.00254
2031.32971,0.00429
2029.26954,0.00491
2027.20936,0.00507
2025.14919,0.00536
2023.08902,0.00455
2021.02885,0.00303
2018.96867,0.00239
2016.90850,0.00234
2014.84833,0.00125
2012.78816,0.00000
2010.72799,0.00084
2008.66781,0.00228
2006.60764,0.00188
2004.54747,0.00136
2002.48730,0.00231
2000.42713,0.00395
1998.36695,0.00583
1996.30678,0.00739
1994.24661,0.00748
1992.18644,0.00675
1990.12626,0.00642
1988.06609,0.00603
1986.00592,0.00572
1983.94575,0.00579
1981.88558,0.00499
1979.82540,0.00366
1977.76523,0.00352
1975.70506,0.00329
1973.64489,0.00164
1971.58472,0.00090
1969.52454,0.00228
1967.46437,0.00318
1965.40420,0.00201
1963.34403,0.00085
1961.28386,0.00112
1959.22368,0.00206
1957.16351,0.00305
1955.10334,0.00384
1953.04317,0.00388
1950.98299,0.00325
1948.92282,0.00310
1946.86265,0.00338
1944.80248,0.00323
1942.74231,0.00298
1940.68213,0.00344
1938.62196,0.00418
1936.56179,0.00402
1934.50162,0.00330
1932.44145,0.00311
1930.38127,0.00335
1928.32110,0.00368
1926.26093,0.00384
1924.20076,0.00395
1922.14059,0.00419
1920.08041,0.00395
1918.02024,0.00365
1915.96007,0.00424
1913.89990,0.00468
1911.83972,0.00404
1909.77955,0.00313
1907.71938,0.00284
1905.65921,0.00299
1903.59904,0.00305
1901.53886,0.00291
1899.47869,0.00295
1897.41852,0.00340
1895.35835,0.00400
1893.29818,0.00424
1891.23800,0.00423
1889.17783,0.00435
1887.11766,0.00445
1885.05749,0.00437
1882.99731,0.00437
1880.93714,0.00445
1878.87697,0.00429
1876.81680,0.00385
1874.75663,0.00352
1872.69645,0.00340
1870.63628,0.00338
1868.57611,0.00355
1866.51594,0.00387
1864.45577,0.00405
1862.39559,0.00405
1860.33542,0.00399
1858.27525,0.00410
1856.21508,0.00439
1854.15491,0.00455
1852.09473,0.00445
1850.03456,0.00429
1847.97439,0.00416
1845.91422,0.00414
1843.85404,0.00427
1841.79387,0.00438
1839.73370,0.00445
1837.67353,0.00462
1835.61336,0.00485
1833.55318,0.00486
1831.49301,0.00453
1829.43284,0.00427
1827.37267,0.00415
1825.31250,0.00396
1823.25232,0.00396
1821.19215,0.00426
1819.13198,0.00453
1817.07181,0.00446
1815.01163,0.00420
1812.95146,0.00409
1810.89129,0.00422
1808.83112,0.00451
1806.77095,0.00492
1804.71077,0.00542
1802.65060,0.00590
1800.59043,0.00613
1798.53026,0.00609
1796.47009,0.00596
1794.40991,0.00584
1792.34974,0.00583
1790.28957,0.00593
1788.22940,0.00606
1786.16923,0.00627
1784.10905,0.00640
1782.04888,0.00632
1779.98871,0.00614
1777.92854,0.00588
1775.86836,0.00556
1773.80819,0.00552
1771.74802,0.00606
1769.68785,0.00677
1767.62768,0.00703
1765.56750,0.00696
1763.50733,0.00717
1761.44716,0.00780
1759.38699,0.00839
1757.32682,0.00871
1755.26664,0.00900
1753.20647,0.00928
1751.14630,0.00955
1749.08613,0.01000
1747.02596,0.01064
1744.96578,0.01114
1742.90561,0.01106
1740.84544,0.01055
1738.78527,0.01030
1736.72509,0.01059
1734.66492,0.01126
1732.60475,0.01188
1730.54458,0.01179
1728.48441,0.01134
1726.42423,0.01106
1724.36406,0.01115
1722.30389,0.01145
1720.24372,0.01160
1718.18355,0.01172
1716.12337,0.01222
1714.06320,0.01271
1712.00303,0.01303
1709.94286,0.01325
1707.88268,0.01354
1705.82251,0.01424
1703.76234,0.01508
1701.70217,0.01559
1699.64200,0.01627
1697.58182,0.01750
1695.52165,0.01884
1693.46148,0.01980
1691.40131,0.02061
1689.34114,0.02149
1687.28096,0.02213
1685.22079,0.02273
1683.16062,0.02439
1681.10045,0.02625
1679.04028,0.02723
1676.98010,0.02770
1674.91993,0.02837
1672.85976,0.02925
1670.79959,0.03019
1668.73941,0.03140
1666.67924,0.03248
1664.61907,0.03324
1662.55890,0.03423
1660.49873,0.03546
1658.43855,0.03620
1656.37838,0.03613
1654.31821,0.03564
1652.25804,0.03572
1650.19787,0.03625
1648.13769,0.03658
1646.07752,0.03652
1644.01735,0.03633
1641.95718,0.03611
1639.89701,0.03574
1637.83683,0.03507
1635.77666,0.03434
1633.71649,0.03385
1631.65632,0.03341
1629.59614,0.03275
1627.53597,0.03191
1625.47580,0.03099
1623.41563,0.03011
1621.35546,0.02942
1619.29528,0.02851
1617.23511,0.02740
1615.17494,0.02693
1613.11477,0.02706
1611.05460,0.02698
1608.99442,0.02647
1606.93425,0.02575
1604.87408,0.02498
1602.81391,0.02433
1600.75373,0.02393
1598.69356,0.02364
1596.63339,0.02326
1594.57322,0.02282
1592.51305,0.02247
1590.45287,0.02210
1588.39270,0.02158
1586.33253,0.02111
1584.27236,0.02085
1582.21219,0.02067
1580.15201,0.02032
1578.09184,0.01989
1576.03167,0.01972
1573.97150,0.01968
1571.91133,0.01925
1569.85115,0.01868
1567.79098,0.01869
1565.73081,0.01907
1563.67064,0.01919
1561.61046,0.01883
1559.55029,0.01847
1557.49012,0.01894
1555.42995,0.01951
1553.36978,0.01976
1551.30960,0.01980
1549.24943,0.01960
1547.18926,0.01918
1545.12909,0.01873
1543.06892,0.01812
1541.00874,0.01695
1538.94857,0.01598
1536.88840,0.01600
1534.82823,0.01617
1532.76805,0.01601
1530.70788,0.01586
1528.64771,0.01573
1526.58754,0.01541
1524.52737,0.01495
1522.46719,0.01465
1520.40702,0.01468
1518.34685,0.01467
1516.28668,0.01446
1514.22651,0.01430
1512.16633,0.01427
1510.10616,0.01402
1508.04599,0.01306
1505.98582,0.01160
1503.92565,0.01080
1501.86547,0.01072
1499.80530,0.01049
1497.74513,0.00995
1495.68496,0.00941
1493.62478,0.00890
1491.56461,0.00847
1489.50444,0.00827
1487.44427,0.00809
1485.38410,0.00787
1483.32392,0.00789
1481.26375,0.00807
1479.20358,0.00818
1477.14341,0.00828
1475.08324,0.00851
1473.02306,0.00887
1470.96289,0.00921
1468.90272,0.00940
1466.84255,0.00942
1464.78238,0.00945
1462.72220,0.00966
1460.66203,0.00991
1458.60186,0.01010
1456.54169,0.01012
1454.48151,0.00985
1452.42134,0.00971
1450.36117,0.00965
1448.30100,0.00956
1446.24083,0.00946
1444.18065,0.00939
1442.12048,0.00938
1440.06031,0.00938
1438.00014,0.00945
1435.93997,0.00969
1433.87979,0.00987
1431.81962,0.00984
1429.75945,0.00977
1427.69928,0.00981
1425.63910,0.00998
1423.57893,0.01040
1421.51876,0.01103
1419.45859,0.01174
1417.39842,0.01210
1415.33824,0.01191
1413.27807,0.01166
1411.21790,0.01163
1409.15773,0.01157
1407.09756,0.01142
1405.03738,0.01127
1402.97721,0.01113
1400.91704,0.01110
1398.85687,0.01123
1396.79670,0.01113
1394.73652,0.01050
1392.67635,0.00974
1390.61618,0.00932
1388.55601,0.00917
1386.49583,0.00903
1384.43566,0.00884
1382.37549,0.00869
1380.31532,0.00864
1378.25515,0.00865
1376.19497,0.00856
1374.13480,0.00828
1372.07463,0.00794
1370.01446,0.00772
1367.95429,0.00771
1365.89411,0.00782
1363.83394,0.00788
1361.77377,0.00768
1359.71360,0.00713
1357.65343,0.00656
1355.59325,0.00622
1353.53308,0.00605
1351.47291,0.00590
1349.41274,0.00575
1347.35256,0.00556
1345.29239,0.00534
1343.23222,0.00536
1341.17205,0.00579
1339.11188,0.00614
1337.05170,0.00588
1334.99153,0.00534
1332.93136,0.00501
1330.87119,0.00497
1328.81102,0.00509
1326.75084,0.00519
1324.69067,0.00533
1322.63050,0.00553
1320.57033,0.00555
1318.51015,0.00550
1316.44998,0.00558
1314.38981,0.00559
1312.32964,0.00553
1310.26947,0.00560
1308.20929,0.00567
1306.14912,0.00555
1304.08895,0.00541
1302.02878,0.00546
1299.96861,0.00566
1297.90843,0.00586
1295.84826,0.00597
1293.78809,0.00612
1291.72792,0.00636
1289.66775,0.00647
1287.60757,0.00646
1285.54740,0.00650
1283.48723,0.00659
1281.42706,0.00663
1279.36688,0.00658
1277.30671,0.00651
1275.24654,0.00653
1273.18637,0.00674
1271.12620,0.00704
1269.06602,0.00714
1267.00585,0.00702
1264.94568,0.00692
1262.88551,0.00696
1260.82534,0.00714
1258.76516,0.00738
1256.70499,0.00752
1254.64482,0.00758
1252.58465,0.00759
1250.52447,0.00746
1248.46430,0.00735
1246.40413,0.00738
1244.34396,0.00739
1242.28379,0.00722
1240.22361,0.00691
1238.16344,0.00661
1236.10327,0.00652
1234.04310,0.00648
1231.98293,0.00619
1229.92275,0.00577
1227.86258,0.00539
1225.80241,0.00501
1223.74224,0.00466
1221.68207,0.00429
1219.62189,0.00388
1217.56172,0.00343
1215.50155,0.00294
1213.44138,0.00252
1211.38120,0.00223
1209.32103,0.00197
1207.26086,0.00169
1205.20069,0.00146
1203.14052,0.00113
1201.08034,0.00071
1199.02017,0.00049
1196.96000,0.00043
1194.89983,0.00023
1192.83966,0.00000
1190.77948,0.00010
1188.71931,0.00037
1186.65914,0.00054
1184.59897,0.00060
1182.53880,0.00075
1180.47862,0.00116
1178.41845,0.00162
1176.35828,0.00193
1174.29811,0.00215
1172.23793,0.00243
1170.17776,0.00290
1168.11759,0.00347
1166.05742,0.00406
1163.99725,0.00472
1161.93707,0.00544
1159.87690,0.00611
1157.81673,0.00690
1155.75656,0.00794
1153.69639,0.00904
1151.63621,0.01007
1149.57604,0.01117
1147.51587,0.01221
1145.45570,0.01302
1143.39552,0.01392
1141.33535,0.01527
1139.27518,0.01696
1137.21501,0.01880
1135.15484,0.02071
1133.09466,0.02254
1131.03449,0.02433
1128.97432,0.02629
1126.91415,0.02840
1124.85398,0.03054
1122.79380,0.03280
1120.73363,0.03533
1118.67346,0.03804
1116.61329,0.04046
1114.55312,0.04253
1112.49294,0.04481
1110.43277,0.04740
1108.37260,0.04999
1106.31243,0.05238
1104.25225,0.05460
1102.19208,0.05681
1100.13191,0.05893
1098.07174,0.06081
1096.01157,0.06271
1093.95139,0.06450
1091.89122,0.06606
1089.83105,0.06772
1087.77088,0.06947
1085.71071,0.07116
1083.65053,0.07280
1081.59036,0.07441
1079.53019,0.07598
1077.47002,0.07748
1075.40985,0.07882
1073.34967,0.07971
1071.28950,0.08008
1069.22933,0.08035
1067.16916,0.08066
1065.10898,0.08074
1063.04881,0.08047
1060.98864,0.07988
1058.92847,0.07901
1056.86830,0.07777
1054.80812,0.07604
1052.74795,0.07392
1050.68778,0.07156
1048.62761,0.06897
1046.56744,0.06597
1044.50726,0.06262
1042.44709,0.05925
1040.38692,0.05602
1038.32675,0.05293
1036.26657,0.05004
1034.20640,0.04721
1032.14623,0.04424
1030.08606,0.04134
1028.02589,0.03899
1025.96571,0.03712
1023.90554,0.03537
1021.84537,0.03362
1019.78520,0.03223
1017.72503,0.03152
1015.66485,0.03099
1013.60468,0.03029
1011.54451,0.02990
1009.48434,0.02997
1007.42417,0.03041
1005.36399,0.03136
1003.30382,0.03268
1001.24365,0.03410
999.18348,0.03560
997.12330,0.03704
995.06313,0.03850
993.00296,0.04041
990.94279,0.04244
988.88262,0.04380
986.82244,0.04472
984.76227,0.04564
982.70210,0.04637
980.64193,0.04684
978.58176,0.04681
976.52158,0.04581
974.46141,0.04421
972.40124,0.04274
970.34107,0.04135
968.28089,0.03949
966.22072,0.03710
964.16055,0.03466
962.10038,0.03249
960.04021,0.03047
957.98003,0.02828
955.91986,0.02581
953.85969,0.02338
951.79952,0.02136
949.73935,0.01978
947.67917,0.01832
945.61900,0.01655
943.55883,0.01460
941.49866,0.01288
939.43849,0.01148
937.37831,0.01060
935.31814,0.00990
933.25797,0.00879
931.19780,0.00765
929.13762,0.00679
927.07745,0.00611
925.01728,0.00572
922.95711,0.00542
920.89694,0.00494
918.83676,0.00440
916.77659,0.00397
914.71642,0.00374
912.65625,0.00357
910.59608,0.00320
908.53590,0.00289
906.47573,0.00314
904.41556,0.00391
902.35539,0.00447
900.29522,0.00454
898.23504,0.00441
896.17487,0.00436
894.11470,0.00463
892.05453,0.00525
889.99435,0.00604
887.93418,0.00691
885.87401,0.00771
883.81384,0.00851
881.75367,0.00967
879.69349,0.01104
877.63332,0.01204
875.57315,0.01260
873.51298,0.01302
871.45281,0.01358
869.39263,0.01443
867.33246,0.01514
865.27229,0.01533
863.21212,0.01547
861.15194,0.01588
859.09177,0.01646
857.03160,0.01707
854.97143,0.01733
852.91126,0.01713
850.85108,0.01650
848.79091,0.01573
846.73074,0.01509
844.67057,0.01427
842.61040,0.01353
840.55022,0.01306
838.49005,0.01253
836.42988,0.01192
834.36971,0.01113
832.30954,0.01053
830.24936,0.01036
828.18919,0.00961
826.12902,0.00825
824.06885,0.00757
822.00867,0.00732
819.94850,0.00666
817.88833,0.00608
815.82816,0.00591
813.76799,0.00575
811.70781,0.00547
809.64764,0.00524
807.58747,0.00498
805.52730,0.00471
803.46713,0.00471
801.40695,0.00464
799.34678,0.00402
797.28661,0.00303
795.22644,0.00219
793.16627,0.00182
791.10609,0.00190
789.04592,0.00205
786.98575,0.00196
784.92558,0.00168
782.86540,0.00147
780.80523,0.00175
778.74506,0.00241
776.68489,0.00281
774.62472,0.00263
772.56454,0.00186
770.50437,0.00099
768.44420,0.00115
766.38403,0.00200
764.32386,0.00238
762.26368,0.00223
760.20351,0.00167
758.14334,0.00101
756.08317,0.00074
754.02299,0.00095
751.96282,0.00174
749.90265,0.00252
747.84248,0.00280
745.78231,0.00277
743.72213,0.00227
741.66196,0.00181
739.60179,0.00221
737.54162,0.00280
735.48145,0.00286
733.42127,0.00255
731.36110,0.00214
729.30093,0.00197
727.24076,0.00213
725.18059,0.00265
723.12041,0.00430
721.06024,0.00415
719.00007,0.00314
716.93990,0.00251
714.87972,0.00241
712.81955,0.00259
710.75938,0.00295
708.69921,0.00361
706.63904,0.00420
704.57886,0.00465
702.51869,0.00502
700.45852,0.00504
698.39835,0.00501
696.33818,0.00538
694.27800,0.00583
692.21783,0.00553
690.15766,0.00463
688.09749,0.00415
686.03731,0.00405
683.97714,0.00358
681.91697,0.00284
679.85680,0.00259
677.79663,0.00359
675.73645,0.00522
673.67628,0.00513
671.61611,0.00151
669.55594,0.00000
667.49577,0.00351
665.43559,0.00267
663.37542,0.00541
661.31525,0.00696
659.25508,0.00596
657.19491,0.00413
655.13473,0.00362
653.07456,0.00496
651.01439,0.00631
648.95422,0.00655
646.89404,0.00666
644.83387,0.00731
642.77370,0.00755
640.71353,0.00660
638.65336,0.00510
636.59318,0.00434
634.53301,0.00483
632.47284,0.00526
630.41267,0.00438
628.35250,0.00286
626.29232,0.00137
624.23215,0.00005
622.17198,-0.00024
620.11181,0.00135
618.05164,0.00375
615.99146,0.00419
613.93129,0.00233
611.87112,0.00114
609.81095,0.00087
607.75077,-0.00085
605.69060,-0.00225
603.63043,0.00040
601.57026,0.00257
599.51009,0.00000
