3996.73391,0.00000
3994.67373,0.00020
3992.61356,0.00046
3990.55339,0.00060
3988.49322,0.00062
3986.43305,0.00058
3984.37287,0.00044
3982.31270,0.00036
3980.25253,0.00055
3978.19236,0.00076
3976.13219,0.00060
3974.07201,0.00026
3972.01184,0.00027
3969.95167,0.00055
3967.89150,0.00079
3965.83133,0.00093
3963.77115,0.00093
3961.71098,0.00071
3959.65081,0.00037
3957.59064,0.00024
3955.53046,0.00035
3953.47029,0.00038
3951.41012,0.00052
3949.34995,0.00109
3947.28978,0.00155
3945.22960,0.00134
3943.16943,0.00091
3941.10926,0.00066
3939.04909,0.00054
3936.98892,0.00065
3934.92874,0.00089
3932.86857,0.00109
3930.80840,0.00114
3928.74823,0.00092
3926.68805,0.00064
3924.62788,0.00069
3922.56771,0.00089
3920.50754,0.00088
3918.44737,0.00088
3916.38719,0.00089
3914.32702,0.00074
3912.26685,0.00068
3910.20668,0.00070
3908.14651,0.00071
3906.08633,0.00111
3904.02616,0.00192
3901.96599,0.00211
3899.90582,0.00144
3897.84565,0.00094
3895.78547,0.00099
3893.72530,0.00124
3891.66513,0.00137
3889.60496,0.00124
3887.54478,0.00140
3885.48461,0.00214
3883.42444,0.00269
3881.36427,0.00253
3879.30410,0.00189
3877.24392,0.00117
3875.18375,0.00093
3873.12358,0.00137
3871.06341,0.00198
3869.00324,0.00228
3866.94306,0.00217
3864.88289,0.00184
3862.82272,0.00171
3860.76255,0.00188
3858.70237,0.00202
3856.64220,0.00200
3854.58203,0.00196
3852.52186,0.00225
3850.46169,0.00240
3848.40151,0.00217
3846.34134,0.00150
3844.28117,0.00078
3842.22100,0.00073
3840.16083,0.00135
3838.10065,0.00192
3836.04048,0.00192
3833.98031,0.00162
3831.92014,0.00154
3829.85997,0.00177
3827.79979,0.00199
3825.73962,0.00197
3823.67945,0.00173
3821.61928,0.00132
3819.55910,0.00091
3817.49893,0.00059
3815.43876,0.00069
3813.37859,0.00120
3811.31842,0.00147
3809.25824,0.00119
3807.19807,0.00081
3805.13790,0.00075
3803.07773,0.00077
3801.01756,0.00064
3798.95738,0.00045
3796.89721,0.00050
3794.83704,0.00085
3792.77687,0.00107
3790.71670,0.00100
3788.65652,0.00083
3786.59635,0.00080
3784.53618,0.00088
3782.47601,0.00075
3780.41583,0.00049
3778.35566,0.00070
3776.29549,0.00129
3774.23532,0.00162
3772.17515,0.00160
3770.11497,0.00156
3768.05480,0.00159
3765.99463,0.00161
3763.93446,0.00157
3761.87429,0.00166
3759.81411,0.00202
3757.75394,0.00255
3755.69377,0.00294
3753.63360,0.00280
3751.57342,0.00234
3749.51325,0.00250
3747.45308,0.00333
3745.39291,0.00431
3743.33274,0.00442
3741.27256,0.00379
3739.21239,0.00385
3737.15222,0.00442
3735.09205,0.00429
3733.03188,0.00337
3730.97170,0.00318
3728.91153,0.00395
3726.85136,0.00457
3724.79119,0.00431
3722.73102,0.00343
3720.67084,0.00264
3718.61067,0.00240
3716.55050,0.00283
3714.49033,0.00314
3712.43015,0.00288
3710.36998,0.00268
3708.30981,0.00266
3706.24964,0.00294
3704.18947,0.00330
3702.12929,0.00328
3700.06912,0.00283
3698.00895,0.00231
3695.94878,0.00210
3693.88861,0.00198
3691.82843,0.00177
3689.76826,0.00180
3687.70809,0.00229
3685.64792,0.00270
3683.58775,0.00290
3681.52757,0.00299
3679.46740,0.00309
3677.40723,0.00311
3675.34706,0.00321
3673.28688,0.00364
3671.22671,0.00427
3669.16654,0.00482
3667.10637,0.00500
3665.04620,0.00486
3662.98602,0.00477
3660.92585,0.00500
3658.86568,0.00546
3656.80551,0.00597
3654.74534,0.00627
3652.68516,0.00626
3650.62499,0.00657
3648.56482,0.00793
3646.50465,0.00913
3644.44447,0.00937
3642.38430,0.00923
3640.32413,0.00928
3638.26396,0.00976
3636.20379,0.01052
3634.14361,0.01122
3632.08344,0.01175
3630.02327,0.01242
3627.96310,0.01331
3625.90293,0.01376
3623.84275,0.01387
3621.78258,0.01380
3619.72241,0.01385
3617.66224,0.01467
3615.60207,0.01604
3613.54189,0.01747
3611.48172,0.01858
3609.42155,0.01936
3607.36138,0.01997
3605.30120,0.02012
3603.24103,0.01979
3601.18086,0.01957
3599.12069,0.02001
3597.06052,0.02083
3595.00034,0.02164
3592.94017,0.02221
3590.88000,0.02261
3588.81983,0.02326
3586.75966,0.02428
3584.69948,0.02508
3582.63931,0.02558
3580.57914,0.02591
3578.51897,0.02619
3576.45879,0.02666
3574.39862,0.02724
3572.33845,0.02765
3570.27828,0.02798
3568.21811,0.02866
3566.15793,0.02951
3564.09776,0.02988
3562.03759,0.03009
3559.97742,0.03050
3557.91725,0.03091
3555.85707,0.03132
3553.79690,0.03192
3551.73673,0.03275
3549.67656,0.03378
3547.61639,0.03495
3545.55621,0.03591
3543.49604,0.03626
3541.43587,0.03611
3539.37570,0.03620
3537.31552,0.03683
3535.25535,0.03744
3533.19518,0.03763
3531.13501,0.03791
3529.07484,0.03872
3527.01466,0.03992
3524.95449,0.04094
3522.89432,0.04145
3520.83415,0.04181
3518.77398,0.04228
3516.71380,0.04249
3514.65363,0.04248
3512.59346,0.04290
3510.53329,0.04391
3508.47312,0.04487
3506.41294,0.04542
3504.35277,0.04587
3502.29260,0.04647
3500.23243,0.04673
3498.17225,0.04657
3496.11208,0.04704
3494.05191,0.04825
3491.99174,0.04887
3489.93157,0.04892
3487.87139,0.04937
3485.81122,0.05021
3483.75105,0.05102
3481.69088,0.05171
3479.63071,0.05216
3477.57053,0.05233
3475.51036,0.05247
3473.45019,0.05277
3471.39002,0.05336
3469.32984,0.05412
3467.26967,0.05465
3465.20950,0.05504
3463.14933,0.05554
3461.08916,0.05610
3459.02898,0.05670
3456.96881,0.05743
3454.90864,0.05791
3452.84847,0.05797
3450.78830,0.05823
3448.72812,0.05883
3446.66795,0.05928
3444.60778,0.05945
3442.54761,0.05965
3440.48744,0.06007
3438.42726,0.06056
3436.36709,0.06098
3434.30692,0.06135
3432.24675,0.06177
3430.18657,0.06235
3428.12640,0.06296
3426.06623,0.06328
3424.00606,0.06331
3421.94589,0.06349
3419.88571,0.06428
3417.82554,0.06501
3415.76537,0.06497
3413.70520,0.06461
3411.64503,0.06477
3409.58485,0.06558
3407.52468,0.06628
3405.46451,0.06662
3403.40434,0.06685
3401.34416,0.06681
3399.28399,0.06694
3397.22382,0.06703
3395.16365,0.06751
3393.10348,0.06815
3391.04330,0.06848
3388.98313,0.06839
3386.92296,0.06843
3384.86279,0.06886
3382.80262,0.06933
3380.74244,0.06967
3378.68227,0.06992
3376.62210,0.07022
3374.56193,0.07040
3372.50176,0.07026
3370.44158,0.07004
3368.38141,0.07007
3366.32124,0.07030
3364.26107,0.07048
3362.20089,0.07071
3360.14072,0.07105
3358.08055,0.07129
3356.02038,0.07142
3353.96021,0.07151
3351.90003,0.07176
3349.83986,0.07209
3347.77969,0.07200
3345.71952,0.07170
3343.65935,0.07209
3341.59917,0.07298
3339.53900,0.07344
3337.47883,0.07339
3335.41866,0.07317
3333.35849,0.07308
3331.29831,0.07318
3329.23814,0.07322
3327.17797,0.07334
3325.11780,0.07377
3323.05762,0.07412
3320.99745,0.07405
3318.93728,0.07398
3316.87711,0.07432
3314.81694,0.07477
3312.75676,0.07474
3310.69659,0.07434
3308.63642,0.07430
3306.57625,0.07473
3304.51608,0.07522
3302.45590,0.07535
3300.39573,0.07523
3298.33556,0.07536
3296.27539,0.07566
3294.21521,0.07582
3292.15504,0.07591
3290.09487,0.07593
3288.03470,0.07597
3285.97453,0.07595
3283.91435,0.07565
3281.85418,0.07538
3279.79401,0.07545
3277.73384,0.07567
3275.67367,0.07567
3273.61349,0.07555
3271.55332,0.07562
3269.49315,0.07575
3267.43298,0.07563
3265.37281,0.07527
3263.31263,0.07520
3261.25246,0.07544
3259.19229,0.07558
3257.13212,0.07561
3255.07194,0.07564
3253.01177,0.07574
3250.95160,0.07612
3248.89143,0.07659
3246.83126,0.07666
3244.77108,0.07645
3242.71091,0.07625
3240.65074,0.07600
3238.59057,0.07581
3236.53040,0.07596
3234.47022,0.07613
3232.41005,0.07604
3230.34988,0.07589
3228.28971,0.07577
3226.22954,0.07571
3224.16936,0.07584
3222.10919,0.07597
3220.04902,0.07581
3217.98885,0.07551
3215.92867,0.07558
3213.86850,0.07577
3211.80833,0.07557
3209.74816,0.07523
3207.68799,0.07499
3205.62781,0.07475
3203.56764,0.07460
3201.50747,0.07448
3199.44730,0.07424
3197.38713,0.07405
3195.32695,0.07403
3193.26678,0.07396
3191.20661,0.07357
3189.14644,0.07314
3187.08626,0.07302
3185.02609,0.07322
3182.96592,0.07351
3180.90575,0.07346
3178.84558,0.07308
3176.78540,0.07281
3174.72523,0.07272
3172.66506,0.07277
3170.60489,0.07295
3168.54472,0.07293
3166.48454,0.07274
3164.42437,0.07259
3162.36420,0.07234
3160.30403,0.07194
3158.24386,0.07149
3156.18368,0.07106
3154.12351,0.07067
3152.06334,0.07041
3150.00317,0.07032
3147.94299,0.07027
3145.88282,0.07011
3143.82265,0.06978
3141.76248,0.06932
3139.70231,0.06891
3137.64213,0.06875
3135.58196,0.06887
3133.52179,0.06910
3131.46162,0.06906
3129.40145,0.06863
3127.34127,0.06815
3125.28110,0.06787
3123.22093,0.06775
3121.16076,0.06768
3119.10058,0.06753
3117.04041,0.06719
3114.98024,0.06666
3112.92007,0.06627
3110.85990,0.06628
3108.79972,0.06631
3106.73955,0.06602
3104.67938,0.06563
3102.61921,0.06542
3100.55904,0.06538
3098.49886,0.06519
3096.43869,0.06463
3094.37852,0.06393
3092.31835,0.06359
3090.25818,0.06350
3088.19800,0.06338
3086.13783,0.06329
3084.07766,0.06326
3082.01749,0.06315
3079.95731,0.06287
3077.89714,0.06244
3075.83697,0.06188
3073.77680,0.06127
3071.71663,0.06079
3069.65645,0.06059
3067.59628,0.06057
3065.53611,0.06040
3063.47594,0.05992
3061.41577,0.05959
3059.35559,0.05962
3057.29542,0.05941
3055.23525,0.05902
3053.17508,0.05881
3051.11491,0.05855
3049.05473,0.05815
3046.99456,0.05777
3044.93439,0.05742
3042.87422,0.05709
3040.81404,0.05680
3038.75387,0.05655
3036.69370,0.05639
3034.63353,0.05616
3032.57336,0.05576
3030.51318,0.05543
3028.45301,0.05529
3026.39284,0.05513
3024.33267,0.05476
3022.27250,0.05422
3020.21232,0.05361
3018.15215,0.05309
3016.09198,0.05282
3014.03181,0.05281
3011.97163,0.05300
3009.91146,0.05306
3007.85129,0.05282
3005.79112,0.05244
3003.73095,0.05186
3001.67077,0.05125
2999.61060,0.05089
2997.55043,0.05072
2995.49026,0.05069
2993.43009,0.05069
2991.36991,0.05048
2989.30974,0.05022
2987.24957,0.05020
2985.18940,0.05025
2983.12923,0.05015
2981.06905,0.05008
2979.00888,0.05018
2976.94871,0.05015
2974.88854,0.04989
2972.82836,0.04942
2970.76819,0.04895
2968.70802,0.04876
2966.64785,0.04872
2964.58768,0.04870
2962.52750,0.04850
2960.46733,0.04812
2958.40716,0.04794
2956.34699,0.04794
2954.28682,0.04786
2952.22664,0.04776
2950.16647,0.04756
2948.10630,0.04739
2946.04613,0.04747
2943.98596,0.04739
2941.92578,0.04700
2939.86561,0.04669
2937.80544,0.04656
2935.74527,0.04643
2933.68509,0.04618
2931.62492,0.04601
2929.56475,0.04604
2927.50458,0.04599
2925.44441,0.04575
2923.38423,0.04535
2921.32406,0.04475
2919.26389,0.04417
2917.20372,0.04379
2915.14355,0.04363
2913.08337,0.04357
2911.02320,0.04333
2908.96303,0.04295
2906.90286,0.04266
2904.84268,0.04241
2902.78251,0.04210
2900.72234,0.04162
2898.66217,0.04096
2896.60200,0.04056
2894.54182,0.04040
2892.48165,0.04020
2890.42148,0.04005
2888.36131,0.03987
2886.30114,0.03973
2884.24096,0.03974
2882.18079,0.03973
2880.12062,0.03957
2878.06045,0.03936
2876.00028,0.03904
2873.94010,0.03849
2871.87993,0.03802
2869.81976,0.03785
2867.75959,0.03772
2865.69941,0.03743
2863.63924,0.03690
2861.57907,0.03631
2859.51890,0.03588
2857.45873,0.03563
2855.39855,0.03547
2853.33838,0.03515
2851.27821,0.03473
2849.21804,0.03441
2847.15787,0.03407
2845.09769,0.03371
2843.03752,0.03355
2840.97735,0.03350
2838.91718,0.03318
2836.85700,0.03275
2834.79683,0.03254
2832.73666,0.03222
2830.67649,0.03163
2828.61632,0.03113
2826.55614,0.03099
2824.49597,0.03104
2822.43580,0.03093
2820.37563,0.03058
2818.31546,0.03023
2816.25528,0.03008
2814.19511,0.02993
2812.13494,0.02963
2810.07477,0.02926
2808.01460,0.02892
2805.95442,0.02868
2803.89425,0.02855
2801.83408,0.02854
2799.77391,0.02856
2797.71373,0.02847
2795.65356,0.02822
2793.59339,0.02779
2791.53322,0.02740
2789.47305,0.02717
2787.41287,0.02705
2785.35270,0.02698
2783.29253,0.02676
2781.23236,0.02640
2779.17219,0.02619
2777.11201,0.02612
2775.05184,0.02602
2772.99167,0.02585
2770.93150,0.02565
2768.87133,0.02550
2766.81115,0.02532
2764.75098,0.02512
2762.69081,0.02509
2760.63064,0.02507
2758.57046,0.02488
2756.51029,0.02465
2754.45012,0.02442
2752.38995,0.02433
2750.32978,0.02428
2748.26960,0.02398
2746.20943,0.02365
2744.14926,0.02360
2742.08909,0.02361
2740.02892,0.02325
2737.96874,0.02276
2735.90857,0.02256
2733.84840,0.02233
2731.78823,0.02211
2729.72805,0.02223
2727.66788,0.02231
2725.60771,0.02209
2723.54754,0.02186
2721.48737,0.02161
2719.42719,0.02134
2717.36702,0.02117
2715.30685,0.02105
2713.24668,0.02107
2711.18651,0.02113
2709.12633,0.02088
2707.06616,0.02047
2705.00599,0.02036
2702.94582,0.02032
2700.88565,0.01992
2698.82547,0.01957
2696.76530,0.01955
2694.70513,0.01942
2692.64496,0.01907
2690.58478,0.01878
2688.52461,0.01877
2686.46444,0.01892
2684.40427,0.01879
2682.34410,0.01848
2680.28392,0.01833
2678.22375,0.01825
2676.16358,0.01824
2674.10341,0.01829
2672.04324,0.01814
2669.98306,0.01779
2667.92289,0.01747
2665.86272,0.01737
2663.80255,0.01739
2661.74238,0.01727
2659.68220,0.01702
2657.62203,0.01686
2655.56186,0.01677
2653.50169,0.01662
2651.44151,0.01647
2649.38134,0.01640
2647.32117,0.01625
2645.26100,0.01611
2643.20083,0.01612
2641.14065,0.01602
2639.08048,0.01585
2637.02031,0.01563
2634.96014,0.01535
2632.89997,0.01510
2630.83979,0.01475
2628.77962,0.01442
2626.71945,0.01437
2624.65928,0.01442
2622.59910,0.01439
2620.53893,0.01429
2618.47876,0.01395
2616.41859,0.01357
2614.35842,0.01354
2612.29824,0.01373
2610.23807,0.01397
2608.17790,0.01394
2606.11773,0.01368
2604.05756,0.01345
2601.99738,0.01328
2599.93721,0.01324
2597.87704,0.01313
2595.81687,0.01294
2593.75670,0.01284
2591.69652,0.01273
2589.63635,0.01261
2587.57618,0.01258
2585.51601,0.01255
2583.45583,0.01248
2581.39566,0.01237
2579.33549,0.01225
2577.27532,0.01240
2575.21515,0.01259
2573.15497,0.01244
2571.09480,0.01204
2569.03463,0.01190
2566.97446,0.01204
2564.91429,0.01194
2562.85411,0.01177
2560.79394,0.01174
2558.73377,0.01167
2556.67360,0.01162
2554.61342,0.01160
2552.55325,0.01137
2550.49308,0.01094
2548.43291,0.01085
2546.37274,0.01142
2544.31256,0.01198
2542.25239,0.01202
2540.19222,0.01207
2538.13205,0.01237
2536.07188,0.01242
2534.01170,0.01206
2531.95153,0.01164
2529.89136,0.01151
2527.83119,0.01146
2525.77102,0.01126
2523.71084,0.01118
2521.65067,0.01125
2519.59050,0.01116
2517.53033,0.01110
2515.47015,0.01105
2513.40998,0.01108
2511.34981,0.01153
2509.28964,0.01205
2507.22947,0.01238
2505.16929,0.01265
2503.10912,0.01265
2501.04895,0.01254
2498.98878,0.01276
2496.92861,0.01281
2494.86843,0.01225
2492.80826,0.01175
2490.74809,0.01187
2488.68792,0.01239
2486.62775,0.01278
2484.56757,0.01295
2482.50740,0.01297
2480.44723,0.01286
2478.38706,0.01294
2476.32688,0.01328
2474.26671,0.01334
2472.20654,0.01288
2470.14637,0.01249
2468.08620,0.01270
2466.02602,0.01310
2463.96585,0.01322
2461.90568,0.01329
2459.84551,0.01344
2457.78534,0.01343
2455.72516,0.01313
2453.66499,0.01292
2451.60482,0.01297
2449.54465,0.01296
2447.48447,0.01296
2445.42430,0.01318
2443.36413,0.01333
2441.30396,0.01327
2439.24379,0.01322
2437.18361,0.01316
2435.12344,0.01298
2433.06327,0.01280
2431.00310,0.01284
2428.94293,0.01288
2426.88275,0.01280
2424.82258,0.01302
2422.76241,0.01351
2420.70224,0.01352
2418.64207,0.01305
2416.58189,0.01294
2414.52172,0.01325
2412.46155,0.01351
2410.40138,0.01349
2408.34120,0.01306
2406.28103,0.01262
2404.22086,0.01257
2402.16069,0.01267
2400.10052,0.01283
2398.04034,0.01155
2395.98017,0.01168
2393.92000,0.01230
2391.85983,0.01273
2389.79966,0.01342
2387.73948,0.01484
2385.67931,0.01651
2383.61914,0.01747
2381.55897,0.01766
2379.49880,0.01788
2377.43862,0.01867
2375.37845,0.01944
2373.31828,0.01976
2371.25811,0.02000
2369.19793,0.02036
2367.13776,0.02111
2365.07759,0.02142
2363.01742,0.01880
2360.95725,0.01640
2358.89707,0.01586
2356.83690,0.01815
2354.77673,0.02146
2352.71656,0.02381
2350.65639,0.02714
2348.59621,0.02795
2346.53604,0.02263
2344.47587,0.01919
2342.41570,0.01925
2340.35552,0.02080
2338.29535,0.02177
2336.23518,0.02109
2334.17501,0.02074
2332.11484,0.02183
2330.05466,0.02396
2327.99449,0.02494
2325.93432,0.02448
2323.87415,0.02187
2321.81398,0.01941
2319.75380,0.01877
2317.69363,0.01995
2315.63346,0.02019
2313.57329,0.01903
2311.51312,0.01801
2309.45294,0.01785
2307.39277,0.01802
2305.33260,0.01813
2303.27243,0.01807
2301.21225,0.01757
2299.15208,0.01694
2297.09191,0.01611
2295.03174,0.01536
2292.97157,0.01514
2290.91139,0.01525
2288.85122,0.01520
2286.79105,0.01472
2284.73088,0.01383
2282.67071,0.01274
2280.61053,0.01159
2278.55036,0.01063
2276.49019,0.01015
2274.43002,0.01022
2272.36984,0.01060
2270.30967,0.01101
2268.24950,0.01129
2266.18933,0.01148
2264.12916,0.01157
2262.06898,0.01155
2260.00881,0.01126
2257.94864,0.01106
2255.88847,0.01144
2253.82830,0.01189
2251.76812,0.01136
2249.70795,0.00995
2247.64778,0.00967
2245.58761,0.00977
2243.52744,0.00943
2241.46726,0.00937
2239.40709,0.00985
2237.34692,0.00981
2235.28675,0.00929
2233.22657,0.00906
2231.16640,0.00906
2229.10623,0.00862
2227.04606,0.00795
2224.98589,0.00784
2222.92571,0.00806
2220.86554,0.00834
2218.80537,0.00917
2216.74520,0.01024
2214.68503,0.01031
2212.62485,0.00905
2210.56468,0.00744
2208.50451,0.00687
2206.44434,0.00720
2204.38417,0.00766
2202.32399,0.00775
2200.26382,0.00723
2198.20365,0.00743
2196.14348,0.00873
2194.08330,0.00925
2192.02313,0.00826
2189.96296,0.00727
2187.90279,0.00682
2185.84262,0.00680
2183.78244,0.00795
2181.72227,0.00881
2179.66210,0.00828
2177.60193,0.00777
2175.54176,0.00737
2173.48158,0.00682
2171.42141,0.00695
2169.36124,0.00753
2167.30107,0.00812
2165.24089,0.00899
2163.18072,0.00832
2161.12055,0.00506
2159.06038,0.00223
2157.00021,0.00128
2154.94003,0.00123
2152.87986,0.00197
2150.81969,0.00333
2148.75952,0.00427
2146.69935,0.00405
2144.63917,0.00385
2142.57900,0.00450
2140.51883,0.00522
2138.45866,0.00536
2136.39849,0.00468
2134.33831,0.00423
2132.27814,0.00468
2130.21797,0.00512
2128.15780,0.00564
2126.09762,0.00632
2124.03745,0.00674
2121.97728,0.00696
2119.91711,0.00694
2117.85694,0.00682
2115.79676,0.00657
2113.73659,0.00622
2111.67642,0.00620
2109.61625,0.00672
2107.55608,0.00713
2105.49590,0.00676
2103.43573,0.00642
2101.37556,0.00685
2099.31539,0.00695
2097.25521,0.00636
2095.19504,0.00597
2093.13487,0.00640
2091.07470,0.00669
2089.01453,0.00661
2086.95435,0.00658
2084.89418,0.00657
2082.83401,0.00636
2080.77384,0.00571
2078.71367,0.00493
2076.65349,0.00476
2074.59332,0.00479
2072.53315,0.00441
2070.47298,0.00413
2068.41281,0.00449
2066.35263,0.00532
2064.29246,0.00598
2062.23229,0.00609
2060.17212,0.00587
2058.11194,0.00534
2056.05177,0.00455
2053.99160,0.00423
2051.93143,0.00409
2049.87126,0.00340
2047.81108,0.00332
2045.75091,0.00411
2043.69074,0.00388
2041.63057,0.00259
2039.57040,0.00197
2037.51022,0.00165
2035.45005,0.00073
2033.38988,0.00069
2031.32971,0.00171
2029.26954,0.00265
2027.20936,0.00365
2025.14919,0.00414
2023.08902,0.00371
2021.02885,0.00300
2018.96867,0.00220
2016.90850,0.00192
2014.84833,0.00172
2012.78816,0.00047
2010.72799,0.00000
2008.66781,0.00064
2006.60764,0.00075
2004.54747,0.00114
2002.48730,0.00228
2000.42713,0.00348
1998.36695,0.00478
1996.30678,0.00593
1994.24661,0.00589
1992.18644,0.00502
1990.12626,0.00493
1988.06609,0.00552
1986.00592,0.00560
1983.94575,0.00469
1981.88558,0.00284
1979.82540,0.00106
1977.76523,0.00113
1975.70506,0.00210
1973.64489,0.00141
1971.58472,0.00000
1969.52454,0.00009
1967.46437,0.00073
1965.40420,0.00072
1963.34403,0.00109
1961.28386,0.00178
1959.22368,0.00186
1957.16351,0.00150
1955.10334,0.00141
1953.04317,0.00163
1950.98299,0.00193
1948.92282,0.00251
1946.86265,0.00287
1944.80248,0.00255
1942.74231,0.00244
1940.68213,0.00300
1938.62196,0.00335
1936.56179,0.00278
1934.50162,0.00143
1932.44145,0.00036
1930.38127,0.00039
1928.32110,0.00117
1926.26093,0.00183
1924.20076,0.00221
1922.14059,0.00249
1920.08041,0.00248
1918.02024,0.00275
1915.96007,0.00345
1913.89990,0.00347
1911.83972,0.00277
1909.77955,0.00228
1907.71938,0.00218
1905.65921,0.00211
1903.59904,0.00212
1901.53886,0.00233
1899.47869,0.00272
1897.41852,0.00321
1895.35835,0.00339
1893.29818,0.00306
1891.23800,0.00284
1889.17783,0.00322
1887.11766,0.00368
1885.05749,0.00368
1882.99731,0.00341
1880.93714,0.00320
1878.87697,0.00303
1876.81680,0.00277
1874.75663,0.00243
1872.69645,0.00208
1870.63628,0.00195
1868.57611,0.00229
1866.51594,0.00285
1864.45577,0.00318
1862.39559,0.00321
1860.33542,0.00305
1858.27525,0.00303
1856.21508,0.00320
1854.15491,0.00307
1852.09473,0.00261
1850.03456,0.00228
1847.97439,0.00225
1845.91422,0.00244
1843.85404,0.00274
1841.79387,0.00311
1839.73370,0.00344
1837.67353,0.00368
1835.61336,0.00380
1833.55318,0.00374
1831.49301,0.00355
1829.43284,0.00340
1827.37267,0.00322
1825.31250,0.00297
1823.25232,0.00282
1821.19215,0.00286
1819.13198,0.00305
1817.07181,0.00319
1815.01163,0.00322
1812.95146,0.00326
1810.89129,0.00329
1808.83112,0.00344
1806.77095,0.00379
1804.71077,0.00422
1802.65060,0.00461
1800.59043,0.00480
1798.53026,0.00477
1796.47009,0.00465
1794.40991,0.00454
1792.34974,0.00466
1790.28957,0.00495
1788.22940,0.00511
1786.16923,0.00520
1784.10905,0.00525
1782.04888,0.00525
1779.98871,0.00521
1777.92854,0.00498
1775.86836,0.00452
1773.80819,0.00419
1771.74802,0.00458
1769.68785,0.00554
1767.62768,0.00606
1765.56750,0.00591
1763.50733,0.00587
1761.44716,0.00634
1759.38699,0.00695
1757.32682,0.00747
1755.26664,0.00796
1753.20647,0.00839
1751.14630,0.00878
1749.08613,0.00931
1747.02596,0.00996
1744.96578,0.01034
1742.90561,0.01020
1740.84544,0.00998
1738.78527,0.00999
1736.72509,0.01009
1734.66492,0.01044
1732.60475,0.01106
1730.54458,0.01118
1728.48441,0.01098
1726.42423,0.01101
1724.36406,0.01134
1722.30389,0.01166
1720.24372,0.01170
1718.18355,0.01174
1716.12337,0.01226
1714.06320,0.01287
1712.00303,0.01334
1709.94286,0.01355
1707.88268,0.01368
1705.82251,0.01433
1703.76234,0.01539
1701.70217,0.01618
1699.64200,0.01701
1697.58182,0.01823
1695.52165,0.01963
1693.46148,0.02099
1691.40131,0.02213
1689.34114,0.02287
1687.28096,0.02304
1685.22079,0.02349
1683.16062,0.02552
1681.10045,0.02778
1679.04028,0.02902
1676.98010,0.02990
1674.91993,0.03112
1672.85976,0.03232
1670.79959,0.03343
1668.73941,0.03505
1666.67924,0.03655
1664.61907,0.03740
1662.55890,0.03837
1660.49873,0.03976
1658.43855,0.04065
1656.37838,0.04061
1654.31821,0.04034
1652.25804,0.04096
1650.19787,0.04154
1648.13769,0.04157
1646.07752,0.04156
1644.01735,0.04159
1641.95718,0.04124
1639.89701,0.04044
1637.83683,0.03929
1635.77666,0.03829
1633.71649,0.03785
1631.65632,0.03742
1629.59614,0.03651
1627.53597,0.03535
1625.47580,0.03433
1623.41563,0.03350
1621.35546,0.03275
1619.29528,0.03169
1617.23511,0.03052
1615.17494,0.03015
1613.11477,0.03028
1611.05460,0.02995
1608.99442,0.02915
1606.93425,0.02838
1604.87408,0.02776
1602.81391,0.02718
1600.75373,0.02669
1598.69356,0.02627
1596.63339,0.02575
1594.57322,0.02522
1592.51305,0.02479
1590.45287,0.02438
1588.39270,0.02386
1586.33253,0.02339
1584.27236,0.02311
1582.21219,0.02285
1580.15201,0.02237
1578.09184,0.02180
1576.03167,0.02151
1573.97150,0.02140
1571.91133,0.02093
1569.85115,0.02036
1567.79098,0.02041
1565.73081,0.02076
1563.67064,0.02071
1561.61046,0.01992
1559.55029,0.01912
1557.49012,0.01980
1555.42995,0.02092
1553.36978,0.02138
1551.30960,0.02122
1549.24943,0.02070
1547.18926,0.02012
1545.12909,0.01955
1543.06892,0.01873
1541.00874,0.01762
1538.94857,0.01719
1536.88840,0.01756
1534.82823,0.01762
1532.76805,0.01709
1530.70788,0.01657
1528.64771,0.01629
1526.58754,0.01610
1524.52737,0.01575
1522.46719,0.01528
1520.40702,0.01514
1518.34685,0.01508
1516.28668,0.01484
1514.22651,0.01461
1512.16633,0.01447
1510.10616,0.01416
1508.04599,0.01329
1505.98582,0.01213
1503.92565,0.01155
1501.86547,0.01142
1499.80530,0.01099
1497.74513,0.01023
1495.68496,0.00963
1493.62478,0.00918
1491.56461,0.00872
1489.50444,0.00844
1487.44427,0.00838
1485.38410,0.00836
1483.32392,0.00841
1481.26375,0.00855
1479.20358,0.00864
1477.14341,0.00858
1475.08324,0.00857
1473.02306,0.00882
1470.96289,0.00928
1468.90272,0.00959
1466.84255,0.00965
1464.78238,0.00978
1462.72220,0.01016
1460.66203,0.01044
1458.60186,0.01047
1456.54169,0.01034
1454.48151,0.01007
1452.42134,0.00991
1450.36117,0.00985
1448.30100,0.00990
1446.24083,0.01008
1444.18065,0.01020
1442.12048,0.01020
1440.06031,0.01009
1438.00014,0.00996
1435.93997,0.00989
1433.87979,0.00985
1431.81962,0.00991
1429.75945,0.01021
1427.69928,0.01063
1425.63910,0.01100
1423.57893,0.01146
1421.51876,0.01208
1419.45859,0.01280
1417.39842,0.01318
1415.33824,0.01291
1413.27807,0.01265
1411.21790,0.01279
1409.15773,0.01284
1407.09756,0.01252
1405.03738,0.01220
1402.97721,0.01207
1400.91704,0.01200
1398.85687,0.01197
1396.79670,0.01181
1394.73652,0.01128
1392.67635,0.01063
1390.61618,0.01035
1388.55601,0.01030
1386.49583,0.01004
1384.43566,0.00963
1382.37549,0.00936
1380.31532,0.00922
1378.25515,0.00907
1376.19497,0.00885
1374.13480,0.00866
1372.07463,0.00853
1370.01446,0.00837
1367.95429,0.00825
1365.89411,0.00825
1363.83394,0.00827
1361.77377,0.00805
1359.71360,0.00757
1357.65343,0.00711
1355.59325,0.00679
1353.53308,0.00653
1351.47291,0.00622
1349.41274,0.00590
1347.35256,0.00568
1345.29239,0.00554
1343.23222,0.00548
1341.17205,0.00570
1339.11188,0.00608
1337.05170,0.00607
1334.99153,0.00574
1332.93136,0.00554
1330.87119,0.00556
1328.81102,0.00560
1326.75084,0.00556
1324.69067,0.00560
1322.63050,0.00579
1320.57033,0.00593
1318.51015,0.00597
1316.44998,0.00601
1314.38981,0.00604
1312.32964,0.00604
1310.26947,0.00609
1308.20929,0.00620
1306.14912,0.00626
1304.08895,0.00626
1302.02878,0.00629
1299.96861,0.00649
1297.90843,0.00680
1295.84826,0.00692
1293.78809,0.00686
1291.72792,0.00701
1289.66775,0.00726
1287.60757,0.00729
1285.54740,0.00719
1283.48723,0.00716
1281.42706,0.00730
1279.36688,0.00747
1277.30671,0.00753
1275.24654,0.00754
1273.18637,0.00761
1271.12620,0.00772
1269.06602,0.00781
1267.00585,0.00781
1264.94568,0.00773
1262.88551,0.00776
1260.82534,0.00799
1258.76516,0.00817
1256.70499,0.00818
1254.64482,0.00823
1252.58465,0.00836
1250.52447,0.00838
1248.46430,0.00837
1246.40413,0.00849
1244.34396,0.00852
1242.28379,0.00827
1240.22361,0.00791
1238.16344,0.00769
1236.10327,0.00757
1234.04310,0.00731
1231.98293,0.00686
1229.92275,0.00646
1227.86258,0.00609
1225.80241,0.00565
1223.74224,0.00524
1221.68207,0.00495
1219.62189,0.00459
1217.56172,0.00403
1215.50155,0.00349
1213.44138,0.00309
1211.38120,0.00268
1209.32103,0.00225
1207.26086,0.00188
1205.20069,0.00149
1203.14052,0.00103
1201.08034,0.00068
1199.02017,0.00062
1196.96000,0.00059
1194.89983,0.00029
1192.83966,0.00000
1190.77948,0.00007
1188.71931,0.00027
1186.65914,0.00035
1184.59897,0.00046
1182.53880,0.00073
1180.47862,0.00114
1178.41845,0.00161
1176.35828,0.00208
1174.29811,0.00243
1172.23793,0.00273
1170.17776,0.00321
1168.11759,0.00385
1166.05742,0.00451
1163.99725,0.00523
1161.93707,0.00601
1159.87690,0.00672
1157.81673,0.00754
1155.75656,0.00860
1153.69639,0.00976
1151.63621,0.01098
1149.57604,0.01230
1147.51587,0.01344
1145.45570,0.01424
1143.39552,0.01514
1141.33535,0.01660
1139.27518,0.01857
1137.21501,0.02057
1135.15484,0.02241
1133.09466,0.02450
1131.03449,0.02692
1128.97432,0.02927
1126.91415,0.03149
1124.85398,0.03381
1122.79380,0.03627
1120.73363,0.03885
1118.67346,0.04162
1116.61329,0.04441
1114.55312,0.04697
1112.49294,0.04952
1110.43277,0.05237
1108.37260,0.05511
1106.31243,0.05744
1104.25225,0.05985
1102.19208,0.06251
1100.13191,0.06513
1098.07174,0.06746
1096.01157,0.06960
1093.95139,0.07169
1091.89122,0.07362
1089.83105,0.07538
1087.77088,0.07711
1085.71071,0.07887
1083.65053,0.08050
1081.59036,0.08196
1079.53019,0.08368
1077.47002,0.08566
1075.40985,0.08723
1073.34967,0.08798
1071.28950,0.08848
1069.22933,0.08929
1067.16916,0.09009
1065.10898,0.09017
1063.04881,0.08961
1060.98864,0.08895
1058.92847,0.08817
1056.86830,0.08696
1054.80812,0.08516
1052.74795,0.08298
1050.68778,0.08072
1048.62761,0.07834
1046.56744,0.07564
1044.50726,0.07249
1042.44709,0.06899
1040.38692,0.06551
1038.32675,0.06219
1036.26657,0.05884
1034.20640,0.05540
1032.14623,0.05193
1030.08606,0.04865
1028.02589,0.04590
1025.96571,0.04358
1023.90554,0.04136
1021.84537,0.03930
1019.78520,0.03747
1017.72503,0.03612
1015.66485,0.03529
1013.60468,0.03464
1011.54451,0.03399
1009.48434,0.03365
1007.42417,0.03413
1005.36399,0.03530
1003.30382,0.03670
1001.24365,0.03825
999.18348,0.03982
997.12330,0.04132
995.06313,0.04316
993.00296,0.04546
990.94279,0.04760
988.88262,0.04914
986.82244,0.05034
984.76227,0.05139
982.70210,0.05230
980.64193,0.05292
978.58176,0.05267
976.52158,0.05159
974.46141,0.05023
972.40124,0.04876
970.34107,0.04700
968.28089,0.04465
966.22072,0.04196
964.16055,0.03944
962.10038,0.03701
960.04021,0.03473
957.98003,0.03271
955.91986,0.03040
953.85969,0.02756
951.79952,0.02487
949.73935,0.02281
947.67917,0.02119
945.61900,0.01935
943.55883,0.01722
941.49866,0.01521
939.43849,0.01336
937.37831,0.01177
935.31814,0.01053
933.25797,0.00943
931.19780,0.00831
929.13762,0.00722
927.07745,0.00635
925.01728,0.00587
922.95711,0.00558
920.89694,0.00507
918.83676,0.00429
916.77659,0.00348
914.71642,0.00304
912.65625,0.00296
910.59608,0.00287
908.53590,0.00282
906.47573,0.00276
904.41556,0.00265
902.35539,0.00270
900.29522,0.00297
898.23504,0.00340
896.17487,0.00369
894.11470,0.00387
892.05453,0.00439
889.99435,0.00525
887.93418,0.00634
885.87401,0.00751
883.81384,0.00859
881.75367,0.00976
879.69349,0.01080
877.63332,0.01135
875.57315,0.01192
873.51298,0.01289
871.45281,0.01401
869.39263,0.01514
867.33246,0.01587
865.27229,0.01590
863.21212,0.01599
861.15194,0.01674
859.09177,0.01745
857.03160,0.01758
854.97143,0.01751
852.91126,0.01746
850.85108,0.01698
848.79091,0.01605
846.73074,0.01547
844.67057,0.01532
842.61040,0.01514
840.55022,0.01473
838.49005,0.01393
836.42988,0.01261
834.36971,0.01117
832.30954,0.01042
830.24936,0.01020
828.18919,0.00934
826.12902,0.00799
824.06885,0.00726
822.00867,0.00685
819.94850,0.00613
817.88833,0.00554
815.82816,0.00523
813.76799,0.00485
811.70781,0.00480
809.64764,0.00501
807.58747,0.00463
805.52730,0.00374
803.46713,0.00309
801.40695,0.00266
799.34678,0.00212
797.28661,0.00159
795.22644,0.00115
793.16627,0.00094
791.10609,0.00093
789.04592,0.00098
786.98575,0.00120
784.92558,0.00125
782.86540,0.00105
780.80523,0.00130
778.74506,0.00188
776.68489,0.00181
774.62472,0.00107
772.56454,0.00063
770.50437,0.00068
768.44420,0.00100
766.38403,0.00114
764.32386,0.00091
762.26368,0.00074
760.20351,0.00036
758.14334,-0.00042
756.08317,-0.00083
754.02299,-0.00050
751.96282,0.00018
749.90265,0.00047
747.84248,0.00028
745.78231,0.00026
743.72213,0.00057
741.66196,0.00069
739.60179,0.00046
737.54162,0.00041
735.48145,0.00066
733.42127,0.00070
731.36110,-0.00003
729.30093,-0.00094
727.24076,-0.00059
725.18059,0.00053
723.12041,0.00234
721.06024,0.00192
719.00007,0.00190
716.93990,0.00174
714.87972,0.00097
712.81955,0.00044
710.75938,0.00044
708.69921,0.00126
706.63904,0.00249
704.57886,0.00346
702.51869,0.00412
700.45852,0.00480
698.39835,0.00566
696.33818,0.00637
694.27800,0.00650
692.21783,0.00603
690.15766,0.00496
688.09749,0.00379
686.03731,0.00343
683.97714,0.00419
681.91697,0.00545
679.85680,0.00611
677.79663,0.00601
675.73645,0.00593
673.67628,0.00642
671.61611,0.00599
669.55594,0.00152
667.49577,0.00000
665.43559,0.00631
663.37542,0.00732
661.31525,0.00656
659.25508,0.00539
657.19491,0.00417
655.13473,0.00413
653.07456,0.00556
651.01439,0.00658
648.95422,0.00639
646.89404,0.00670
644.83387,0.00711
642.77370,0.00673
640.71353,0.00554
638.65336,0.00411
636.59318,0.00318
634.53301,0.00339
632.47284,0.00368
630.41267,0.00230
628.35250,0.00041
626.29232,0.00000
624.23215,-0.00022
622.17198,-0.00050
620.11181,0.00094
618.05164,0.00292
615.99146,0.00276
613.93129,0.00049
611.87112,-0.00189
609.81095,-0.00284
607.75077,-0.00226
605.69060,-0.00155
603.63043,-0.00141
601.57026,-0.00102
599.51009,0.00000
