3996.73391,-0.00036
3994.67373,-0.00011
3992.61356,0.00005
3990.55339,0.00014
3988.49322,0.00011
3986.43305,-0.00004
3984.37287,-0.00021
3982.31270,-0.00032
3980.25253,-0.00023
3978.19236,0.00001
3976.13219,0.00022
3974.07201,0.00029
3972.01184,0.00015
3969.95167,-0.00010
3967.89150,-0.00015
3965.83133,0.00009
3963.77115,0.00030
3961.71098,0.00025
3959.65081,0.00006
3957.59064,0.00000
3955.53046,0.00011
3953.47029,0.00024
3951.41012,0.00029
3949.34995,0.00038
3947.28978,0.00061
3945.22960,0.00086
3943.16943,0.00093
3941.10926,0.00085
3939.04909,0.00078
3936.98892,0.00068
3934.92874,0.00056
3932.86857,0.00052
3930.80840,0.00057
3928.74823,0.00064
3926.68805,0.00065
3924.62788,0.00065
3922.56771,0.00065
3920.50754,0.00053
3918.44737,0.00035
3916.38719,0.00037
3914.32702,0.00060
3912.26685,0.00085
3910.20668,0.00098
3908.14651,0.00093
3906.08633,0.00071
3904.02616,0.00047
3901.96599,0.00045
3899.90582,0.00062
3897.84565,0.00077
3895.78547,0.00093
3893.72530,0.00121
3891.66513,0.00149
3889.60496,0.00141
3887.54478,0.00104
3885.48461,0.00087
3883.42444,0.00101
3881.36427,0.00118
3879.30410,0.00124
3877.24392,0.00119
3875.18375,0.00104
3873.12358,0.00095
3871.06341,0.00112
3869.00324,0.00143
3866.94306,0.00154
3864.88289,0.00136
3862.82272,0.00113
3860.76255,0.00108
3858.70237,0.00096
3856.64220,0.00045
3854.58203,0.00000
3852.52186,0.00039
3850.46169,0.00123
3848.40151,0.00164
3846.34134,0.00167
3844.28117,0.00137
3842.22100,0.00073
3840.16083,0.00030
3838.10065,0.00049
3836.04048,0.00087
3833.98031,0.00099
3831.92014,0.00102
3829.85997,0.00107
3827.79979,0.00106
3825.73962,0.00093
3823.67945,0.00069
3821.61928,0.00044
3819.55910,0.00035
3817.49893,0.00050
3815.43876,0.00096
3813.37859,0.00149
3811.31842,0.00169
3809.25824,0.00158
3807.19807,0.00131
3805.13790,0.00108
3803.07773,0.00100
3801.01756,0.00111
3798.95738,0.00124
3796.89721,0.00129
3794.83704,0.00145
3792.77687,0.00168
3790.71670,0.00174
3788.65652,0.00166
3786.59635,0.00173
3784.53618,0.00205
3782.47601,0.00225
3780.41583,0.00213
3778.35566,0.00203
3776.29549,0.00213
3774.23532,0.00219
3772.17515,0.00208
3770.11497,0.00184
3768.05480,0.00158
3765.99463,0.00147
3763.93446,0.00150
3761.87429,0.00144
3759.81411,0.00130
3757.75394,0.00121
3755.69377,0.00109
3753.63360,0.00098
3751.57342,0.00092
3749.51325,0.00075
3747.45308,0.00061
3745.39291,0.00066
3743.33274,0.00083
3741.27256,0.00093
3739.21239,0.00110
3737.15222,0.00155
3735.09205,0.00205
3733.03188,0.00215
3730.97170,0.00204
3728.91153,0.00206
3726.85136,0.00200
3724.79119,0.00184
3722.73102,0.00185
3720.67084,0.00201
3718.61067,0.00211
3716.55050,0.00202
3714.49033,0.00168
3712.43015,0.00149
3710.36998,0.00182
3708.30981,0.00223
3706.24964,0.00217
3704.18947,0.00184
3702.12929,0.00173
3700.06912,0.00197
3698.00895,0.00227
3695.94878,0.00236
3693.88861,0.00220
3691.82843,0.00195
3689.76826,0.00187
3687.70809,0.00193
3685.64792,0.00208
3683.58775,0.00228
3681.52757,0.00235
3679.46740,0.00220
3677.40723,0.00203
3675.34706,0.00197
3673.28688,0.00200
3671.22671,0.00213
3669.16654,0.00237
3667.10637,0.00255
3665.04620,0.00266
3662.98602,0.00278
3660.92585,0.00274
3658.86568,0.00252
3656.80551,0.00249
3654.74534,0.00275
3652.68516,0.00293
3650.62499,0.00298
3648.56482,0.00329
3646.50465,0.00390
3644.44447,0.00416
3642.38430,0.00411
3640.32413,0.00413
3638.26396,0.00428
3636.20379,0.00451
3634.14361,0.00475
3632.08344,0.00490
3630.02327,0.00497
3627.96310,0.00513
3625.90293,0.00545
3623.84275,0.00570
3621.78258,0.00568
3619.72241,0.00546
3617.66224,0.00534
3615.60207,0.00538
3613.54189,0.00555
3611.48172,0.00582
3609.42155,0.00616
3607.36138,0.00654
3605.30120,0.00689
3603.24103,0.00717
3601.18086,0.00745
3599.12069,0.00773
3597.06052,0.00810
3595.00034,0.00865
3592.94017,0.00928
3590.88000,0.00955
3588.81983,0.00933
3586.75966,0.00895
3584.69948,0.00888
3582.63931,0.00920
3580.57914,0.00963
3578.51897,0.00984
3576.45879,0.00979
3574.39862,0.00982
3572.33845,0.01008
3570.27828,0.01044
3568.21811,0.01082
3566.15793,0.01109
3564.09776,0.01118
3562.03759,0.01134
3559.97742,0.01161
3557.91725,0.01172
3555.85707,0.01172
3553.79690,0.01186
3551.73673,0.01210
3549.67656,0.01228
3547.61639,0.01245
3545.55621,0.01265
3543.49604,0.01286
3541.43587,0.01311
3539.37570,0.01348
3537.31552,0.01387
3535.25535,0.01409
3533.19518,0.01413
3531.13501,0.01413
3529.07484,0.01415
3527.01466,0.01438
3524.95449,0.01476
3522.89432,0.01495
3520.83415,0.01493
3518.77398,0.01500
3516.71380,0.01524
3514.65363,0.01541
3512.59346,0.01552
3510.53329,0.01579
3508.47312,0.01619
3506.41294,0.01654
3504.35277,0.01672
3502.29260,0.01669
3500.23243,0.01659
3498.17225,0.01676
3496.11208,0.01719
3494.05191,0.01753
3491.99174,0.01766
3489.93157,0.01778
3487.87139,0.01799
3485.81122,0.01824
3483.75105,0.01840
3481.69088,0.01842
3479.63071,0.01836
3477.57053,0.01832
3475.51036,0.01846
3473.45019,0.01876
3471.39002,0.01913
3469.32984,0.01948
3467.26967,0.01965
3465.20950,0.01959
3463.14933,0.01961
3461.08916,0.01997
3459.02898,0.02037
3456.96881,0.02052
3454.90864,0.02062
3452.84847,0.02074
3450.78830,0.02072
3448.72812,0.02075
3446.66795,0.02092
3444.60778,0.02092
3442.54761,0.02090
3440.48744,0.02108
3438.42726,0.02131
3436.36709,0.02155
3434.30692,0.02178
3432.24675,0.02190
3430.18657,0.02189
3428.12640,0.02179
3426.06623,0.02189
3424.00606,0.02225
3421.94589,0.02254
3419.88571,0.02264
3417.82554,0.02275
3415.76537,0.02290
3413.70520,0.02294
3411.64503,0.02298
3409.58485,0.02314
3407.52468,0.02318
3405.46451,0.02315
3403.40434,0.02319
3401.34416,0.02324
3399.28399,0.02328
3397.22382,0.02347
3395.16365,0.02352
3393.10348,0.02369
3391.04330,0.02407
3388.98313,0.02423
3386.92296,0.02412
3384.86279,0.02411
3382.80262,0.02438
3380.74244,0.02470
3378.68227,0.02484
3376.62210,0.02482
3374.56193,0.02477
3372.50176,0.02466
3370.44158,0.02449
3368.38141,0.02447
3366.32124,0.02469
3364.26107,0.02488
3362.20089,0.02494
3360.14072,0.02508
3358.08055,0.02522
3356.02038,0.02520
3353.96021,0.02522
3351.90003,0.02534
3349.83986,0.02542
3347.77969,0.02548
3345.71952,0.02570
3343.65935,0.02587
3341.59917,0.02585
3339.53900,0.02585
3337.47883,0.02590
3335.41866,0.02598
3333.35849,0.02605
3331.29831,0.02589
3329.23814,0.02563
3327.17797,0.02568
3325.11780,0.02592
3323.05762,0.02602
3320.99745,0.02602
3318.93728,0.02600
3316.87711,0.02577
3314.81694,0.02542
3312.75676,0.02533
3310.69659,0.02552
3308.63642,0.02570
3306.57625,0.02580
3304.51608,0.02594
3302.45590,0.02611
3300.39573,0.02624
3298.33556,0.02642
3296.27539,0.02654
3294.21521,0.02640
3292.15504,0.02619
3290.09487,0.02615
3288.03470,0.02637
3285.97453,0.02663
3283.91435,0.02662
3281.85418,0.02647
3279.79401,0.02644
3277.73384,0.02647
3275.67367,0.02651
3273.61349,0.02661
3271.55332,0.02665
3269.49315,0.02663
3267.43298,0.02656
3265.37281,0.02637
3263.31263,0.02622
3261.25246,0.02623
3259.19229,0.02630
3257.13212,0.02641
3255.07194,0.02661
3253.01177,0.02673
3250.95160,0.02675
3248.89143,0.02679
3246.83126,0.02675
3244.77108,0.02667
3242.71091,0.02669
3240.65074,0.02673
3238.59057,0.02668
3236.53040,0.02663
3234.47022,0.02662
3232.41005,0.02659
3230.34988,0.02655
3228.28971,0.02649
3226.22954,0.02633
3224.16936,0.02621
3222.10919,0.02628
3220.04902,0.02645
3217.98885,0.02645
3215.92867,0.02632
3213.86850,0.02626
3211.80833,0.02627
3209.74816,0.02630
3207.68799,0.02629
3205.62781,0.02622
3203.56764,0.02609
3201.50747,0.02591
3199.44730,0.02576
3197.38713,0.02578
3195.32695,0.02596
3193.26678,0.02612
3191.20661,0.02613
3189.14644,0.02602
3187.08626,0.02593
3185.02609,0.02591
3182.96592,0.02591
3180.90575,0.02589
3178.84558,0.02581
3176.78540,0.02570
3174.72523,0.02567
3172.66506,0.02567
3170.60489,0.02557
3168.54472,0.02556
3166.48454,0.02571
3164.42437,0.02575
3162.36420,0.02557
3160.30403,0.02535
3158.24386,0.02514
3156.18368,0.02508
3154.12351,0.02517
3152.06334,0.02512
3150.00317,0.02501
3147.94299,0.02502
3145.88282,0.02504
3143.82265,0.02500
3141.76248,0.02495
3139.70231,0.02494
3137.64213,0.02495
3135.58196,0.02487
3133.52179,0.02468
3131.46162,0.02454
3129.40145,0.02449
3127.34127,0.02446
3125.28110,0.02449
3123.22093,0.02445
3121.16076,0.02425
3119.10058,0.02406
3117.04041,0.02390
3114.98024,0.02376
3112.92007,0.02376
3110.85990,0.02388
3108.79972,0.02392
3106.73955,0.02389
3104.67938,0.02384
3102.61921,0.02365
3100.55904,0.02340
3098.49886,0.02318
3096.43869,0.02307
3094.37852,0.02318
3092.31835,0.02331
3090.25818,0.02312
3088.19800,0.02270
3086.13783,0.02245
3084.07766,0.02251
3082.01749,0.02263
3079.95731,0.02262
3077.89714,0.02258
3075.83697,0.02262
3073.77680,0.02259
3071.71663,0.02236
3069.65645,0.02212
3067.59628,0.02204
3065.53611,0.02206
3063.47594,0.02199
3061.41577,0.02183
3059.35559,0.02179
3057.29542,0.02182
3055.23525,0.02182
3053.17508,0.02183
3051.11491,0.02178
3049.05473,0.02162
3046.99456,0.02147
3044.93439,0.02137
3042.87422,0.02131
3040.81404,0.02129
3038.75387,0.02114
3036.69370,0.02082
3034.63353,0.02063
3032.57336,0.02071
3030.51318,0.02084
3028.45301,0.02076
3026.39284,0.02053
3024.33267,0.02037
3022.27250,0.02029
3020.21232,0.02020
3018.15215,0.01999
3016.09198,0.01977
3014.03181,0.01968
3011.97163,0.01974
3009.91146,0.01981
3007.85129,0.01967
3005.79112,0.01944
3003.73095,0.01938
3001.67077,0.01935
2999.61060,0.01925
2997.55043,0.01910
2995.49026,0.01891
2993.43009,0.01887
2991.36991,0.01904
2989.30974,0.01914
2987.24957,0.01915
2985.18940,0.01909
2983.12923,0.01905
2981.06905,0.01913
2979.00888,0.01916
2976.94871,0.01902
2974.88854,0.01890
2972.82836,0.01883
2970.76819,0.01872
2968.70802,0.01870
2966.64785,0.01884
2964.58768,0.01893
2962.52750,0.01880
2960.46733,0.01867
2958.40716,0.01870
2956.34699,0.01871
2954.28682,0.01876
2952.22664,0.01888
2950.16647,0.01886
2948.10630,0.01869
2946.04613,0.01856
2943.98596,0.01860
2941.92578,0.01867
2939.86561,0.01864
2937.80544,0.01856
2935.74527,0.01839
2933.68509,0.01825
2931.62492,0.01827
2929.56475,0.01828
2927.50458,0.01819
2925.44441,0.01813
2923.38423,0.01815
2921.32406,0.01824
2919.26389,0.01821
2917.20372,0.01794
2915.14355,0.01767
2913.08337,0.01756
2911.02320,0.01747
2908.96303,0.01739
2906.90286,0.01742
2904.84268,0.01748
2902.78251,0.01744
2900.72234,0.01735
2898.66217,0.01720
2896.60200,0.01691
2894.54182,0.01661
2892.48165,0.01643
2890.42148,0.01646
2888.36131,0.01667
2886.30114,0.01678
2884.24096,0.01678
2882.18079,0.01676
2880.12062,0.01661
2878.06045,0.01641
2876.00028,0.01640
2873.94010,0.01647
2871.87993,0.01641
2869.81976,0.01620
2867.75959,0.01591
2865.69941,0.01563
2863.63924,0.01556
2861.57907,0.01573
2859.51890,0.01580
2857.45873,0.01562
2855.39855,0.01538
2853.33838,0.01516
2851.27821,0.01499
2849.21804,0.01497
2847.15787,0.01506
2845.09769,0.01505
2843.03752,0.01487
2840.97735,0.01471
2838.91718,0.01468
2836.85700,0.01468
2834.79683,0.01457
2832.73666,0.01433
2830.67649,0.01410
2828.61632,0.01398
2826.55614,0.01392
2824.49597,0.01395
2822.43580,0.01395
2820.37563,0.01380
2818.31546,0.01363
2816.25528,0.01357
2814.19511,0.01364
2812.13494,0.01368
2810.07477,0.01362
2808.01460,0.01348
2805.95442,0.01331
2803.89425,0.01312
2801.83408,0.01293
2799.77391,0.01281
2797.71373,0.01280
2795.65356,0.01286
2793.59339,0.01291
2791.53322,0.01283
2789.47305,0.01266
2787.41287,0.01252
2785.35270,0.01244
2783.29253,0.01238
2781.23236,0.01230
2779.17219,0.01231
2777.11201,0.01232
2775.05184,0.01217
2772.99167,0.01194
2770.93150,0.01185
2768.87133,0.01188
2766.81115,0.01191
2764.75098,0.01181
2762.69081,0.01155
2760.63064,0.01141
2758.57046,0.01152
2756.51029,0.01168
2754.45012,0.01162
2752.38995,0.01138
2750.32978,0.01124
2748.26960,0.01126
2746.20943,0.01125
2744.14926,0.01117
2742.08909,0.01101
2740.02892,0.01084
2737.96874,0.01081
2735.90857,0.01086
2733.84840,0.01082
2731.78823,0.01067
2729.72805,0.01047
2727.66788,0.01023
2725.60771,0.01007
2723.54754,0.01005
2721.48737,0.01004
2719.42719,0.01002
2717.36702,0.01009
2715.30685,0.01013
2713.24668,0.01001
2711.18651,0.00991
2709.12633,0.00995
2707.06616,0.01004
2705.00599,0.01009
2702.94582,0.01001
2700.88565,0.00985
2698.82547,0.00974
2696.76530,0.00966
2694.70513,0.00964
2692.64496,0.00967
2690.58478,0.00960
2688.52461,0.00947
2686.46444,0.00936
2684.40427,0.00933
2682.34410,0.00939
2680.28392,0.00945
2678.22375,0.00942
2676.16358,0.00937
2674.10341,0.00933
2672.04324,0.00919
2669.98306,0.00905
2667.92289,0.00911
2665.86272,0.00924
2663.80255,0.00914
2661.74238,0.00896
2659.68220,0.00888
2657.62203,0.00890
2655.56186,0.00908
2653.50169,0.00926
2651.44151,0.00919
2649.38134,0.00898
2647.32117,0.00882
2645.26100,0.00871
2643.20083,0.00863
2641.14065,0.00851
2639.08048,0.00844
2637.02031,0.00849
2634.96014,0.00847
2632.89997,0.00834
2630.83979,0.00831
2628.77962,0.00830
2626.71945,0.00826
2624.65928,0.00821
2622.59910,0.00814
2620.53893,0.00799
2618.47876,0.00781
2616.41859,0.00777
2614.35842,0.00791
2612.29824,0.00805
2610.23807,0.00808
2608.17790,0.00802
2606.11773,0.00796
2604.05756,0.00784
2601.99738,0.00765
2599.93721,0.00761
2597.87704,0.00773
2595.81687,0.00790
2593.75670,0.00791
2591.69652,0.00768
2589.63635,0.00745
2587.57618,0.00733
2585.51601,0.00716
2583.45583,0.00707
2581.39566,0.00727
2579.33549,0.00757
2577.27532,0.00769
2575.21515,0.00766
2573.15497,0.00750
2571.09480,0.00724
2569.03463,0.00714
2566.97446,0.00713
2564.91429,0.00708
2562.85411,0.00710
2560.79394,0.00713
2558.73377,0.00717
2556.67360,0.00734
2554.61342,0.00752
2552.55325,0.00770
2550.49308,0.00778
2548.43291,0.00749
2546.37274,0.00718
2544.31256,0.00712
2542.25239,0.00710
2540.19222,0.00718
2538.13205,0.00740
2536.07188,0.00752
2534.01170,0.00733
2531.95153,0.00705
2529.89136,0.00692
2527.83119,0.00692
2525.77102,0.00712
2523.71084,0.00733
2521.65067,0.00730
2519.59050,0.00715
2517.53033,0.00710
2515.47015,0.00739
2513.40998,0.00778
2511.34981,0.00766
2509.28964,0.00732
2507.22947,0.00727
2505.16929,0.00722
2503.10912,0.00705
2501.04895,0.00706
2498.98878,0.00717
2496.92861,0.00727
2494.86843,0.00733
2492.80826,0.00720
2490.74809,0.00715
2488.68792,0.00734
2486.62775,0.00764
2484.56757,0.00787
2482.50740,0.00778
2480.44723,0.00765
2478.38706,0.00770
2476.32688,0.00785
2474.26671,0.00789
2472.20654,0.00770
2470.14637,0.00766
2468.08620,0.00800
2466.02602,0.00827
2463.96585,0.00819
2461.90568,0.00805
2459.84551,0.00804
2457.78534,0.00813
2455.72516,0.00825
2453.66499,0.00827
2451.60482,0.00815
2449.54465,0.00792
2447.48447,0.00766
2445.42430,0.00755
2443.36413,0.00769
2441.30396,0.00791
2439.24379,0.00789
2437.18361,0.00767
2435.12344,0.00754
2433.06327,0.00750
2431.00310,0.00751
2428.94293,0.00754
2426.88275,0.00756
2424.82258,0.00762
2422.76241,0.00763
2420.70224,0.00759
2418.64207,0.00767
2416.58189,0.00782
2414.52172,0.00789
2412.46155,0.00784
2410.40138,0.00779
2408.34120,0.00784
2406.28103,0.00792
2404.22086,0.00786
2402.16069,0.00775
2400.10052,0.00778
2398.04034,0.00718
2395.98017,0.00719
2393.92000,0.00754
2391.85983,0.00798
2389.79966,0.00844
2387.73948,0.00882
2385.67931,0.00906
2383.61914,0.00918
2381.55897,0.00914
2379.49880,0.00899
2377.43862,0.00885
2375.37845,0.00885
2373.31828,0.00889
2371.25811,0.00901
2369.19793,0.00950
2367.13776,0.01024
2365.07759,0.01102
2363.01742,0.01197
2360.95725,0.01221
2358.89707,0.01273
2356.83690,0.01363
2354.77673,0.01399
2352.71656,0.01332
2350.65639,0.01223
2348.59621,0.01186
2346.53604,0.01272
2344.47587,0.01226
2342.41570,0.01205
2340.35552,0.01259
2338.29535,0.01273
2336.23518,0.01245
2334.17501,0.01220
2332.11484,0.01202
2330.05466,0.01191
2327.99449,0.01223
2325.93432,0.01233
2323.87415,0.01207
2321.81398,0.01129
2319.75380,0.01087
2317.69363,0.01052
2315.63346,0.01020
2313.57329,0.00972
2311.51312,0.00927
2309.45294,0.00918
2307.39277,0.00918
2305.33260,0.00908
2303.27243,0.00898
2301.21225,0.00889
2299.15208,0.00874
2297.09191,0.00869
2295.03174,0.00879
2292.97157,0.00885
2290.91139,0.00890
2288.85122,0.00871
2286.79105,0.00800
2284.73088,0.00713
2282.67071,0.00666
2280.61053,0.00668
2278.55036,0.00690
2276.49019,0.00684
2274.43002,0.00634
2272.36984,0.00595
2270.30967,0.00617
2268.24950,0.00666
2266.18933,0.00678
2264.12916,0.00666
2262.06898,0.00665
2260.00881,0.00654
2257.94864,0.00615
2255.88847,0.00594
2253.82830,0.00602
2251.76812,0.00590
2249.70795,0.00571
2247.64778,0.00622
2245.58761,0.00653
2243.52744,0.00608
2241.46726,0.00523
2239.40709,0.00456
2237.34692,0.00437
2235.28675,0.00467
2233.22657,0.00503
2231.16640,0.00506
2229.10623,0.00506
2227.04606,0.00515
2224.98589,0.00507
2222.92571,0.00501
2220.86554,0.00486
2218.80537,0.00420
2216.74520,0.00393
2214.68503,0.00450
2212.62485,0.00474
2210.56468,0.00432
2208.50451,0.00397
2206.44434,0.00384
2204.38417,0.00379
2202.32399,0.00410
2200.26382,0.00459
2198.20365,0.00488
2196.14348,0.00472
2194.08330,0.00419
2192.02313,0.00412
2189.96296,0.00476
2187.90279,0.00520
2185.84262,0.00482
2183.78244,0.00393
2181.72227,0.00335
2179.66210,0.00339
2177.60193,0.00313
2175.54176,0.00273
2173.48158,0.00337
2171.42141,0.00435
2169.36124,0.00452
2167.30107,0.00404
2165.24089,0.00361
2163.18072,0.00333
2161.12055,0.00179
2159.06038,0.00000
2157.00021,0.00104
2154.94003,0.00312
2152.87986,0.00328
2150.81969,0.00226
2148.75952,0.00182
2146.69935,0.00223
2144.63917,0.00261
2142.57900,0.00238
2140.51883,0.00211
2138.45866,0.00217
2136.39849,0.00210
2134.33831,0.00207
2132.27814,0.00252
2130.21797,0.00312
2128.15780,0.00327
2126.09762,0.00306
2124.03745,0.00284
2121.97728,0.00256
2119.91711,0.00257
2117.85694,0.00297
2115.79676,0.00341
2113.73659,0.00400
2111.67642,0.00445
2109.61625,0.00418
2107.55608,0.00371
2105.49590,0.00342
2103.43573,0.00322
2101.37556,0.00319
2099.31539,0.00348
2097.25521,0.00358
2095.19504,0.00344
2093.13487,0.00340
2091.07470,0.00350
2089.01453,0.00348
2086.95435,0.00336
2084.89418,0.00321
2082.83401,0.00306
2080.77384,0.00291
2078.71367,0.00276
2076.65349,0.00274
2074.59332,0.00278
2072.53315,0.00255
2070.47298,0.00231
2068.41281,0.00261
2066.35263,0.00318
2064.29246,0.00331
2062.23229,0.00314
2060.17212,0.00320
2058.11194,0.00352
2056.05177,0.00354
2053.99160,0.00327
2051.93143,0.00358
2049.87126,0.00396
2047.81108,0.00326
2045.75091,0.00238
2043.69074,0.00204
2041.63057,0.00161
2039.57040,0.00172
2037.51022,0.00259
2035.45005,0.00309
2033.38988,0.00318
2031.32971,0.00300
2029.26954,0.00230
2027.20936,0.00150
2025.14919,0.00104
2023.08902,0.00109
2021.02885,0.00159
2018.96867,0.00217
2016.90850,0.00244
2014.84833,0.00234
2012.78816,0.00215
2010.72799,0.00179
2008.66781,0.00142
2006.60764,0.00186
2004.54747,0.00242
2002.48730,0.00196
2000.42713,0.00119
1998.36695,0.00127
1996.30678,0.00220
1994.24661,0.00263
1992.18644,0.00198
1990.12626,0.00146
1988.06609,0.00152
1986.00592,0.00171
1983.94575,0.00220
1981.88558,0.00294
1979.82540,0.00317
1977.76523,0.00245
1975.70506,0.00202
1973.64489,0.00258
1971.58472,0.00251
1969.52454,0.00136
1967.46437,0.00058
1965.40420,0.00054
1963.34403,0.00083
1961.28386,0.00119
1959.22368,0.00140
1957.16351,0.00148
1955.10334,0.00148
1953.04317,0.00128
1950.98299,0.00075
1948.92282,0.00032
1946.86265,0.00044
1944.80248,0.00090
1942.74231,0.00137
1940.68213,0.00164
1938.62196,0.00169
1936.56179,0.00173
1934.50162,0.00187
1932.44145,0.00188
1930.38127,0.00151
1928.32110,0.00109
1926.26093,0.00119
1924.20076,0.00177
1922.14059,0.00220
1920.08041,0.00207
1918.02024,0.00169
1915.96007,0.00159
1913.89990,0.00172
1911.83972,0.00168
1909.77955,0.00127
1907.71938,0.00093
1905.65921,0.00110
1903.59904,0.00157
1901.53886,0.00194
1899.47869,0.00213
1897.41852,0.00216
1895.35835,0.00209
1893.29818,0.00206
1891.23800,0.00203
1889.17783,0.00191
1887.11766,0.00199
1885.05749,0.00231
1882.99731,0.00244
1880.93714,0.00226
1878.87697,0.00218
1876.81680,0.00242
1874.75663,0.00265
1872.69645,0.00251
1870.63628,0.00213
1868.57611,0.00187
1866.51594,0.00189
1864.45577,0.00206
1862.39559,0.00219
1860.33542,0.00216
1858.27525,0.00196
1856.21508,0.00187
1854.15491,0.00208
1852.09473,0.00237
1850.03456,0.00242
1847.97439,0.00233
1845.91422,0.00230
1843.85404,0.00226
1841.79387,0.00213
1839.73370,0.00205
1837.67353,0.00214
1835.61336,0.00236
1833.55318,0.00257
1831.49301,0.00262
1829.43284,0.00250
1827.37267,0.00237
1825.31250,0.00247
1823.25232,0.00272
1821.19215,0.00279
1819.13198,0.00256
1817.07181,0.00228
1815.01163,0.00215
1812.95146,0.00216
1810.89129,0.00224
1808.83112,0.00235
1806.77095,0.00231
1804.71077,0.00211
1802.65060,0.00208
1800.59043,0.00234
1798.53026,0.00258
1796.47009,0.00262
1794.40991,0.00251
1792.34974,0.00242
1790.28957,0.00253
1788.22940,0.00277
1786.16923,0.00290
1784.10905,0.00291
1782.04888,0.00293
1779.98871,0.00294
1777.92854,0.00289
1775.86836,0.00283
1773.80819,0.00272
1771.74802,0.00254
1769.68785,0.00238
1767.62768,0.00243
1765.56750,0.00261
1763.50733,0.00269
1761.44716,0.00279
1759.38699,0.00299
1757.32682,0.00322
1755.26664,0.00343
1753.20647,0.00358
1751.14630,0.00354
1749.08613,0.00337
1747.02596,0.00343
1744.96578,0.00363
1742.90561,0.00362
1740.84544,0.00339
1738.78527,0.00323
1736.72509,0.00318
1734.66492,0.00331
1732.60475,0.00367
1730.54458,0.00400
1728.48441,0.00412
1726.42423,0.00418
1724.36406,0.00421
1722.30389,0.00408
1720.24372,0.00380
1718.18355,0.00365
1716.12337,0.00379
1714.06320,0.00406
1712.00303,0.00423
1709.94286,0.00430
1707.88268,0.00429
1705.82251,0.00428
1703.76234,0.00446
1701.70217,0.00462
1699.64200,0.00453
1697.58182,0.00462
1695.52165,0.00516
1693.46148,0.00580
1691.40131,0.00629
1689.34114,0.00662
1687.28096,0.00682
1685.22079,0.00709
1683.16062,0.00766
1681.10045,0.00826
1679.04028,0.00862
1676.98010,0.00894
1674.91993,0.00948
1672.85976,0.01012
1670.79959,0.01071
1668.73941,0.01121
1666.67924,0.01142
1664.61907,0.01135
1662.55890,0.01128
1660.49873,0.01144
1658.43855,0.01173
1656.37838,0.01190
1654.31821,0.01188
1652.25804,0.01184
1650.19787,0.01196
1648.13769,0.01196
1646.07752,0.01197
1644.01735,0.01206
1641.95718,0.01209
1639.89701,0.01203
1637.83683,0.01190
1635.77666,0.01174
1633.71649,0.01169
1631.65632,0.01158
1629.59614,0.01134
1627.53597,0.01115
1625.47580,0.01107
1623.41563,0.01093
1621.35546,0.01067
1619.29528,0.01039
1617.23511,0.01019
1615.17494,0.01012
1613.11477,0.01015
1611.05460,0.01020
1608.99442,0.01020
1606.93425,0.01018
1604.87408,0.01014
1602.81391,0.01002
1600.75373,0.00982
1598.69356,0.00966
1596.63339,0.00956
1594.57322,0.00946
1592.51305,0.00926
1590.45287,0.00895
1588.39270,0.00866
1586.33253,0.00846
1584.27236,0.00829
1582.21219,0.00808
1580.15201,0.00777
1578.09184,0.00736
1576.03167,0.00694
1573.97150,0.00671
1571.91133,0.00660
1569.85115,0.00652
1567.79098,0.00650
1565.73081,0.00649
1563.67064,0.00646
1561.61046,0.00642
1559.55029,0.00614
1557.49012,0.00542
1555.42995,0.00500
1553.36978,0.00508
1551.30960,0.00534
1549.24943,0.00539
1547.18926,0.00524
1545.12909,0.00497
1543.06892,0.00447
1541.00874,0.00393
1538.94857,0.00378
1536.88840,0.00388
1534.82823,0.00394
1532.76805,0.00395
1530.70788,0.00392
1528.64771,0.00384
1526.58754,0.00363
1524.52737,0.00324
1522.46719,0.00288
1520.40702,0.00274
1518.34685,0.00290
1516.28668,0.00315
1514.22651,0.00321
1512.16633,0.00302
1510.10616,0.00267
1508.04599,0.00218
1505.98582,0.00182
1503.92565,0.00188
1501.86547,0.00201
1499.80530,0.00211
1497.74513,0.00222
1495.68496,0.00229
1493.62478,0.00230
1491.56461,0.00226
1489.50444,0.00222
1487.44427,0.00224
1485.38410,0.00221
1483.32392,0.00212
1481.26375,0.00210
1479.20358,0.00216
1477.14341,0.00224
1475.08324,0.00228
1473.02306,0.00224
1470.96289,0.00225
1468.90272,0.00237
1466.84255,0.00255
1464.78238,0.00274
1462.72220,0.00283
1460.66203,0.00279
1458.60186,0.00276
1456.54169,0.00288
1454.48151,0.00300
1452.42134,0.00297
1450.36117,0.00297
1448.30100,0.00304
1446.24083,0.00305
1444.18065,0.00307
1442.12048,0.00317
1440.06031,0.00328
1438.00014,0.00330
1435.93997,0.00323
1433.87979,0.00320
1431.81962,0.00327
1429.75945,0.00340
1427.69928,0.00359
1425.63910,0.00379
1423.57893,0.00400
1421.51876,0.00417
1419.45859,0.00432
1417.39842,0.00443
1415.33824,0.00452
1413.27807,0.00458
1411.21790,0.00461
1409.15773,0.00459
1407.09756,0.00452
1405.03738,0.00438
1402.97721,0.00427
1400.91704,0.00430
1398.85687,0.00435
1396.79670,0.00434
1394.73652,0.00427
1392.67635,0.00413
1390.61618,0.00398
1388.55601,0.00389
1386.49583,0.00390
1384.43566,0.00395
1382.37549,0.00404
1380.31532,0.00411
1378.25515,0.00411
1376.19497,0.00409
1374.13480,0.00409
1372.07463,0.00412
1370.01446,0.00408
1367.95429,0.00398
1365.89411,0.00394
1363.83394,0.00393
1361.77377,0.00385
1359.71360,0.00381
1357.65343,0.00383
1355.59325,0.00380
1353.53308,0.00369
1351.47291,0.00359
1349.41274,0.00350
1347.35256,0.00334
1345.29239,0.00310
1343.23222,0.00295
1341.17205,0.00298
1339.11188,0.00299
1337.05170,0.00284
1334.99153,0.00262
1332.93136,0.00245
1330.87119,0.00235
1328.81102,0.00228
1326.75084,0.00221
1324.69067,0.00213
1322.63050,0.00208
1320.57033,0.00204
1318.51015,0.00199
1316.44998,0.00197
1314.38981,0.00192
1312.32964,0.00184
1310.26947,0.00182
1308.20929,0.00183
1306.14912,0.00179
1304.08895,0.00178
1302.02878,0.00182
1299.96861,0.00184
1297.90843,0.00190
1295.84826,0.00207
1293.78809,0.00217
1291.72792,0.00210
1289.66775,0.00199
1287.60757,0.00187
1285.54740,0.00172
1283.48723,0.00166
1281.42706,0.00173
1279.36688,0.00178
1277.30671,0.00176
1275.24654,0.00177
1273.18637,0.00180
1271.12620,0.00175
1269.06602,0.00160
1267.00585,0.00144
1264.94568,0.00142
1262.88551,0.00161
1260.82534,0.00178
1258.76516,0.00178
1256.70499,0.00172
1254.64482,0.00173
1252.58465,0.00181
1250.52447,0.00185
1248.46430,0.00174
1246.40413,0.00157
1244.34396,0.00144
1242.28379,0.00142
1240.22361,0.00150
1238.16344,0.00151
1236.10327,0.00137
1234.04310,0.00120
1231.98293,0.00115
1229.92275,0.00110
1227.86258,0.00095
1225.80241,0.00075
1223.74224,0.00061
1221.68207,0.00057
1219.62189,0.00048
1217.56172,0.00029
1215.50155,0.00013
1213.44138,0.00009
1211.38120,0.00011
1209.32103,0.00011
1207.26086,0.00007
1205.20069,0.00000
1203.14052,0.00001
1201.08034,0.00019
1199.02017,0.00047
1196.96000,0.00075
1194.89983,0.00107
1192.83966,0.00141
1190.77948,0.00172
1188.71931,0.00209
1186.65914,0.00263
1184.59897,0.00327
1182.53880,0.00380
1180.47862,0.00426
1178.41845,0.00482
1176.35828,0.00557
1174.29811,0.00636
1172.23793,0.00695
1170.17776,0.00734
1168.11759,0.00766
1166.05742,0.00805
1163.99725,0.00852
1161.93707,0.00900
1159.87690,0.00934
1157.81673,0.00960
1155.75656,0.00998
1153.69639,0.01044
1151.63621,0.01078
1149.57604,0.01099
1147.51587,0.01124
1145.45570,0.01149
1143.39552,0.01177
1141.33535,0.01209
1139.27518,0.01239
1137.21501,0.01273
1135.15484,0.01321
1133.09466,0.01378
1131.03449,0.01435
1128.97432,0.01486
1126.91415,0.01545
1124.85398,0.01620
1122.79380,0.01697
1120.73363,0.01776
1118.67346,0.01867
1116.61329,0.01953
1114.55312,0.02024
1112.49294,0.02099
1110.43277,0.02185
1108.37260,0.02270
1106.31243,0.02350
1104.25225,0.02429
1102.19208,0.02515
1100.13191,0.02604
1098.07174,0.02681
1096.01157,0.02746
1093.95139,0.02809
1091.89122,0.02880
1089.83105,0.02956
1087.77088,0.03018
1085.71071,0.03059
1083.65053,0.03104
1081.59036,0.03166
1079.53019,0.03231
1077.47002,0.03283
1075.40985,0.03324
1073.34967,0.03359
1071.28950,0.03381
1069.22933,0.03379
1067.16916,0.03367
1065.10898,0.03364
1063.04881,0.03356
1060.98864,0.03328
1058.92847,0.03285
1056.86830,0.03235
1054.80812,0.03181
1052.74795,0.03110
1050.68778,0.03015
1048.62761,0.02910
1046.56744,0.02800
1044.50726,0.02689
1042.44709,0.02576
1040.38692,0.02446
1038.32675,0.02309
1036.26657,0.02188
1034.20640,0.02085
1032.14623,0.01969
1030.08606,0.01836
1028.02589,0.01710
1025.96571,0.01604
1023.90554,0.01514
1021.84537,0.01440
1019.78520,0.01390
1017.72503,0.01354
1015.66485,0.01308
1013.60468,0.01256
1011.54451,0.01225
1009.48434,0.01231
1007.42417,0.01277
1005.36399,0.01340
1003.30382,0.01390
1001.24365,0.01438
999.18348,0.01501
997.12330,0.01574
995.06313,0.01639
993.00296,0.01699
990.94279,0.01769
988.88262,0.01835
986.82244,0.01882
984.76227,0.01902
982.70210,0.01911
980.64193,0.01924
978.58176,0.01932
976.52158,0.01934
974.46141,0.01915
972.40124,0.01867
970.34107,0.01809
968.28089,0.01759
966.22072,0.01708
964.16055,0.01642
962.10038,0.01573
960.04021,0.01513
957.98003,0.01458
955.91986,0.01400
953.85969,0.01345
951.79952,0.01303
949.73935,0.01268
947.67917,0.01228
945.61900,0.01182
943.55883,0.01127
941.49866,0.01080
939.43849,0.01048
937.37831,0.01005
935.31814,0.00956
933.25797,0.00904
931.19780,0.00844
929.13762,0.00797
927.07745,0.00774
925.01728,0.00737
922.95711,0.00666
920.89694,0.00612
918.83676,0.00592
916.77659,0.00566
914.71642,0.00527
912.65625,0.00495
910.59608,0.00460
908.53590,0.00425
906.47573,0.00409
904.41556,0.00408
902.35539,0.00406
900.29522,0.00392
898.23504,0.00376
896.17487,0.00377
894.11470,0.00400
892.05453,0.00433
889.99435,0.00462
887.93418,0.00490
885.87401,0.00540
883.81384,0.00613
881.75367,0.00666
879.69349,0.00695
877.63332,0.00739
875.57315,0.00827
873.51298,0.00951
871.45281,0.01040
869.39263,0.01072
867.33246,0.01115
865.27229,0.01191
863.21212,0.01260
861.15194,0.01309
859.09177,0.01342
857.03160,0.01353
854.97143,0.01335
852.91126,0.01311
850.85108,0.01295
848.79091,0.01268
846.73074,0.01233
844.67057,0.01209
842.61040,0.01190
840.55022,0.01165
838.49005,0.01118
836.42988,0.01039
834.36971,0.00952
832.30954,0.00887
830.24936,0.00829
828.18919,0.00773
826.12902,0.00745
824.06885,0.00731
822.00867,0.00692
819.94850,0.00632
817.88833,0.00585
815.82816,0.00561
813.76799,0.00543
811.70781,0.00506
809.64764,0.00459
807.58747,0.00437
805.52730,0.00424
803.46713,0.00401
801.40695,0.00395
799.34678,0.00386
797.28661,0.00341
795.22644,0.00300
793.16627,0.00289
791.10609,0.00289
789.04592,0.00287
786.98575,0.00281
784.92558,0.00276
782.86540,0.00275
780.80523,0.00264
778.74506,0.00252
776.68489,0.00252
774.62472,0.00259
772.56454,0.00276
770.50437,0.00288
768.44420,0.00265
766.38403,0.00225
764.32386,0.00197
762.26368,0.00193
760.20351,0.00199
758.14334,0.00180
756.08317,0.00149
754.02299,0.00142
751.96282,0.00153
749.90265,0.00142
747.84248,0.00112
745.78231,0.00121
743.72213,0.00153
741.66196,0.00144
739.60179,0.00112
737.54162,0.00113
735.48145,0.00159
733.42127,0.00181
731.36110,0.00140
729.30093,0.00120
727.24076,0.00123
725.18059,0.00104
723.12041,0.00166
721.06024,0.00193
719.00007,0.00141
716.93990,0.00082
714.87972,0.00070
712.81955,0.00087
710.75938,0.00091
708.69921,0.00075
706.63904,0.00067
704.57886,0.00091
702.51869,0.00133
700.45852,0.00196
698.39835,0.00265
696.33818,0.00292
694.27800,0.00275
692.21783,0.00247
690.15766,0.00207
688.09749,0.00157
686.03731,0.00147
683.97714,0.00211
681.91697,0.00298
679.85680,0.00345
677.79663,0.00353
675.73645,0.00333
673.67628,0.00229
671.61611,0.00003
669.55594,0.00000
667.49577,0.00237
665.43559,0.00061
663.37542,0.00157
661.31525,0.00174
659.25508,0.00125
657.19491,0.00177
655.13473,0.00283
653.07456,0.00354
651.01439,0.00362
648.95422,0.00306
646.89404,0.00238
644.83387,0.00206
642.77370,0.00179
640.71353,0.00150
638.65336,0.00123
636.59318,0.00098
634.53301,0.00116
632.47284,0.00175
630.41267,0.00205
628.35250,0.00183
626.29232,0.00139
624.23215,0.00149
622.17198,0.00169
620.11181,0.00131
618.05164,0.00115
615.99146,0.00186
613.93129,0.00209
611.87112,0.00125
609.81095,0.00074
607.75077,0.00117
605.69060,0.00146
603.63043,0.00077
601.57026,0.00011
599.51009,0.00000
