3996.73391,-0.00005
3994.67373,0.00014
3992.61356,0.00035
3990.55339,0.00066
3988.49322,0.00103
3986.43305,0.00108
3984.37287,0.00074
3982.31270,0.00038
3980.25253,0.00016
3978.19236,0.00000
3976.13219,0.00006
3974.07201,0.00042
3972.01184,0.00095
3969.95167,0.00138
3967.89150,0.00125
3965.83133,0.00071
3963.77115,0.00035
3961.71098,0.00040
3959.65081,0.00055
3957.59064,0.00055
3955.53046,0.00056
3953.47029,0.00069
3951.41012,0.00070
3949.34995,0.00055
3947.28978,0.00054
3945.22960,0.00076
3943.16943,0.00110
3941.10926,0.00144
3939.04909,0.00170
3936.98892,0.00193
3934.92874,0.00203
3932.86857,0.00171
3930.80840,0.00133
3928.74823,0.00120
3926.68805,0.00096
3924.62788,0.00071
3922.56771,0.00085
3920.50754,0.00126
3918.44737,0.00151
3916.38719,0.00132
3914.32702,0.00104
3912.26685,0.00097
3910.20668,0.00094
3908.14651,0.00096
3906.08633,0.00114
3904.02616,0.00118
3901.96599,0.00115
3899.90582,0.00153
3897.84565,0.00192
3895.78547,0.00191
3893.72530,0.00184
3891.66513,0.00191
3889.60496,0.00185
3887.54478,0.00171
3885.48461,0.00179
3883.42444,0.00191
3881.36427,0.00177
3879.30410,0.00169
3877.24392,0.00181
3875.18375,0.00173
3873.12358,0.00145
3871.06341,0.00152
3869.00324,0.00162
3866.94306,0.00096
3864.88289,0.00008
3862.82272,0.00000
3860.76255,0.00058
3858.70237,0.00109
3856.64220,0.00141
3854.58203,0.00140
3852.52186,0.00074
3850.46169,0.00022
3848.40151,0.00036
3846.34134,0.00069
3844.28117,0.00107
3842.22100,0.00181
3840.16083,0.00276
3838.10065,0.00312
3836.04048,0.00269
3833.98031,0.00210
3831.92014,0.00165
3829.85997,0.00124
3827.79979,0.00101
3825.73962,0.00106
3823.67945,0.00087
3821.61928,0.00023
3819.55910,0.00011
3817.49893,0.00078
3815.43876,0.00133
3813.37859,0.00147
3811.31842,0.00149
3809.25824,0.00135
3807.19807,0.00097
3805.13790,0.00071
3803.07773,0.00100
3801.01756,0.00180
3798.95738,0.00228
3796.89721,0.00199
3794.83704,0.00140
3792.77687,0.00104
3790.71670,0.00101
3788.65652,0.00110
3786.59635,0.00115
3784.53618,0.00134
3782.47601,0.00187
3780.41583,0.00251
3778.35566,0.00257
3776.29549,0.00187
3774.23532,0.00127
3772.17515,0.00130
3770.11497,0.00155
3768.05480,0.00145
3765.99463,0.00114
3763.93446,0.00119
3761.87429,0.00151
3759.81411,0.00157
3757.75394,0.00144
3755.69377,0.00151
3753.63360,0.00176
3751.57342,0.00185
3749.51325,0.00159
3747.45308,0.00120
3745.39291,0.00090
3743.33274,0.00096
3741.27256,0.00156
3739.21239,0.00214
3737.15222,0.00223
3735.09205,0.00196
3733.03188,0.00199
3730.97170,0.00235
3728.91153,0.00260
3726.85136,0.00280
3724.79119,0.00316
3722.73102,0.00318
3720.67084,0.00253
3718.61067,0.00196
3716.55050,0.00206
3714.49033,0.00262
3712.43015,0.00316
3710.36998,0.00335
3708.30981,0.00330
3706.24964,0.00320
3704.18947,0.00312
3702.12929,0.00315
3700.06912,0.00325
3698.00895,0.00314
3695.94878,0.00298
3693.88861,0.00306
3691.82843,0.00346
3689.76826,0.00423
3687.70809,0.00481
3685.64792,0.00461
3683.58775,0.00403
3681.52757,0.00367
3679.46740,0.00374
3677.40723,0.00376
3675.34706,0.00321
3673.28688,0.00291
3671.22671,0.00310
3669.16654,0.00318
3667.10637,0.00359
3665.04620,0.00455
3662.98602,0.00544
3660.92585,0.00582
3658.86568,0.00559
3656.80551,0.00509
3654.74534,0.00493
3652.68516,0.00475
3650.62499,0.00408
3648.56482,0.00400
3646.50465,0.00529
3644.44447,0.00660
3642.38430,0.00761
3640.32413,0.00867
3638.26396,0.00937
3636.20379,0.00952
3634.14361,0.00955
3632.08344,0.00975
3630.02327,0.01016
3627.96310,0.01083
3625.90293,0.01137
3623.84275,0.01147
3621.78258,0.01162
3619.72241,0.01219
3617.66224,0.01283
3615.60207,0.01331
3613.54189,0.01364
3611.48172,0.01358
3609.42155,0.01317
3607.36138,0.01326
3605.30120,0.01410
3603.24103,0.01493
3601.18086,0.01560
3599.12069,0.01642
3597.06052,0.01716
3595.00034,0.01742
3592.94017,0.01741
3590.88000,0.01739
3588.81983,0.01791
3586.75966,0.01896
3584.69948,0.01944
3582.63931,0.01910
3580.57914,0.01864
3578.51897,0.01869
3576.45879,0.01953
3574.39862,0.02078
3572.33845,0.02157
3570.27828,0.02176
3568.21811,0.02169
3566.15793,0.02168
3564.09776,0.02218
3562.03759,0.02312
3559.97742,0.02400
3557.91725,0.02456
3555.85707,0.02485
3553.79690,0.02518
3551.73673,0.02557
3549.67656,0.02560
3547.61639,0.02541
3545.55621,0.02582
3543.49604,0.02689
3541.43587,0.02772
3539.37570,0.02798
3537.31552,0.02806
3535.25535,0.02818
3533.19518,0.02833
3531.13501,0.02858
3529.07484,0.02891
3527.01466,0.02917
3524.95449,0.02962
3522.89432,0.03050
3520.83415,0.03137
3518.77398,0.03195
3516.71380,0.03239
3514.65363,0.03268
3512.59346,0.03289
3510.53329,0.03331
3508.47312,0.03392
3506.41294,0.03439
3504.35277,0.03461
3502.29260,0.03482
3500.23243,0.03528
3498.17225,0.03590
3496.11208,0.03654
3494.05191,0.03692
3491.99174,0.03667
3489.93157,0.03623
3487.87139,0.03650
3485.81122,0.03739
3483.75105,0.03814
3481.69088,0.03858
3479.63071,0.03876
3477.57053,0.03867
3475.51036,0.03854
3473.45019,0.03864
3471.39002,0.03914
3469.32984,0.03998
3467.26967,0.04059
3465.20950,0.04102
3463.14933,0.04144
3461.08916,0.04139
3459.02898,0.04124
3456.96881,0.04157
3454.90864,0.04204
3452.84847,0.04238
3450.78830,0.04249
3448.72812,0.04228
3446.66795,0.04209
3444.60778,0.04224
3442.54761,0.04287
3440.48744,0.04362
3438.42726,0.04372
3436.36709,0.04339
3434.30692,0.04356
3432.24675,0.04415
3430.18657,0.04452
3428.12640,0.04477
3426.06623,0.04507
3424.00606,0.04534
3421.94589,0.04581
3419.88571,0.04628
3417.82554,0.04665
3415.76537,0.04697
3413.70520,0.04690
3411.64503,0.04652
3409.58485,0.04669
3407.52468,0.04725
3405.46451,0.04730
3403.40434,0.04704
3401.34416,0.04724
3399.28399,0.04763
3397.22382,0.04787
3395.16365,0.04816
3393.10348,0.04834
3391.04330,0.04814
3388.98313,0.04792
3386.92296,0.04792
3384.86279,0.04798
3382.80262,0.04842
3380.74244,0.04915
3378.68227,0.04943
3376.62210,0.04933
3374.56193,0.04919
3372.50176,0.04904
3370.44158,0.04899
3368.38141,0.04907
3366.32124,0.04912
3364.26107,0.04924
3362.20089,0.04950
3360.14072,0.04943
3358.08055,0.04904
3356.02038,0.04922
3353.96021,0.04987
3351.90003,0.05003
3349.83986,0.04963
3347.77969,0.04939
3345.71952,0.04961
3343.65935,0.04987
3341.59917,0.04988
3339.53900,0.04993
3337.47883,0.05015
3335.41866,0.05015
3333.35849,0.04991
3331.29831,0.04966
3329.23814,0.04945
3327.17797,0.04947
3325.11780,0.04989
3323.05762,0.05033
3320.99745,0.05026
3318.93728,0.04977
3316.87711,0.04939
3314.81694,0.04942
3312.75676,0.04966
3310.69659,0.04991
3308.63642,0.04988
3306.57625,0.04982
3304.51608,0.05029
3302.45590,0.05066
3300.39573,0.05058
3298.33556,0.05062
3296.27539,0.05062
3294.21521,0.05032
3292.15504,0.05002
3290.09487,0.04983
3288.03470,0.04970
3285.97453,0.04959
3283.91435,0.04954
3281.85418,0.04961
3279.79401,0.04978
3277.73384,0.04976
3275.67367,0.04943
3273.61349,0.04929
3271.55332,0.04938
3269.49315,0.04938
3267.43298,0.04941
3265.37281,0.04948
3263.31263,0.04957
3261.25246,0.04972
3259.19229,0.04992
3257.13212,0.05012
3255.07194,0.05034
3253.01177,0.05031
3250.95160,0.04999
3248.89143,0.04980
3246.83126,0.04970
3244.77108,0.04946
3242.71091,0.04937
3240.65074,0.04972
3238.59057,0.05014
3236.53040,0.05011
3234.47022,0.04977
3232.41005,0.04965
3230.34988,0.04990
3228.28971,0.05015
3226.22954,0.04991
3224.16936,0.04928
3222.10919,0.04895
3220.04902,0.04928
3217.98885,0.04973
3215.92867,0.04975
3213.86850,0.04943
3211.80833,0.04887
3209.74816,0.04827
3207.68799,0.04811
3205.62781,0.04821
3203.56764,0.04822
3201.50747,0.04826
3199.44730,0.04795
3197.38713,0.04729
3195.32695,0.04718
3193.26678,0.04764
3191.20661,0.04797
3189.14644,0.04808
3187.08626,0.04826
3185.02609,0.04838
3182.96592,0.04813
3180.90575,0.04789
3178.84558,0.04800
3176.78540,0.04815
3174.72523,0.04804
3172.66506,0.04765
3170.60489,0.04714
3168.54472,0.04700
3166.48454,0.04738
3164.42437,0.04756
3162.36420,0.04703
3160.30403,0.04656
3158.24386,0.04642
3156.18368,0.04604
3154.12351,0.04579
3152.06334,0.04608
3150.00317,0.04632
3147.94299,0.04612
3145.88282,0.04570
3143.82265,0.04524
3141.76248,0.04490
3139.70231,0.04482
3137.64213,0.04473
3135.58196,0.04460
3133.52179,0.04461
3131.46162,0.04438
3129.40145,0.04379
3127.34127,0.04359
3125.28110,0.04408
3123.22093,0.04449
3121.16076,0.04441
3119.10058,0.04405
3117.04041,0.04365
3114.98024,0.04335
3112.92007,0.04316
3110.85990,0.04305
3108.79972,0.04293
3106.73955,0.04270
3104.67938,0.04238
3102.61921,0.04213
3100.55904,0.04225
3098.49886,0.04268
3096.43869,0.04282
3094.37852,0.04242
3092.31835,0.04189
3090.25818,0.04147
3088.19800,0.04096
3086.13783,0.04073
3084.07766,0.04090
3082.01749,0.04086
3079.95731,0.04075
3077.89714,0.04094
3075.83697,0.04103
3073.77680,0.04074
3071.71663,0.04027
3069.65645,0.04026
3067.59628,0.04073
3065.53611,0.04068
3063.47594,0.03982
3061.41577,0.03905
3059.35559,0.03876
3057.29542,0.03844
3055.23525,0.03808
3053.17508,0.03790
3051.11491,0.03759
3049.05473,0.03712
3046.99456,0.03686
3044.93439,0.03696
3042.87422,0.03733
3040.81404,0.03761
3038.75387,0.03741
3036.69370,0.03695
3034.63353,0.03675
3032.57336,0.03687
3030.51318,0.03683
3028.45301,0.03652
3026.39284,0.03622
3024.33267,0.03592
3022.27250,0.03569
3020.21232,0.03571
3018.15215,0.03557
3016.09198,0.03507
3014.03181,0.03466
3011.97163,0.03462
3009.91146,0.03457
3007.85129,0.03422
3005.79112,0.03381
3003.73095,0.03366
3001.67077,0.03363
2999.61060,0.03357
2997.55043,0.03349
2995.49026,0.03314
2993.43009,0.03266
2991.36991,0.03241
2989.30974,0.03217
2987.24957,0.03185
2985.18940,0.03177
2983.12923,0.03183
2981.06905,0.03198
2979.00888,0.03221
2976.94871,0.03225
2974.88854,0.03226
2972.82836,0.03240
2970.76819,0.03219
2968.70802,0.03170
2966.64785,0.03139
2964.58768,0.03122
2962.52750,0.03108
2960.46733,0.03099
2958.40716,0.03100
2956.34699,0.03087
2954.28682,0.03045
2952.22664,0.03011
2950.16647,0.02983
2948.10630,0.02965
2946.04613,0.02951
2943.98596,0.02925
2941.92578,0.02927
2939.86561,0.02962
2937.80544,0.02969
2935.74527,0.02937
2933.68509,0.02912
2931.62492,0.02896
2929.56475,0.02889
2927.50458,0.02874
2925.44441,0.02827
2923.38423,0.02777
2921.32406,0.02747
2919.26389,0.02741
2917.20372,0.02759
2915.14355,0.02761
2913.08337,0.02723
2911.02320,0.02659
2908.96303,0.02601
2906.90286,0.02580
2904.84268,0.02577
2902.78251,0.02570
2900.72234,0.02576
2898.66217,0.02582
2896.60200,0.02557
2894.54182,0.02522
2892.48165,0.02514
2890.42148,0.02528
2888.36131,0.02535
2886.30114,0.02529
2884.24096,0.02518
2882.18079,0.02509
2880.12062,0.02485
2878.06045,0.02432
2876.00028,0.02395
2873.94010,0.02399
2871.87993,0.02394
2869.81976,0.02357
2867.75959,0.02318
2865.69941,0.02285
2863.63924,0.02263
2861.57907,0.02286
2859.51890,0.02335
2857.45873,0.02343
2855.39855,0.02316
2853.33838,0.02280
2851.27821,0.02228
2849.21804,0.02177
2847.15787,0.02131
2845.09769,0.02098
2843.03752,0.02093
2840.97735,0.02109
2838.91718,0.02119
2836.85700,0.02099
2834.79683,0.02066
2832.73666,0.02044
2830.67649,0.02026
2828.61632,0.02003
2826.55614,0.01973
2824.49597,0.01950
2822.43580,0.01935
2820.37563,0.01916
2818.31546,0.01906
2816.25528,0.01909
2814.19511,0.01909
2812.13494,0.01925
2810.07477,0.01938
2808.01460,0.01907
2805.95442,0.01867
2803.89425,0.01839
2801.83408,0.01811
2799.77391,0.01792
2797.71373,0.01792
2795.65356,0.01795
2793.59339,0.01792
2791.53322,0.01786
2789.47305,0.01760
2787.41287,0.01713
2785.35270,0.01677
2783.29253,0.01657
2781.23236,0.01662
2779.17219,0.01691
2777.11201,0.01699
2775.05184,0.01671
2772.99167,0.01643
2770.93150,0.01634
2768.87133,0.01632
2766.81115,0.01623
2764.75098,0.01609
2762.69081,0.01590
2760.63064,0.01560
2758.57046,0.01532
2756.51029,0.01519
2754.45012,0.01523
2752.38995,0.01531
2750.32978,0.01530
2748.26960,0.01534
2746.20943,0.01533
2744.14926,0.01495
2742.08909,0.01435
2740.02892,0.01415
2737.96874,0.01440
2735.90857,0.01459
2733.84840,0.01462
2731.78823,0.01470
2729.72805,0.01461
2727.66788,0.01399
2725.60771,0.01341
2723.54754,0.01336
2721.48737,0.01345
2719.42719,0.01344
2717.36702,0.01352
2715.30685,0.01356
2713.24668,0.01341
2711.18651,0.01331
2709.12633,0.01328
2707.06616,0.01305
2705.00599,0.01265
2702.94582,0.01228
2700.88565,0.01209
2698.82547,0.01208
2696.76530,0.01199
2694.70513,0.01187
2692.64496,0.01198
2690.58478,0.01218
2688.52461,0.01227
2686.46444,0.01226
2684.40427,0.01212
2682.34410,0.01178
2680.28392,0.01151
2678.22375,0.01146
2676.16358,0.01143
2674.10341,0.01157
2672.04324,0.01196
2669.98306,0.01212
2667.92289,0.01199
2665.86272,0.01184
2663.80255,0.01163
2661.74238,0.01141
2659.68220,0.01129
2657.62203,0.01124
2655.56186,0.01111
2653.50169,0.01091
2651.44151,0.01068
2649.38134,0.01062
2647.32117,0.01073
2645.26100,0.01071
2643.20083,0.01055
2641.14065,0.01055
2639.08048,0.01044
2637.02031,0.01012
2634.96014,0.01022
2632.89997,0.01065
2630.83979,0.01067
2628.77962,0.01037
2626.71945,0.01012
2624.65928,0.00994
2622.59910,0.00969
2620.53893,0.00956
2618.47876,0.00961
2616.41859,0.00936
2614.35842,0.00888
2612.29824,0.00883
2610.23807,0.00930
2608.17790,0.00990
2606.11773,0.00993
2604.05756,0.00903
2601.99738,0.00807
2599.93721,0.00804
2597.87704,0.00856
2595.81687,0.00876
2593.75670,0.00876
2591.69652,0.00916
2589.63635,0.00970
2587.57618,0.00997
2585.51601,0.00977
2583.45583,0.00910
2581.39566,0.00861
2579.33549,0.00865
2577.27532,0.00906
2575.21515,0.00959
2573.15497,0.00982
2571.09480,0.00936
2569.03463,0.00826
2566.97446,0.00771
2564.91429,0.00830
2562.85411,0.00909
2560.79394,0.00928
2558.73377,0.00904
2556.67360,0.00883
2554.61342,0.00878
2552.55325,0.00876
2550.49308,0.00873
2548.43291,0.00858
2546.37274,0.00865
2544.31256,0.00912
2542.25239,0.00907
2540.19222,0.00845
2538.13205,0.00815
2536.07188,0.00795
2534.01170,0.00748
2531.95153,0.00731
2529.89136,0.00784
2527.83119,0.00839
2525.77102,0.00840
2523.71084,0.00812
2521.65067,0.00788
2519.59050,0.00793
2517.53033,0.00811
2515.47015,0.00821
2513.40998,0.00842
2511.34981,0.00840
2509.28964,0.00801
2507.22947,0.00802
2505.16929,0.00856
2503.10912,0.00881
2501.04895,0.00872
2498.98878,0.00869
2496.92861,0.00839
2494.86843,0.00795
2492.80826,0.00796
2490.74809,0.00820
2488.68792,0.00847
2486.62775,0.00882
2484.56757,0.00915
2482.50740,0.00926
2480.44723,0.00901
2478.38706,0.00872
2476.32688,0.00893
2474.26671,0.00932
2472.20654,0.00917
2470.14637,0.00884
2468.08620,0.00911
2466.02602,0.00963
2463.96585,0.00993
2461.90568,0.01011
2459.84551,0.00981
2457.78534,0.00900
2455.72516,0.00869
2453.66499,0.00914
2451.60482,0.00978
2449.54465,0.01030
2447.48447,0.01059
2445.42430,0.01066
2443.36413,0.01048
2441.30396,0.01008
2439.24379,0.00962
2437.18361,0.00940
2435.12344,0.00957
2433.06327,0.00972
2431.00310,0.00950
2428.94293,0.00923
2426.88275,0.00904
2424.82258,0.00882
2422.76241,0.00897
2420.70224,0.00929
2418.64207,0.00911
2416.58189,0.00862
2414.52172,0.00837
2412.46155,0.00844
2410.40138,0.00858
2408.34120,0.00871
2406.28103,0.00875
2404.22086,0.00883
2402.16069,0.00890
2400.10052,0.00905
2398.04034,0.00944
2395.98017,0.00965
2393.92000,0.00948
2391.85983,0.00915
2389.79966,0.00885
2387.73948,0.00850
2385.67931,0.00832
2383.61914,0.00879
2381.55897,0.00956
2379.49880,0.00953
2377.43862,0.00869
2375.37845,0.00844
2373.31828,0.00875
2371.25811,0.00810
2369.19793,0.00637
2367.13776,0.00522
2365.07759,0.00578
2363.01742,0.00782
2360.95725,0.00845
2358.89707,0.00748
2356.83690,0.00698
2354.77673,0.00856
2352.71656,0.01042
2350.65639,0.01007
2348.59621,0.00963
2346.53604,0.01129
2344.47587,0.01149
2342.41570,0.01035
2340.35552,0.00931
2338.29535,0.00905
2336.23518,0.00897
2334.17501,0.00796
2332.11484,0.00646
2330.05466,0.00568
2327.99449,0.00659
2325.93432,0.00822
2323.87415,0.00971
2321.81398,0.00994
2319.75380,0.00951
2317.69363,0.00906
2315.63346,0.00904
2313.57329,0.00882
2311.51312,0.00830
2309.45294,0.00808
2307.39277,0.00832
2305.33260,0.00882
2303.27243,0.00929
2301.21225,0.00954
2299.15208,0.00961
2297.09191,0.00968
2295.03174,0.00949
2292.97157,0.00912
2290.91139,0.00896
2288.85122,0.00875
2286.79105,0.00845
2284.73088,0.00867
2282.67071,0.00925
2280.61053,0.00954
2278.55036,0.00956
2276.49019,0.00957
2274.43002,0.00936
2272.36984,0.00880
2270.30967,0.00829
2268.24950,0.00817
2266.18933,0.00802
2264.12916,0.00756
2262.06898,0.00728
2260.00881,0.00788
2257.94864,0.00934
2255.88847,0.01019
2253.82830,0.00957
2251.76812,0.00871
2249.70795,0.00844
2247.64778,0.00843
2245.58761,0.00847
2243.52744,0.00821
2241.46726,0.00745
2239.40709,0.00691
2237.34692,0.00731
2235.28675,0.00807
2233.22657,0.00864
2231.16640,0.00894
2229.10623,0.00873
2227.04606,0.00808
2224.98589,0.00725
2222.92571,0.00652
2220.86554,0.00656
2218.80537,0.00727
2216.74520,0.00746
2214.68503,0.00723
2212.62485,0.00742
2210.56468,0.00751
2208.50451,0.00733
2206.44434,0.00760
2204.38417,0.00795
2202.32399,0.00684
2200.26382,0.00460
2198.20365,0.00416
2196.14348,0.00542
2194.08330,0.00574
2192.02313,0.00562
2189.96296,0.00644
2187.90279,0.00754
2185.84262,0.00784
2183.78244,0.00707
2181.72227,0.00645
2179.66210,0.00684
2177.60193,0.00751
2175.54176,0.00745
2173.48158,0.00661
2171.42141,0.00653
2169.36124,0.00676
2167.30107,0.00603
2165.24089,0.00653
2163.18072,0.00817
2161.12055,0.00769
2159.06038,0.00566
2157.00021,0.00447
2154.94003,0.00410
2152.87986,0.00370
2150.81969,0.00335
2148.75952,0.00404
2146.69935,0.00590
2144.63917,0.00654
2142.57900,0.00511
2140.51883,0.00401
2138.45866,0.00425
2136.39849,0.00513
2134.33831,0.00602
2132.27814,0.00654
2130.21797,0.00652
2128.15780,0.00616
2126.09762,0.00589
2124.03745,0.00576
2121.97728,0.00603
2119.91711,0.00653
2117.85694,0.00651
2115.79676,0.00658
2113.73659,0.00739
2111.67642,0.00794
2109.61625,0.00737
2107.55608,0.00625
2105.49590,0.00564
2103.43573,0.00569
2101.37556,0.00582
2099.31539,0.00587
2097.25521,0.00572
2095.19504,0.00559
2093.13487,0.00619
2091.07470,0.00700
2089.01453,0.00724
2086.95435,0.00694
2084.89418,0.00640
2082.83401,0.00595
2080.77384,0.00547
2078.71367,0.00483
2076.65349,0.00480
2074.59332,0.00557
2072.53315,0.00570
2070.47298,0.00532
2068.41281,0.00600
2066.35263,0.00703
2064.29246,0.00694
2062.23229,0.00666
2060.17212,0.00717
2058.11194,0.00733
2056.05177,0.00673
2053.99160,0.00618
2051.93143,0.00580
2049.87126,0.00431
2047.81108,0.00183
2045.75091,0.00161
2043.69074,0.00448
2041.63057,0.00683
2039.57040,0.00745
2037.51022,0.00835
2035.45005,0.00853
2033.38988,0.00660
2031.32971,0.00452
2029.26954,0.00332
2027.20936,0.00363
2025.14919,0.00549
2023.08902,0.00669
2021.02885,0.00659
2018.96867,0.00674
2016.90850,0.00662
2014.84833,0.00412
2012.78816,0.00106
2010.72799,0.00000
2008.66781,0.00065
2006.60764,0.00207
2004.54747,0.00305
2002.48730,0.00388
2000.42713,0.00515
1998.36695,0.00552
1996.30678,0.00408
1994.24661,0.00271
1992.18644,0.00333
1990.12626,0.00463
1988.06609,0.00500
1986.00592,0.00463
1983.94575,0.00474
1981.88558,0.00526
1979.82540,0.00444
1977.76523,0.00343
1975.70506,0.00409
1973.64489,0.00415
1971.58472,0.00289
1969.52454,0.00214
1967.46437,0.00198
1965.40420,0.00177
1963.34403,0.00169
1961.28386,0.00224
1959.22368,0.00260
1957.16351,0.00135
1955.10334,0.00000
1953.04317,0.00042
1950.98299,0.00126
1948.92282,0.00177
1946.86265,0.00283
1944.80248,0.00406
1942.74231,0.00410
1940.68213,0.00305
1938.62196,0.00259
1936.56179,0.00335
1934.50162,0.00395
1932.44145,0.00322
1930.38127,0.00195
1928.32110,0.00172
1926.26093,0.00271
1924.20076,0.00347
1922.14059,0.00331
1920.08041,0.00310
1918.02024,0.00302
1915.96007,0.00293
1913.89990,0.00311
1911.83972,0.00354
1909.77955,0.00411
1907.71938,0.00433
1905.65921,0.00375
1903.59904,0.00306
1901.53886,0.00284
1899.47869,0.00281
1897.41852,0.00271
1895.35835,0.00273
1893.29818,0.00297
1891.23800,0.00303
1889.17783,0.00319
1887.11766,0.00384
1885.05749,0.00409
1882.99731,0.00343
1880.93714,0.00274
1878.87697,0.00260
1876.81680,0.00289
1874.75663,0.00347
1872.69645,0.00394
1870.63628,0.00409
1868.57611,0.00427
1866.51594,0.00459
1864.45577,0.00457
1862.39559,0.00396
1860.33542,0.00321
1858.27525,0.00283
1856.21508,0.00282
1854.15491,0.00302
1852.09473,0.00346
1850.03456,0.00386
1847.97439,0.00383
1845.91422,0.00335
1843.85404,0.00268
1841.79387,0.00237
1839.73370,0.00268
1837.67353,0.00322
1835.61336,0.00358
1833.55318,0.00369
1831.49301,0.00358
1829.43284,0.00335
1827.37267,0.00317
1825.31250,0.00289
1823.25232,0.00262
1821.19215,0.00268
1819.13198,0.00286
1817.07181,0.00290
1815.01163,0.00291
1812.95146,0.00306
1810.89129,0.00349
1808.83112,0.00395
1806.77095,0.00404
1804.71077,0.00396
1802.65060,0.00395
1800.59043,0.00391
1798.53026,0.00386
1796.47009,0.00374
1794.40991,0.00336
1792.34974,0.00298
1790.28957,0.00306
1788.22940,0.00345
1786.16923,0.00364
1784.10905,0.00355
1782.04888,0.00348
1779.98871,0.00348
1777.92854,0.00342
1775.86836,0.00316
1773.80819,0.00273
1771.74802,0.00279
1769.68785,0.00361
1767.62768,0.00443
1765.56750,0.00477
1763.50733,0.00476
1761.44716,0.00464
1759.38699,0.00452
1757.32682,0.00460
1755.26664,0.00491
1753.20647,0.00506
1751.14630,0.00488
1749.08613,0.00483
1747.02596,0.00540
1744.96578,0.00619
1742.90561,0.00656
1740.84544,0.00645
1738.78527,0.00627
1736.72509,0.00630
1734.66492,0.00651
1732.60475,0.00672
1730.54458,0.00682
1728.48441,0.00688
1726.42423,0.00701
1724.36406,0.00720
1722.30389,0.00721
1720.24372,0.00685
1718.18355,0.00649
1716.12337,0.00684
1714.06320,0.00761
1712.00303,0.00823
1709.94286,0.00868
1707.88268,0.00901
1705.82251,0.00939
1703.76234,0.00990
1701.70217,0.01027
1699.64200,0.01041
1697.58182,0.01084
1695.52165,0.01182
1693.46148,0.01272
1691.40131,0.01324
1689.34114,0.01376
1687.28096,0.01433
1685.22079,0.01482
1683.16062,0.01567
1681.10045,0.01698
1679.04028,0.01813
1676.98010,0.01892
1674.91993,0.01975
1672.85976,0.02096
1670.79959,0.02212
1668.73941,0.02281
1666.67924,0.02322
1664.61907,0.02376
1662.55890,0.02445
1660.49873,0.02497
1658.43855,0.02536
1656.37838,0.02601
1654.31821,0.02672
1652.25804,0.02686
1650.19787,0.02663
1648.13769,0.02641
1646.07752,0.02634
1644.01735,0.02669
1641.95718,0.02703
1639.89701,0.02688
1637.83683,0.02628
1635.77666,0.02552
1633.71649,0.02473
1631.65632,0.02393
1629.59614,0.02326
1627.53597,0.02290
1625.47580,0.02258
1623.41563,0.02189
1621.35546,0.02101
1619.29528,0.02030
1617.23511,0.01968
1615.17494,0.01911
1613.11477,0.01864
1611.05460,0.01836
1608.99442,0.01818
1606.93425,0.01783
1604.87408,0.01724
1602.81391,0.01667
1600.75373,0.01637
1598.69356,0.01610
1596.63339,0.01551
1594.57322,0.01479
1592.51305,0.01436
1590.45287,0.01419
1588.39270,0.01399
1586.33253,0.01370
1584.27236,0.01342
1582.21219,0.01320
1580.15201,0.01290
1578.09184,0.01248
1576.03167,0.01202
1573.97150,0.01171
1571.91133,0.01162
1569.85115,0.01172
1567.79098,0.01178
1565.73081,0.01169
1563.67064,0.01157
1561.61046,0.01127
1559.55029,0.01051
1557.49012,0.00987
1555.42995,0.00990
1553.36978,0.00998
1551.30960,0.00993
1549.24943,0.00997
1547.18926,0.01004
1545.12909,0.00991
1543.06892,0.00930
1541.00874,0.00837
1538.94857,0.00810
1536.88840,0.00849
1534.82823,0.00855
1532.76805,0.00814
1530.70788,0.00778
1528.64771,0.00751
1526.58754,0.00714
1524.52737,0.00698
1522.46719,0.00710
1520.40702,0.00710
1518.34685,0.00685
1516.28668,0.00660
1514.22651,0.00649
1512.16633,0.00636
1510.10616,0.00605
1508.04599,0.00560
1505.98582,0.00535
1503.92565,0.00545
1501.86547,0.00542
1499.80530,0.00513
1497.74513,0.00477
1495.68496,0.00463
1493.62478,0.00474
1491.56461,0.00488
1489.50444,0.00483
1487.44427,0.00462
1485.38410,0.00442
1483.32392,0.00432
1481.26375,0.00433
1479.20358,0.00433
1477.14341,0.00419
1475.08324,0.00399
1473.02306,0.00410
1470.96289,0.00458
1468.90272,0.00499
1466.84255,0.00522
1464.78238,0.00535
1462.72220,0.00538
1460.66203,0.00520
1458.60186,0.00483
1456.54169,0.00462
1454.48151,0.00482
1452.42134,0.00518
1450.36117,0.00537
1448.30100,0.00528
1446.24083,0.00522
1444.18065,0.00540
1442.12048,0.00563
1440.06031,0.00562
1438.00014,0.00526
1435.93997,0.00477
1433.87979,0.00460
1431.81962,0.00470
1429.75945,0.00478
1427.69928,0.00478
1425.63910,0.00476
1423.57893,0.00487
1421.51876,0.00523
1419.45859,0.00568
1417.39842,0.00589
1415.33824,0.00579
1413.27807,0.00558
1411.21790,0.00542
1409.15773,0.00536
1407.09756,0.00527
1405.03738,0.00503
1402.97721,0.00480
1400.91704,0.00471
1398.85687,0.00464
1396.79670,0.00455
1394.73652,0.00449
1392.67635,0.00451
1390.61618,0.00451
1388.55601,0.00439
1386.49583,0.00427
1384.43566,0.00434
1382.37549,0.00445
1380.31532,0.00441
1378.25515,0.00419
1376.19497,0.00383
1374.13480,0.00350
1372.07463,0.00337
1370.01446,0.00336
1367.95429,0.00329
1365.89411,0.00320
1363.83394,0.00319
1361.77377,0.00332
1359.71360,0.00349
1357.65343,0.00352
1355.59325,0.00341
1353.53308,0.00324
1351.47291,0.00301
1349.41274,0.00278
1347.35256,0.00266
1345.29239,0.00263
1343.23222,0.00258
1341.17205,0.00248
1339.11188,0.00249
1337.05170,0.00262
1334.99153,0.00260
1332.93136,0.00232
1330.87119,0.00208
1328.81102,0.00210
1326.75084,0.00230
1324.69067,0.00249
1322.63050,0.00263
1320.57033,0.00268
1318.51015,0.00254
1316.44998,0.00229
1314.38981,0.00216
1312.32964,0.00218
1310.26947,0.00214
1308.20929,0.00210
1306.14912,0.00218
1304.08895,0.00226
1302.02878,0.00228
1299.96861,0.00234
1297.90843,0.00259
1295.84826,0.00306
1293.78809,0.00346
1291.72792,0.00358
1289.66775,0.00347
1287.60757,0.00326
1285.54740,0.00306
1283.48723,0.00292
1281.42706,0.00284
1279.36688,0.00283
1277.30671,0.00293
1275.24654,0.00312
1273.18637,0.00339
1271.12620,0.00353
1269.06602,0.00341
1267.00585,0.00326
1264.94568,0.00333
1262.88551,0.00349
1260.82534,0.00350
1258.76516,0.00336
1256.70499,0.00333
1254.64482,0.00358
1252.58465,0.00389
1250.52447,0.00397
1248.46430,0.00383
1246.40413,0.00367
1244.34396,0.00361
1242.28379,0.00359
1240.22361,0.00336
1238.16344,0.00291
1236.10327,0.00270
1234.04310,0.00279
1231.98293,0.00281
1229.92275,0.00275
1227.86258,0.00257
1225.80241,0.00226
1223.74224,0.00204
1221.68207,0.00202
1219.62189,0.00213
1217.56172,0.00203
1215.50155,0.00166
1213.44138,0.00140
1211.38120,0.00140
1209.32103,0.00119
1207.26086,0.00067
1205.20069,0.00033
1203.14052,0.00024
1201.08034,0.00013
1199.02017,0.00000
1196.96000,-0.00002
1194.89983,0.00008
1192.83966,0.00012
1190.77948,0.00004
1188.71931,-0.00002
1186.65914,0.00008
1184.59897,0.00031
1182.53880,0.00036
1180.47862,0.00028
1178.41845,0.00029
1176.35828,0.00029
1174.29811,0.00040
1172.23793,0.00071
1170.17776,0.00117
1168.11759,0.00158
1166.05742,0.00175
1163.99725,0.00169
1161.93707,0.00165
1159.87690,0.00186
1157.81673,0.00220
1155.75656,0.00268
1153.69639,0.00347
1151.63621,0.00428
1149.57604,0.00473
1147.51587,0.00510
1145.45570,0.00578
1143.39552,0.00647
1141.33535,0.00690
1139.27518,0.00736
1137.21501,0.00806
1135.15484,0.00915
1133.09466,0.01046
1131.03449,0.01167
1128.97432,0.01285
1126.91415,0.01396
1124.85398,0.01494
1122.79380,0.01604
1120.73363,0.01760
1118.67346,0.01958
1116.61329,0.02155
1114.55312,0.02306
1112.49294,0.02427
1110.43277,0.02574
1108.37260,0.02761
1106.31243,0.02953
1104.25225,0.03106
1102.19208,0.03218
1100.13191,0.03345
1098.07174,0.03516
1096.01157,0.03684
1093.95139,0.03815
1091.89122,0.03935
1089.83105,0.04072
1087.77088,0.04205
1085.71071,0.04296
1083.65053,0.04361
1081.59036,0.04441
1079.53019,0.04526
1077.47002,0.04600
1075.40985,0.04688
1073.34967,0.04787
1071.28950,0.04856
1069.22933,0.04876
1067.16916,0.04881
1065.10898,0.04892
1063.04881,0.04902
1060.98864,0.04873
1058.92847,0.04794
1056.86830,0.04716
1054.80812,0.04633
1052.74795,0.04514
1050.68778,0.04376
1048.62761,0.04210
1046.56744,0.04022
1044.50726,0.03840
1042.44709,0.03631
1040.38692,0.03385
1038.32675,0.03167
1036.26657,0.03007
1034.20640,0.02851
1032.14623,0.02662
1030.08606,0.02477
1028.02589,0.02308
1025.96571,0.02139
1023.90554,0.01991
1021.84537,0.01875
1019.78520,0.01769
1017.72503,0.01679
1015.66485,0.01627
1013.60468,0.01607
1011.54451,0.01601
1009.48434,0.01619
1007.42417,0.01670
1005.36399,0.01733
1003.30382,0.01821
1001.24365,0.01964
999.18348,0.02147
997.12330,0.02299
995.06313,0.02411
993.00296,0.02542
990.94279,0.02673
988.88262,0.02774
986.82244,0.02862
984.76227,0.02918
982.70210,0.02905
980.64193,0.02873
978.58176,0.02858
976.52158,0.02813
974.46141,0.02722
972.40124,0.02613
970.34107,0.02515
968.28089,0.02404
966.22072,0.02252
964.16055,0.02083
962.10038,0.01918
960.04021,0.01781
957.98003,0.01641
955.91986,0.01452
953.85969,0.01293
951.79952,0.01209
949.73935,0.01120
947.67917,0.00988
945.61900,0.00861
943.55883,0.00794
941.49866,0.00750
939.43849,0.00654
937.37831,0.00535
935.31814,0.00450
933.25797,0.00386
931.19780,0.00337
929.13762,0.00299
927.07745,0.00252
925.01728,0.00228
922.95711,0.00232
920.89694,0.00196
918.83676,0.00117
916.77659,0.00037
914.71642,0.00000
912.65625,0.00036
910.59608,0.00078
908.53590,0.00084
906.47573,0.00107
904.41556,0.00155
902.35539,0.00193
900.29522,0.00212
898.23504,0.00193
896.17487,0.00138
894.11470,0.00131
892.05453,0.00191
889.99435,0.00259
887.93418,0.00302
885.87401,0.00308
883.81384,0.00309
881.75367,0.00373
879.69349,0.00503
877.63332,0.00632
875.57315,0.00699
873.51298,0.00717
871.45281,0.00766
869.39263,0.00877
867.33246,0.00967
865.27229,0.00997
863.21212,0.01028
861.15194,0.01100
859.09177,0.01167
857.03160,0.01146
854.97143,0.01077
852.91126,0.01085
850.85108,0.01119
848.79091,0.01081
846.73074,0.01022
844.67057,0.00998
842.61040,0.01000
840.55022,0.01011
838.49005,0.00995
836.42988,0.00906
834.36971,0.00774
832.30954,0.00715
830.24936,0.00769
828.18919,0.00811
826.12902,0.00754
824.06885,0.00677
822.00867,0.00689
819.94850,0.00713
817.88833,0.00622
815.82816,0.00510
813.76799,0.00464
811.70781,0.00390
809.64764,0.00317
807.58747,0.00334
805.52730,0.00353
803.46713,0.00325
801.40695,0.00323
799.34678,0.00360
797.28661,0.00378
795.22644,0.00357
793.16627,0.00350
791.10609,0.00385
789.04592,0.00384
786.98575,0.00337
784.92558,0.00325
782.86540,0.00325
780.80523,0.00295
778.74506,0.00270
776.68489,0.00262
774.62472,0.00241
772.56454,0.00222
770.50437,0.00252
768.44420,0.00332
766.38403,0.00380
764.32386,0.00344
762.26368,0.00326
760.20351,0.00346
758.14334,0.00273
756.08317,0.00193
754.02299,0.00253
751.96282,0.00299
749.90265,0.00251
747.84248,0.00229
745.78231,0.00262
743.72213,0.00347
741.66196,0.00474
739.60179,0.00523
737.54162,0.00423
735.48145,0.00279
733.42127,0.00206
731.36110,0.00219
729.30093,0.00293
727.24076,0.00336
725.18059,0.00308
723.12041,0.00312
721.06024,0.00352
719.00007,0.00313
716.93990,0.00273
714.87972,0.00325
712.81955,0.00440
710.75938,0.00513
708.69921,0.00488
706.63904,0.00455
704.57886,0.00434
702.51869,0.00354
700.45852,0.00312
698.39835,0.00400
696.33818,0.00477
694.27800,0.00417
692.21783,0.00289
690.15766,0.00194
688.09749,0.00193
686.03731,0.00321
683.97714,0.00486
681.91697,0.00487
679.85680,0.00280
677.79663,0.00152
675.73645,0.00310
673.67628,0.00506
671.61611,0.00503
669.55594,0.00561
667.49577,0.00570
665.43559,0.00249
663.37542,0.00426
661.31525,0.00643
659.25508,0.00648
657.19491,0.00608
655.13473,0.00639
653.07456,0.00721
651.01439,0.00803
648.95422,0.00882
646.89404,0.00962
644.83387,0.00965
642.77370,0.00787
640.71353,0.00499
638.65336,0.00358
636.59318,0.00495
634.53301,0.00673
632.47284,0.00652
630.41267,0.00444
628.35250,0.00192
626.29232,0.00078
624.23215,0.00143
622.17198,0.00107
620.11181,0.00000
618.05164,0.00038
615.99146,0.00281
613.93129,0.00440
611.87112,0.00358
609.81095,0.00137
607.75077,0.00097
605.69060,0.00330
603.63043,0.00511
601.57026,0.00403
599.51009,0.00000
