3996.73391,0.00078
3994.67373,0.00065
3992.61356,0.00049
3990.55339,0.00035
3988.49322,0.00029
3986.43305,0.00037
3984.37287,0.00041
3982.31270,0.00029
3980.25253,0.00021
3978.19236,0.00024
3976.13219,0.00021
3974.07201,0.00006
3972.01184,0.00000
3969.95167,0.00016
3967.89150,0.00042
3965.83133,0.00066
3963.77115,0.00081
3961.71098,0.00078
3959.65081,0.00062
3957.59064,0.00046
3955.53046,0.00041
3953.47029,0.00053
3951.41012,0.00076
3949.34995,0.00087
3947.28978,0.00076
3945.22960,0.00068
3943.16943,0.00075
3941.10926,0.00072
3939.04909,0.00056
3936.98892,0.00047
3934.92874,0.00043
3932.86857,0.00046
3930.80840,0.00068
3928.74823,0.00090
3926.68805,0.00079
3924.62788,0.00056
3922.56771,0.00056
3920.50754,0.00066
3918.44737,0.00069
3916.38719,0.00071
3914.32702,0.00078
3912.26685,0.00097
3910.20668,0.00119
3908.14651,0.00125
3906.08633,0.00125
3904.02616,0.00137
3901.96599,0.00141
3899.90582,0.00125
3897.84565,0.00125
3895.78547,0.00132
3893.72530,0.00127
3891.66513,0.00124
3889.60496,0.00123
3887.54478,0.00131
3885.48461,0.00160
3883.42444,0.00172
3881.36427,0.00147
3879.30410,0.00113
3877.24392,0.00076
3875.18375,0.00057
3873.12358,0.00082
3871.06341,0.00133
3869.00324,0.00164
3866.94306,0.00149
3864.88289,0.00120
3862.82272,0.00120
3860.76255,0.00127
3858.70237,0.00112
3856.64220,0.00096
3854.58203,0.00116
3852.52186,0.00182
3850.46169,0.00207
3848.40151,0.00164
3846.34134,0.00096
3844.28117,0.00059
3842.22100,0.00082
3840.16083,0.00132
3838.10065,0.00174
3836.04048,0.00198
3833.98031,0.00213
3831.92014,0.00223
3829.85997,0.00207
3827.79979,0.00164
3825.73962,0.00127
3823.67945,0.00109
3821.61928,0.00122
3819.55910,0.00133
3817.49893,0.00096
3815.43876,0.00068
3813.37859,0.00075
3811.31842,0.00064
3809.25824,0.00040
3807.19807,0.00055
3805.13790,0.00111
3803.07773,0.00150
3801.01756,0.00147
3798.95738,0.00112
3796.89721,0.00091
3794.83704,0.00107
3792.77687,0.00131
3790.71670,0.00147
3788.65652,0.00155
3786.59635,0.00150
3784.53618,0.00140
3782.47601,0.00134
3780.41583,0.00130
3778.35566,0.00126
3776.29549,0.00127
3774.23532,0.00131
3772.17515,0.00138
3770.11497,0.00152
3768.05480,0.00160
3765.99463,0.00144
3763.93446,0.00110
3761.87429,0.00092
3759.81411,0.00116
3757.75394,0.00148
3755.69377,0.00134
3753.63360,0.00104
3751.57342,0.00129
3749.51325,0.00229
3747.45308,0.00310
3745.39291,0.00349
3743.33274,0.00359
3741.27256,0.00334
3739.21239,0.00325
3737.15222,0.00368
3735.09205,0.00379
3733.03188,0.00292
3730.97170,0.00237
3728.91153,0.00270
3726.85136,0.00310
3724.79119,0.00296
3722.73102,0.00255
3720.67084,0.00233
3718.61067,0.00230
3716.55050,0.00236
3714.49033,0.00219
3712.43015,0.00174
3710.36998,0.00167
3708.30981,0.00211
3706.24964,0.00259
3704.18947,0.00282
3702.12929,0.00277
3700.06912,0.00243
3698.00895,0.00202
3695.94878,0.00198
3693.88861,0.00204
3691.82843,0.00173
3689.76826,0.00167
3687.70809,0.00231
3685.64792,0.00269
3683.58775,0.00256
3681.52757,0.00234
3679.46740,0.00230
3677.40723,0.00236
3675.34706,0.00252
3673.28688,0.00262
3671.22671,0.00269
3669.16654,0.00318
3667.10637,0.00370
3665.04620,0.00366
3662.98602,0.00333
3660.92585,0.00311
3658.86568,0.00310
3656.80551,0.00342
3654.74534,0.00392
3652.68516,0.00406
3650.62499,0.00431
3648.56482,0.00539
3646.50465,0.00616
3644.44447,0.00596
3642.38430,0.00535
3640.32413,0.00497
3638.26396,0.00513
3636.20379,0.00567
3634.14361,0.00605
3632.08344,0.00604
3630.02327,0.00611
3627.96310,0.00658
3625.90293,0.00690
3623.84275,0.00688
3621.78258,0.00685
3619.72241,0.00713
3617.66224,0.00770
3615.60207,0.00828
3613.54189,0.00874
3611.48172,0.00890
3609.42155,0.00917
3607.36138,0.00997
3605.30120,0.01068
3603.24103,0.01061
3601.18086,0.01006
3599.12069,0.00985
3597.06052,0.01016
3595.00034,0.01065
3592.94017,0.01124
3590.88000,0.01169
3588.81983,0.01162
3586.75966,0.01113
3584.69948,0.01078
3582.63931,0.01101
3580.57914,0.01157
3578.51897,0.01191
3576.45879,0.01200
3574.39862,0.01207
3572.33845,0.01215
3570.27828,0.01233
3568.21811,0.01272
3566.15793,0.01323
3564.09776,0.01373
3562.03759,0.01420
3559.97742,0.01455
3557.91725,0.01460
3555.85707,0.01443
3553.79690,0.01437
3551.73673,0.01467
3549.67656,0.01515
3547.61639,0.01562
3545.55621,0.01599
3543.49604,0.01599
3541.43587,0.01566
3539.37570,0.01559
3537.31552,0.01591
3535.25535,0.01607
3533.19518,0.01593
3531.13501,0.01614
3529.07484,0.01692
3527.01466,0.01778
3524.95449,0.01811
3522.89432,0.01776
3520.83415,0.01719
3518.77398,0.01697
3516.71380,0.01720
3514.65363,0.01772
3512.59346,0.01838
3510.53329,0.01900
3508.47312,0.01921
3506.41294,0.01899
3504.35277,0.01888
3502.29260,0.01914
3500.23243,0.01923
3498.17225,0.01899
3496.11208,0.01904
3494.05191,0.01960
3491.99174,0.02013
3489.93157,0.02033
3487.87139,0.02046
3485.81122,0.02066
3483.75105,0.02079
3481.69088,0.02081
3479.63071,0.02086
3477.57053,0.02111
3475.51036,0.02143
3473.45019,0.02141
3471.39002,0.02145
3469.32984,0.02199
3467.26967,0.02255
3465.20950,0.02276
3463.14933,0.02287
3461.08916,0.02285
3459.02898,0.02278
3456.96881,0.02295
3454.90864,0.02319
3452.84847,0.02333
3450.78830,0.02344
3448.72812,0.02331
3446.66795,0.02284
3444.60778,0.02258
3442.54761,0.02285
3440.48744,0.02337
3438.42726,0.02386
3436.36709,0.02414
3434.30692,0.02416
3432.24675,0.02428
3430.18657,0.02472
3428.12640,0.02505
3426.06623,0.02522
3424.00606,0.02547
3421.94589,0.02574
3419.88571,0.02613
3417.82554,0.02631
3415.76537,0.02589
3413.70520,0.02537
3411.64503,0.02538
3409.58485,0.02579
3407.52468,0.02600
3405.46451,0.02615
3403.40434,0.02656
3401.34416,0.02668
3399.28399,0.02658
3397.22382,0.02652
3395.16365,0.02660
3393.10348,0.02676
3391.04330,0.02707
3388.98313,0.02723
3386.92296,0.02709
3384.86279,0.02700
3382.80262,0.02700
3380.74244,0.02690
3378.68227,0.02698
3376.62210,0.02739
3374.56193,0.02769
3372.50176,0.02756
3370.44158,0.02722
3368.38141,0.02710
3366.32124,0.02739
3364.26107,0.02774
3362.20089,0.02782
3360.14072,0.02767
3358.08055,0.02742
3356.02038,0.02732
3353.96021,0.02756
3351.90003,0.02791
3349.83986,0.02795
3347.77969,0.02771
3345.71952,0.02764
3343.65935,0.02793
3341.59917,0.02824
3339.53900,0.02836
3337.47883,0.02831
3335.41866,0.02808
3333.35849,0.02798
3331.29831,0.02815
3329.23814,0.02839
3327.17797,0.02852
3325.11780,0.02850
3323.05762,0.02832
3320.99745,0.02813
3318.93728,0.02812
3316.87711,0.02838
3314.81694,0.02883
3312.75676,0.02896
3310.69659,0.02862
3308.63642,0.02830
3306.57625,0.02830
3304.51608,0.02846
3302.45590,0.02860
3300.39573,0.02881
3298.33556,0.02905
3296.27539,0.02906
3294.21521,0.02878
3292.15504,0.02858
3290.09487,0.02885
3288.03470,0.02939
3285.97453,0.02959
3283.91435,0.02931
3281.85418,0.02899
3279.79401,0.02895
3277.73384,0.02904
3275.67367,0.02904
3273.61349,0.02901
3271.55332,0.02896
3269.49315,0.02887
3267.43298,0.02874
3265.37281,0.02863
3263.31263,0.02862
3261.25246,0.02861
3259.19229,0.02866
3257.13212,0.02901
3255.07194,0.02917
3253.01177,0.02871
3250.95160,0.02838
3248.89143,0.02870
3246.83126,0.02907
3244.77108,0.02903
3242.71091,0.02877
3240.65074,0.02860
3238.59057,0.02883
3236.53040,0.02931
3234.47022,0.02945
3232.41005,0.02919
3230.34988,0.02913
3228.28971,0.02928
3226.22954,0.02923
3224.16936,0.02901
3222.10919,0.02884
3220.04902,0.02876
3217.98885,0.02874
3215.92867,0.02876
3213.86850,0.02874
3211.80833,0.02858
3209.74816,0.02843
3207.68799,0.02833
3205.62781,0.02820
3203.56764,0.02829
3201.50747,0.02858
3199.44730,0.02869
3197.38713,0.02849
3195.32695,0.02816
3193.26678,0.02800
3191.20661,0.02805
3189.14644,0.02812
3187.08626,0.02800
3185.02609,0.02790
3182.96592,0.02797
3180.90575,0.02790
3178.84558,0.02770
3176.78540,0.02771
3174.72523,0.02793
3172.66506,0.02820
3170.60489,0.02828
3168.54472,0.02803
3166.48454,0.02766
3164.42437,0.02730
3162.36420,0.02711
3160.30403,0.02723
3158.24386,0.02727
3156.18368,0.02698
3154.12351,0.02669
3152.06334,0.02662
3150.00317,0.02669
3147.94299,0.02683
3145.88282,0.02692
3143.82265,0.02680
3141.76248,0.02652
3139.70231,0.02630
3137.64213,0.02625
3135.58196,0.02635
3133.52179,0.02656
3131.46162,0.02655
3129.40145,0.02618
3127.34127,0.02593
3125.28110,0.02599
3123.22093,0.02602
3121.16076,0.02591
3119.10058,0.02589
3117.04041,0.02601
3114.98024,0.02600
3112.92007,0.02570
3110.85990,0.02533
3108.79972,0.02526
3106.73955,0.02548
3104.67938,0.02552
3102.61921,0.02529
3100.55904,0.02525
3098.49886,0.02534
3096.43869,0.02519
3094.37852,0.02491
3092.31835,0.02469
3090.25818,0.02459
3088.19800,0.02457
3086.13783,0.02450
3084.07766,0.02455
3082.01749,0.02476
3079.95731,0.02476
3077.89714,0.02443
3075.83697,0.02406
3073.77680,0.02376
3071.71663,0.02347
3069.65645,0.02337
3067.59628,0.02353
3065.53611,0.02366
3063.47594,0.02345
3061.41577,0.02317
3059.35559,0.02315
3057.29542,0.02310
3055.23525,0.02290
3053.17508,0.02291
3051.11491,0.02317
3049.05473,0.02343
3046.99456,0.02342
3044.93439,0.02318
3042.87422,0.02293
3040.81404,0.02280
3038.75387,0.02274
3036.69370,0.02269
3034.63353,0.02250
3032.57336,0.02230
3030.51318,0.02224
3028.45301,0.02218
3026.39284,0.02202
3024.33267,0.02191
3022.27250,0.02209
3020.21232,0.02222
3018.15215,0.02207
3016.09198,0.02190
3014.03181,0.02182
3011.97163,0.02180
3009.91146,0.02179
3007.85129,0.02168
3005.79112,0.02150
3003.73095,0.02136
3001.67077,0.02133
2999.61060,0.02136
2997.55043,0.02132
2995.49026,0.02122
2993.43009,0.02110
2991.36991,0.02105
2989.30974,0.02114
2987.24957,0.02122
2985.18940,0.02122
2983.12923,0.02126
2981.06905,0.02146
2979.00888,0.02163
2976.94871,0.02152
2974.88854,0.02124
2972.82836,0.02100
2970.76819,0.02070
2968.70802,0.02065
2966.64785,0.02099
2964.58768,0.02124
2962.52750,0.02116
2960.46733,0.02094
2958.40716,0.02075
2956.34699,0.02056
2954.28682,0.02031
2952.22664,0.02019
2950.16647,0.02018
2948.10630,0.02009
2946.04613,0.01999
2943.98596,0.01995
2941.92578,0.02000
2939.86561,0.02010
2937.80544,0.02010
2935.74527,0.01994
2933.68509,0.01979
2931.62492,0.01981
2929.56475,0.01981
2927.50458,0.01972
2925.44441,0.01967
2923.38423,0.01950
2921.32406,0.01920
2919.26389,0.01901
2917.20372,0.01904
2915.14355,0.01917
2913.08337,0.01916
2911.02320,0.01899
2908.96303,0.01877
2906.90286,0.01855
2904.84268,0.01849
2902.78251,0.01859
2900.72234,0.01846
2898.66217,0.01814
2896.60200,0.01797
2894.54182,0.01785
2892.48165,0.01764
2890.42148,0.01750
2888.36131,0.01753
2886.30114,0.01766
2884.24096,0.01769
2882.18079,0.01759
2880.12062,0.01749
2878.06045,0.01746
2876.00028,0.01745
2873.94010,0.01724
2871.87993,0.01687
2869.81976,0.01668
2867.75959,0.01678
2865.69941,0.01684
2863.63924,0.01669
2861.57907,0.01643
2859.51890,0.01628
2857.45873,0.01632
2855.39855,0.01633
2853.33838,0.01608
2851.27821,0.01582
2849.21804,0.01561
2847.15787,0.01528
2845.09769,0.01503
2843.03752,0.01481
2840.97735,0.01461
2838.91718,0.01453
2836.85700,0.01450
2834.79683,0.01440
2832.73666,0.01414
2830.67649,0.01371
2828.61632,0.01346
2826.55614,0.01369
2824.49597,0.01395
2822.43580,0.01375
2820.37563,0.01345
2818.31546,0.01346
2816.25528,0.01346
2814.19511,0.01332
2812.13494,0.01333
2810.07477,0.01331
2808.01460,0.01304
2805.95442,0.01287
2803.89425,0.01288
2801.83408,0.01281
2799.77391,0.01262
2797.71373,0.01254
2795.65356,0.01252
2793.59339,0.01238
2791.53322,0.01220
2789.47305,0.01209
2787.41287,0.01208
2785.35270,0.01217
2783.29253,0.01219
2781.23236,0.01196
2779.17219,0.01169
2777.11201,0.01171
2775.05184,0.01182
2772.99167,0.01171
2770.93150,0.01143
2768.87133,0.01134
2766.81115,0.01148
2764.75098,0.01158
2762.69081,0.01164
2760.63064,0.01169
2758.57046,0.01162
2756.51029,0.01142
2754.45012,0.01125
2752.38995,0.01122
2750.32978,0.01134
2748.26960,0.01141
2746.20943,0.01139
2744.14926,0.01136
2742.08909,0.01119
2740.02892,0.01080
2737.96874,0.01046
2735.90857,0.01037
2733.84840,0.01033
2731.78823,0.01037
2729.72805,0.01066
2727.66788,0.01090
2725.60771,0.01076
2723.54754,0.01042
2721.48737,0.01014
2719.42719,0.00996
2717.36702,0.00987
2715.30685,0.00993
2713.24668,0.01014
2711.18651,0.01026
2709.12633,0.01012
2707.06616,0.00982
2705.00599,0.00967
2702.94582,0.00971
2700.88565,0.00967
2698.82547,0.00966
2696.76530,0.00979
2694.70513,0.00973
2692.64496,0.00943
2690.58478,0.00933
2688.52461,0.00950
2686.46444,0.00953
2684.40427,0.00928
2682.34410,0.00907
2680.28392,0.00911
2678.22375,0.00937
2676.16358,0.00961
2674.10341,0.00965
2672.04324,0.00947
2669.98306,0.00913
2667.92289,0.00884
2665.86272,0.00877
2663.80255,0.00888
2661.74238,0.00900
2659.68220,0.00907
2657.62203,0.00909
2655.56186,0.00913
2653.50169,0.00913
2651.44151,0.00898
2649.38134,0.00880
2647.32117,0.00863
2645.26100,0.00863
2643.20083,0.00893
2641.14065,0.00908
2639.08048,0.00898
2637.02031,0.00883
2634.96014,0.00865
2632.89997,0.00852
2630.83979,0.00835
2628.77962,0.00812
2626.71945,0.00798
2624.65928,0.00784
2622.59910,0.00773
2620.53893,0.00791
2618.47876,0.00806
2616.41859,0.00774
2614.35842,0.00743
2612.29824,0.00769
2610.23807,0.00813
2608.17790,0.00812
2606.11773,0.00789
2604.05756,0.00776
2601.99738,0.00762
2599.93721,0.00756
2597.87704,0.00761
2595.81687,0.00763
2593.75670,0.00763
2591.69652,0.00760
2589.63635,0.00741
2587.57618,0.00717
2585.51601,0.00703
2583.45583,0.00701
2581.39566,0.00704
2579.33549,0.00709
2577.27532,0.00733
2575.21515,0.00742
2573.15497,0.00716
2571.09480,0.00696
2569.03463,0.00716
2566.97446,0.00748
2564.91429,0.00751
2562.85411,0.00741
2560.79394,0.00719
2558.73377,0.00689
2556.67360,0.00682
2554.61342,0.00678
2552.55325,0.00673
2550.49308,0.00674
2548.43291,0.00669
2546.37274,0.00697
2544.31256,0.00751
2542.25239,0.00774
2540.19222,0.00747
2538.13205,0.00722
2536.07188,0.00740
2534.01170,0.00746
2531.95153,0.00721
2529.89136,0.00710
2527.83119,0.00709
2525.77102,0.00686
2523.71084,0.00668
2521.65067,0.00661
2519.59050,0.00637
2517.53033,0.00612
2515.47015,0.00608
2513.40998,0.00638
2511.34981,0.00688
2509.28964,0.00708
2507.22947,0.00722
2505.16929,0.00747
2503.10912,0.00737
2501.04895,0.00713
2498.98878,0.00722
2496.92861,0.00724
2494.86843,0.00686
2492.80826,0.00667
2490.74809,0.00699
2488.68792,0.00732
2486.62775,0.00747
2484.56757,0.00752
2482.50740,0.00728
2480.44723,0.00710
2478.38706,0.00741
2476.32688,0.00774
2474.26671,0.00758
2472.20654,0.00718
2470.14637,0.00705
2468.08620,0.00729
2466.02602,0.00753
2463.96585,0.00754
2461.90568,0.00756
2459.84551,0.00766
2457.78534,0.00753
2455.72516,0.00724
2453.66499,0.00714
2451.60482,0.00726
2449.54465,0.00738
2447.48447,0.00759
2445.42430,0.00794
2443.36413,0.00806
2441.30396,0.00785
2439.24379,0.00763
2437.18361,0.00756
2435.12344,0.00741
2433.06327,0.00704
2431.00310,0.00681
2428.94293,0.00700
2426.88275,0.00746
2424.82258,0.00795
2422.76241,0.00810
2420.70224,0.00772
2418.64207,0.00725
2416.58189,0.00735
2414.52172,0.00779
2412.46155,0.00797
2410.40138,0.00777
2408.34120,0.00742
2406.28103,0.00724
2404.22086,0.00700
2402.16069,0.00675
2400.10052,0.00701
2398.04034,0.00696
2395.98017,0.00723
2393.92000,0.00731
2391.85983,0.00727
2389.79966,0.00765
2387.73948,0.00857
2385.67931,0.00953
2383.61914,0.00994
2381.55897,0.00995
2379.49880,0.01034
2377.43862,0.01126
2375.37845,0.01176
2373.31828,0.01165
2371.25811,0.01170
2369.19793,0.01207
2367.13776,0.01258
2365.07759,0.01235
2363.01742,0.00962
2360.95725,0.00610
2358.89707,0.00544
2356.83690,0.00811
2354.77673,0.01125
2352.71656,0.01235
2350.65639,0.01257
2348.59621,0.01284
2346.53604,0.01243
2344.47587,0.01132
2342.41570,0.01108
2340.35552,0.01194
2338.29535,0.01229
2336.23518,0.01156
2334.17501,0.01056
2332.11484,0.01036
2330.05466,0.01132
2327.99449,0.01247
2325.93432,0.01304
2323.87415,0.01286
2321.81398,0.01228
2319.75380,0.01215
2317.69363,0.01244
2315.63346,0.01227
2313.57329,0.01144
2311.51312,0.01073
2309.45294,0.01042
2307.39277,0.01026
2305.33260,0.01031
2303.27243,0.01030
2301.21225,0.00991
2299.15208,0.00946
2297.09191,0.00932
2295.03174,0.00949
2292.97157,0.00983
2290.91139,0.01009
2288.85122,0.01001
2286.79105,0.00947
2284.73088,0.00873
2282.67071,0.00806
2280.61053,0.00752
2278.55036,0.00732
2276.49019,0.00776
2274.43002,0.00830
2272.36984,0.00813
2270.30967,0.00756
2268.24950,0.00731
2266.18933,0.00737
2264.12916,0.00745
2262.06898,0.00746
2260.00881,0.00734
2257.94864,0.00721
2255.88847,0.00735
2253.82830,0.00765
2251.76812,0.00757
2249.70795,0.00674
2247.64778,0.00616
2245.58761,0.00663
2243.52744,0.00749
2241.46726,0.00746
2239.40709,0.00689
2237.34692,0.00656
2235.28675,0.00621
2233.22657,0.00588
2231.16640,0.00602
2229.10623,0.00669
2227.04606,0.00720
2224.98589,0.00680
2222.92571,0.00634
2220.86554,0.00645
2218.80537,0.00645
2216.74520,0.00632
2214.68503,0.00608
2212.62485,0.00547
2210.56468,0.00504
2208.50451,0.00556
2206.44434,0.00665
2204.38417,0.00706
2202.32399,0.00653
2200.26382,0.00616
2198.20365,0.00669
2196.14348,0.00741
2194.08330,0.00777
2192.02313,0.00772
2189.96296,0.00726
2187.90279,0.00655
2185.84262,0.00619
2183.78244,0.00656
2181.72227,0.00690
2179.66210,0.00643
2177.60193,0.00561
2175.54176,0.00547
2173.48158,0.00682
2171.42141,0.00868
2169.36124,0.00842
2167.30107,0.00635
2165.24089,0.00519
2163.18072,0.00451
2161.12055,0.00300
2159.06038,0.00142
2157.00021,0.00034
2154.94003,0.00039
2152.87986,0.00145
2150.81969,0.00250
2148.75952,0.00358
2146.69935,0.00449
2144.63917,0.00477
2142.57900,0.00487
2140.51883,0.00523
2138.45866,0.00529
2136.39849,0.00472
2134.33831,0.00417
2132.27814,0.00397
2130.21797,0.00425
2128.15780,0.00534
2126.09762,0.00651
2124.03745,0.00668
2121.97728,0.00640
2119.91711,0.00648
2117.85694,0.00636
2115.79676,0.00592
2113.73659,0.00591
2111.67642,0.00628
2109.61625,0.00634
2107.55608,0.00586
2105.49590,0.00557
2103.43573,0.00604
2101.37556,0.00650
2099.31539,0.00628
2097.25521,0.00590
2095.19504,0.00581
2093.13487,0.00616
2091.07470,0.00660
2089.01453,0.00680
2086.95435,0.00629
2084.89418,0.00564
2082.83401,0.00607
2080.77384,0.00703
2078.71367,0.00748
2076.65349,0.00725
2074.59332,0.00643
2072.53315,0.00564
2070.47298,0.00537
2068.41281,0.00536
2066.35263,0.00556
2064.29246,0.00595
2062.23229,0.00626
2060.17212,0.00642
2058.11194,0.00627
2056.05177,0.00583
2053.99160,0.00516
2051.93143,0.00419
2049.87126,0.00380
2047.81108,0.00464
2045.75091,0.00522
2043.69074,0.00405
2041.63057,0.00224
2039.57040,0.00192
2037.51022,0.00284
2035.45005,0.00372
2033.38988,0.00486
2031.32971,0.00608
2029.26954,0.00641
2027.20936,0.00593
2025.14919,0.00493
2023.08902,0.00404
2021.02885,0.00384
2018.96867,0.00319
2016.90850,0.00134
2014.84833,0.00000
2012.78816,0.00031
2010.72799,0.00158
2008.66781,0.00292
2006.60764,0.00342
2004.54747,0.00264
2002.48730,0.00198
2000.42713,0.00322
1998.36695,0.00555
1996.30678,0.00669
1994.24661,0.00613
1992.18644,0.00544
1990.12626,0.00578
1988.06609,0.00633
1986.00592,0.00649
1983.94575,0.00646
1981.88558,0.00564
1979.82540,0.00416
1977.76523,0.00390
1975.70506,0.00439
1973.64489,0.00371
1971.58472,0.00292
1969.52454,0.00357
1967.46437,0.00445
1965.40420,0.00454
1963.34403,0.00470
1961.28386,0.00495
1959.22368,0.00463
1957.16351,0.00388
1955.10334,0.00366
1953.04317,0.00432
1950.98299,0.00507
1948.92282,0.00522
1946.86265,0.00460
1944.80248,0.00366
1942.74231,0.00342
1940.68213,0.00407
1938.62196,0.00460
1936.56179,0.00429
1934.50162,0.00389
1932.44145,0.00386
1930.38127,0.00354
1928.32110,0.00336
1926.26093,0.00381
1924.20076,0.00409
1922.14059,0.00387
1920.08041,0.00368
1918.02024,0.00427
1915.96007,0.00518
1913.89990,0.00524
1911.83972,0.00447
1909.77955,0.00379
1907.71938,0.00384
1905.65921,0.00418
1903.59904,0.00422
1901.53886,0.00407
1899.47869,0.00407
1897.41852,0.00414
1895.35835,0.00400
1893.29818,0.00381
1891.23800,0.00404
1889.17783,0.00462
1887.11766,0.00498
1885.05749,0.00506
1882.99731,0.00494
1880.93714,0.00459
1878.87697,0.00423
1876.81680,0.00395
1874.75663,0.00356
1872.69645,0.00303
1870.63628,0.00277
1868.57611,0.00329
1866.51594,0.00399
1864.45577,0.00409
1862.39559,0.00383
1860.33542,0.00374
1858.27525,0.00408
1856.21508,0.00455
1854.15491,0.00461
1852.09473,0.00423
1850.03456,0.00385
1847.97439,0.00377
1845.91422,0.00395
1843.85404,0.00428
1841.79387,0.00456
1839.73370,0.00465
1837.67353,0.00466
1835.61336,0.00468
1833.55318,0.00453
1831.49301,0.00417
1829.43284,0.00380
1827.37267,0.00359
1825.31250,0.00359
1823.25232,0.00375
1821.19215,0.00399
1819.13198,0.00418
1817.07181,0.00418
1815.01163,0.00402
1812.95146,0.00404
1810.89129,0.00421
1808.83112,0.00428
1806.77095,0.00436
1804.71077,0.00459
1802.65060,0.00481
1800.59043,0.00494
1798.53026,0.00500
1796.47009,0.00486
1794.40991,0.00451
1792.34974,0.00441
1790.28957,0.00470
1788.22940,0.00492
1786.16923,0.00497
1784.10905,0.00494
1782.04888,0.00486
1779.98871,0.00479
1777.92854,0.00459
1775.86836,0.00427
1773.80819,0.00414
1771.74802,0.00442
1769.68785,0.00489
1767.62768,0.00514
1765.56750,0.00510
1763.50733,0.00503
1761.44716,0.00509
1759.38699,0.00521
1757.32682,0.00535
1755.26664,0.00539
1753.20647,0.00526
1751.14630,0.00521
1749.08613,0.00554
1747.02596,0.00608
1744.96578,0.00635
1742.90561,0.00604
1740.84544,0.00558
1738.78527,0.00546
1736.72509,0.00557
1734.66492,0.00588
1732.60475,0.00645
1730.54458,0.00667
1728.48441,0.00649
1726.42423,0.00635
1724.36406,0.00640
1722.30389,0.00644
1720.24372,0.00629
1718.18355,0.00627
1716.12337,0.00681
1714.06320,0.00741
1712.00303,0.00772
1709.94286,0.00781
1707.88268,0.00781
1705.82251,0.00795
1703.76234,0.00810
1701.70217,0.00793
1699.64200,0.00798
1697.58182,0.00875
1695.52165,0.00973
1693.46148,0.01039
1691.40131,0.01080
1689.34114,0.01111
1687.28096,0.01122
1685.22079,0.01140
1683.16062,0.01242
1681.10045,0.01362
1679.04028,0.01402
1676.98010,0.01393
1674.91993,0.01400
1672.85976,0.01429
1670.79959,0.01477
1668.73941,0.01560
1666.67924,0.01641
1664.61907,0.01688
1662.55890,0.01737
1660.49873,0.01796
1658.43855,0.01828
1656.37838,0.01812
1654.31821,0.01784
1652.25804,0.01807
1650.19787,0.01853
1648.13769,0.01876
1646.07752,0.01880
1644.01735,0.01877
1641.95718,0.01860
1639.89701,0.01825
1637.83683,0.01761
1635.77666,0.01691
1633.71649,0.01668
1631.65632,0.01678
1629.59614,0.01663
1627.53597,0.01611
1625.47580,0.01546
1623.41563,0.01493
1621.35546,0.01455
1619.29528,0.01399
1617.23511,0.01322
1615.17494,0.01294
1613.11477,0.01312
1611.05460,0.01309
1608.99442,0.01274
1606.93425,0.01237
1604.87408,0.01205
1602.81391,0.01175
1600.75373,0.01153
1598.69356,0.01136
1596.63339,0.01116
1594.57322,0.01099
1592.51305,0.01088
1590.45287,0.01073
1588.39270,0.01042
1586.33253,0.01019
1584.27236,0.01020
1582.21219,0.01018
1580.15201,0.00993
1578.09184,0.00965
1576.03167,0.00954
1573.97150,0.00951
1571.91133,0.00929
1569.85115,0.00901
1567.79098,0.00902
1565.73081,0.00917
1563.67064,0.00914
1561.61046,0.00887
1559.55029,0.00875
1557.49012,0.00926
1555.42995,0.00982
1553.36978,0.01003
1551.30960,0.00997
1549.24943,0.00973
1547.18926,0.00942
1545.12909,0.00927
1543.06892,0.00921
1541.00874,0.00902
1538.94857,0.00883
1536.88840,0.00881
1534.82823,0.00878
1532.76805,0.00872
1530.70788,0.00872
1528.64771,0.00871
1526.58754,0.00862
1524.52737,0.00840
1522.46719,0.00797
1520.40702,0.00752
1518.34685,0.00739
1516.28668,0.00759
1514.22651,0.00781
1512.16633,0.00785
1510.10616,0.00766
1508.04599,0.00720
1505.98582,0.00669
1503.92565,0.00648
1501.86547,0.00643
1499.80530,0.00612
1497.74513,0.00566
1495.68496,0.00546
1493.62478,0.00546
1491.56461,0.00538
1489.50444,0.00521
1487.44427,0.00498
1485.38410,0.00483
1483.32392,0.00490
1481.26375,0.00508
1479.20358,0.00517
1477.14341,0.00513
1475.08324,0.00502
1473.02306,0.00500
1470.96289,0.00515
1468.90272,0.00529
1466.84255,0.00531
1464.78238,0.00532
1462.72220,0.00542
1460.66203,0.00549
1458.60186,0.00550
1456.54169,0.00547
1454.48151,0.00542
1452.42134,0.00539
1450.36117,0.00528
1448.30100,0.00515
1446.24083,0.00512
1444.18065,0.00516
1442.12048,0.00521
1440.06031,0.00526
1438.00014,0.00530
1435.93997,0.00534
1433.87979,0.00519
1431.81962,0.00491
1429.75945,0.00473
1427.69928,0.00474
1425.63910,0.00492
1423.57893,0.00526
1421.51876,0.00571
1419.45859,0.00614
1417.39842,0.00621
1415.33824,0.00587
1413.27807,0.00560
1411.21790,0.00558
1409.15773,0.00559
1407.09756,0.00558
1405.03738,0.00557
1402.97721,0.00551
1400.91704,0.00549
1398.85687,0.00564
1396.79670,0.00580
1394.73652,0.00570
1392.67635,0.00542
1390.61618,0.00517
1388.55601,0.00502
1386.49583,0.00493
1384.43566,0.00482
1382.37549,0.00469
1380.31532,0.00464
1378.25515,0.00463
1376.19497,0.00462
1374.13480,0.00453
1372.07463,0.00438
1370.01446,0.00427
1367.95429,0.00426
1365.89411,0.00431
1363.83394,0.00434
1361.77377,0.00422
1359.71360,0.00385
1357.65343,0.00349
1355.59325,0.00338
1353.53308,0.00342
1351.47291,0.00340
1349.41274,0.00326
1347.35256,0.00312
1345.29239,0.00306
1343.23222,0.00312
1341.17205,0.00338
1339.11188,0.00361
1337.05170,0.00342
1334.99153,0.00300
1332.93136,0.00267
1330.87119,0.00258
1328.81102,0.00268
1326.75084,0.00278
1324.69067,0.00279
1322.63050,0.00277
1320.57033,0.00267
1318.51015,0.00254
1316.44998,0.00257
1314.38981,0.00270
1312.32964,0.00272
1310.26947,0.00269
1308.20929,0.00268
1306.14912,0.00266
1304.08895,0.00262
1302.02878,0.00266
1299.96861,0.00277
1297.90843,0.00291
1295.84826,0.00301
1293.78809,0.00316
1291.72792,0.00339
1289.66775,0.00352
1287.60757,0.00337
1285.54740,0.00308
1283.48723,0.00286
1281.42706,0.00282
1279.36688,0.00288
1277.30671,0.00290
1275.24654,0.00289
1273.18637,0.00294
1271.12620,0.00304
1269.06602,0.00309
1267.00585,0.00309
1264.94568,0.00309
1262.88551,0.00317
1260.82534,0.00332
1258.76516,0.00334
1256.70499,0.00316
1254.64482,0.00302
1252.58465,0.00303
1250.52447,0.00306
1248.46430,0.00303
1246.40413,0.00300
1244.34396,0.00297
1242.28379,0.00285
1240.22361,0.00263
1238.16344,0.00251
1236.10327,0.00257
1234.04310,0.00262
1231.98293,0.00257
1229.92275,0.00257
1227.86258,0.00252
1225.80241,0.00222
1223.74224,0.00187
1221.68207,0.00173
1219.62189,0.00173
1217.56172,0.00166
1215.50155,0.00149
1213.44138,0.00126
1211.38120,0.00106
1209.32103,0.00091
1207.26086,0.00087
1205.20069,0.00082
1203.14052,0.00060
1201.08034,0.00028
1199.02017,0.00013
1196.96000,0.00009
1194.89983,0.00004
1192.83966,0.00000
1190.77948,0.00007
1188.71931,0.00019
1186.65914,0.00023
1184.59897,0.00021
1182.53880,0.00030
1180.47862,0.00048
1178.41845,0.00054
1176.35828,0.00043
1174.29811,0.00037
1172.23793,0.00045
1170.17776,0.00066
1168.11759,0.00085
1166.05742,0.00088
1163.99725,0.00095
1161.93707,0.00113
1159.87690,0.00126
1157.81673,0.00148
1155.75656,0.00191
1153.69639,0.00224
1151.63621,0.00248
1149.57604,0.00279
1147.51587,0.00303
1145.45570,0.00315
1143.39552,0.00336
1141.33535,0.00392
1139.27518,0.00475
1137.21501,0.00546
1135.15484,0.00595
1133.09466,0.00652
1131.03449,0.00721
1128.97432,0.00777
1126.91415,0.00822
1124.85398,0.00877
1122.79380,0.00951
1120.73363,0.01045
1118.67346,0.01154
1116.61329,0.01246
1114.55312,0.01313
1112.49294,0.01387
1110.43277,0.01479
1108.37260,0.01572
1106.31243,0.01659
1104.25225,0.01749
1102.19208,0.01833
1100.13191,0.01896
1098.07174,0.01956
1096.01157,0.02028
1093.95139,0.02097
1091.89122,0.02161
1089.83105,0.02221
1087.77088,0.02271
1085.71071,0.02324
1083.65053,0.02381
1081.59036,0.02434
1079.53019,0.02500
1077.47002,0.02571
1075.40985,0.02629
1073.34967,0.02650
1071.28950,0.02644
1069.22933,0.02670
1067.16916,0.02719
1065.10898,0.02725
1063.04881,0.02692
1060.98864,0.02669
1058.92847,0.02666
1056.86830,0.02658
1054.80812,0.02630
1052.74795,0.02583
1050.68778,0.02508
1048.62761,0.02411
1046.56744,0.02328
1044.50726,0.02261
1042.44709,0.02176
1040.38692,0.02064
1038.32675,0.01955
1036.26657,0.01861
1034.20640,0.01769
1032.14623,0.01661
1030.08606,0.01551
1028.02589,0.01472
1025.96571,0.01409
1023.90554,0.01333
1021.84537,0.01244
1019.78520,0.01168
1017.72503,0.01128
1015.66485,0.01105
1013.60468,0.01079
1011.54451,0.01049
1009.48434,0.01025
1007.42417,0.01027
1005.36399,0.01063
1003.30382,0.01114
1001.24365,0.01171
999.18348,0.01232
997.12330,0.01273
995.06313,0.01308
993.00296,0.01380
990.94279,0.01448
988.88262,0.01473
986.82244,0.01498
984.76227,0.01539
982.70210,0.01565
980.64193,0.01576
978.58176,0.01560
976.52158,0.01504
974.46141,0.01435
972.40124,0.01392
970.34107,0.01362
968.28089,0.01298
966.22072,0.01216
964.16055,0.01157
962.10038,0.01101
960.04021,0.01024
957.98003,0.00942
955.91986,0.00876
953.85969,0.00812
951.79952,0.00745
949.73935,0.00678
947.67917,0.00610
945.61900,0.00542
943.55883,0.00474
941.49866,0.00402
939.43849,0.00334
937.37831,0.00279
935.31814,0.00235
933.25797,0.00210
931.19780,0.00201
929.13762,0.00165
927.07745,0.00113
925.01728,0.00112
922.95711,0.00143
920.89694,0.00134
918.83676,0.00084
916.77659,0.00035
914.71642,0.00026
912.65625,0.00046
910.59608,0.00041
908.53590,0.00029
906.47573,0.00060
904.41556,0.00089
902.35539,0.00081
900.29522,0.00074
898.23504,0.00068
896.17487,0.00035
894.11470,0.00006
892.05453,0.00025
889.99435,0.00068
887.93418,0.00116
885.87401,0.00164
883.81384,0.00188
881.75367,0.00208
879.69349,0.00243
877.63332,0.00282
875.57315,0.00308
873.51298,0.00306
871.45281,0.00306
869.39263,0.00352
867.33246,0.00395
865.27229,0.00394
863.21212,0.00389
861.15194,0.00422
859.09177,0.00484
857.03160,0.00533
854.97143,0.00552
852.91126,0.00552
850.85108,0.00545
848.79091,0.00526
846.73074,0.00495
844.67057,0.00466
842.61040,0.00458
840.55022,0.00450
838.49005,0.00419
836.42988,0.00401
834.36971,0.00398
832.30954,0.00380
830.24936,0.00372
828.18919,0.00343
826.12902,0.00274
824.06885,0.00267
822.00867,0.00305
819.94850,0.00286
817.88833,0.00220
815.82816,0.00150
813.76799,0.00112
811.70781,0.00157
809.64764,0.00252
807.58747,0.00277
805.52730,0.00249
803.46713,0.00263
801.40695,0.00272
799.34678,0.00209
797.28661,0.00107
795.22644,0.00032
793.16627,0.00015
791.10609,0.00012
789.04592,0.00024
786.98575,0.00083
784.92558,0.00099
782.86540,0.00052
780.80523,0.00053
778.74506,0.00091
776.68489,0.00074
774.62472,0.00031
772.56454,0.00037
770.50437,0.00056
768.44420,0.00089
766.38403,0.00150
764.32386,0.00175
762.26368,0.00167
760.20351,0.00165
758.14334,0.00162
756.08317,0.00125
754.02299,0.00085
751.96282,0.00115
749.90265,0.00146
747.84248,0.00106
745.78231,0.00072
743.72213,0.00093
741.66196,0.00110
739.60179,0.00088
737.54162,0.00076
735.48145,0.00082
733.42127,0.00070
731.36110,0.00047
729.30093,0.00064
727.24076,0.00140
725.18059,0.00219
723.12041,0.00260
721.06024,0.00209
719.00007,0.00179
716.93990,0.00148
714.87972,0.00094
712.81955,0.00068
710.75938,0.00093
708.69921,0.00170
706.63904,0.00242
704.57886,0.00248
702.51869,0.00204
700.45852,0.00167
698.39835,0.00202
696.33818,0.00308
694.27800,0.00373
692.21783,0.00320
690.15766,0.00206
688.09749,0.00121
686.03731,0.00126
683.97714,0.00242
681.91697,0.00365
679.85680,0.00354
677.79663,0.00221
675.73645,0.00074
673.67628,0.00000
671.61611,0.00006
669.55594,0.00094
667.49577,0.00217
665.43559,0.00172
663.37542,0.00204
661.31525,0.00311
659.25508,0.00348
657.19491,0.00259
655.13473,0.00187
653.07456,0.00252
651.01439,0.00381
648.95422,0.00501
646.89404,0.00663
644.83387,0.00790
642.77370,0.00699
640.71353,0.00422
638.65336,0.00187
636.59318,0.00129
634.53301,0.00241
632.47284,0.00340
630.41267,0.00230
628.35250,0.00058
626.29232,0.00110
624.23215,0.00210
622.17198,0.00089
620.11181,0.00000
618.05164,0.00038
615.99146,0.00112
613.93129,0.00163
611.87112,0.00120
609.81095,0.00005
607.75077,-0.00080
605.69060,-0.00156
603.63043,-0.00208
601.57026,-0.00184
599.51009,0.00000
