3996.73391,0.00006
3994.67373,0.00009
3992.61356,0.00031
3990.55339,0.00051
3988.49322,0.00046
3986.43305,0.00032
3984.37287,0.00017
3982.31270,0.00001
3980.25253,0.00020
3978.19236,0.00071
3976.13219,0.00087
3974.07201,0.00053
3972.01184,0.00029
3969.95167,0.00043
3967.89150,0.00067
3965.83133,0.00070
3963.77115,0.00051
3961.71098,0.00037
3959.65081,0.00039
3957.59064,0.00042
3955.53046,0.00026
3953.47029,0.00002
3951.41012,0.00000
3949.34995,0.00025
3947.28978,0.00052
3945.22960,0.00072
3943.16943,0.00101
3941.10926,0.00110
3939.04909,0.00083
3936.98892,0.00069
3934.92874,0.00082
3932.86857,0.00094
3930.80840,0.00090
3928.74823,0.00084
3926.68805,0.00095
3924.62788,0.00122
3922.56771,0.00138
3920.50754,0.00118
3918.44737,0.00094
3916.38719,0.00108
3914.32702,0.00131
3912.26685,0.00126
3910.20668,0.00107
3908.14651,0.00091
3906.08633,0.00098
3904.02616,0.00133
3901.96599,0.00161
3899.90582,0.00161
3897.84565,0.00138
3895.78547,0.00097
3893.72530,0.00070
3891.66513,0.00072
3889.60496,0.00081
3887.54478,0.00108
3885.48461,0.00164
3883.42444,0.00192
3881.36427,0.00183
3879.30410,0.00146
3877.24392,0.00067
3875.18375,0.00010
3873.12358,0.00037
3871.06341,0.00105
3869.00324,0.00147
3866.94306,0.00165
3864.88289,0.00197
3862.82272,0.00223
3860.76255,0.00204
3858.70237,0.00162
3856.64220,0.00138
3854.58203,0.00160
3852.52186,0.00213
3850.46169,0.00210
3848.40151,0.00162
3846.34134,0.00122
3844.28117,0.00107
3842.22100,0.00109
3840.16083,0.00110
3838.10065,0.00125
3836.04048,0.00157
3833.98031,0.00167
3831.92014,0.00138
3829.85997,0.00095
3827.79979,0.00085
3825.73962,0.00122
3823.67945,0.00161
3821.61928,0.00179
3819.55910,0.00164
3817.49893,0.00099
3815.43876,0.00049
3813.37859,0.00050
3811.31842,0.00053
3809.25824,0.00051
3807.19807,0.00074
3805.13790,0.00100
3803.07773,0.00102
3801.01756,0.00103
3798.95738,0.00107
3796.89721,0.00128
3794.83704,0.00166
3792.77687,0.00174
3790.71670,0.00143
3788.65652,0.00108
3786.59635,0.00096
3784.53618,0.00108
3782.47601,0.00119
3780.41583,0.00113
3778.35566,0.00105
3776.29549,0.00101
3774.23532,0.00105
3772.17515,0.00118
3770.11497,0.00127
3768.05480,0.00128
3765.99463,0.00123
3763.93446,0.00109
3761.87429,0.00101
3759.81411,0.00134
3757.75394,0.00195
3755.69377,0.00233
3753.63360,0.00233
3751.57342,0.00198
3749.51325,0.00199
3747.45308,0.00259
3745.39291,0.00338
3743.33274,0.00374
3741.27256,0.00330
3739.21239,0.00299
3737.15222,0.00366
3735.09205,0.00450
3733.03188,0.00409
3730.97170,0.00313
3728.91153,0.00278
3726.85136,0.00289
3724.79119,0.00283
3722.73102,0.00250
3720.67084,0.00231
3718.61067,0.00250
3716.55050,0.00270
3714.49033,0.00262
3712.43015,0.00245
3710.36998,0.00237
3708.30981,0.00233
3706.24964,0.00241
3704.18947,0.00266
3702.12929,0.00294
3700.06912,0.00288
3698.00895,0.00241
3695.94878,0.00191
3693.88861,0.00138
3691.82843,0.00098
3689.76826,0.00134
3687.70809,0.00224
3685.64792,0.00262
3683.58775,0.00253
3681.52757,0.00247
3679.46740,0.00242
3677.40723,0.00229
3675.34706,0.00261
3673.28688,0.00321
3671.22671,0.00357
3669.16654,0.00392
3667.10637,0.00401
3665.04620,0.00363
3662.98602,0.00330
3660.92585,0.00343
3658.86568,0.00375
3656.80551,0.00392
3654.74534,0.00386
3652.68516,0.00365
3650.62499,0.00387
3648.56482,0.00477
3646.50465,0.00526
3644.44447,0.00522
3642.38430,0.00511
3640.32413,0.00513
3638.26396,0.00557
3636.20379,0.00631
3634.14361,0.00678
3632.08344,0.00672
3630.02327,0.00655
3627.96310,0.00699
3625.90293,0.00775
3623.84275,0.00799
3621.78258,0.00778
3619.72241,0.00753
3617.66224,0.00732
3615.60207,0.00739
3613.54189,0.00804
3611.48172,0.00886
3609.42155,0.00944
3607.36138,0.00991
3605.30120,0.01022
3603.24103,0.01028
3601.18086,0.01009
3599.12069,0.00996
3597.06052,0.01022
3595.00034,0.01082
3592.94017,0.01128
3590.88000,0.01149
3588.81983,0.01179
3586.75966,0.01209
3584.69948,0.01197
3582.63931,0.01193
3580.57914,0.01228
3578.51897,0.01252
3576.45879,0.01247
3574.39862,0.01241
3572.33845,0.01247
3570.27828,0.01267
3568.21811,0.01301
3566.15793,0.01329
3564.09776,0.01340
3562.03759,0.01354
3559.97742,0.01379
3557.91725,0.01407
3555.85707,0.01434
3553.79690,0.01473
3551.73673,0.01525
3549.67656,0.01568
3547.61639,0.01603
3545.55621,0.01635
3543.49604,0.01626
3541.43587,0.01576
3539.37570,0.01559
3537.31552,0.01599
3535.25535,0.01645
3533.19518,0.01663
3531.13501,0.01675
3529.07484,0.01713
3527.01466,0.01782
3524.95449,0.01835
3522.89432,0.01831
3520.83415,0.01806
3518.77398,0.01792
3516.71380,0.01783
3514.65363,0.01793
3512.59346,0.01835
3510.53329,0.01885
3508.47312,0.01908
3506.41294,0.01914
3504.35277,0.01951
3502.29260,0.02021
3500.23243,0.02048
3498.17225,0.02029
3496.11208,0.02050
3494.05191,0.02100
3491.99174,0.02101
3489.93157,0.02086
3487.87139,0.02121
3485.81122,0.02175
3483.75105,0.02205
3481.69088,0.02228
3479.63071,0.02262
3477.57053,0.02289
3475.51036,0.02271
3473.45019,0.02222
3471.39002,0.02222
3469.32984,0.02288
3467.26967,0.02337
3465.20950,0.02359
3463.14933,0.02410
3461.08916,0.02455
3459.02898,0.02440
3456.96881,0.02414
3454.90864,0.02413
3452.84847,0.02423
3450.78830,0.02439
3448.72812,0.02459
3446.66795,0.02471
3444.60778,0.02469
3442.54761,0.02461
3440.48744,0.02477
3438.42726,0.02516
3436.36709,0.02554
3434.30692,0.02589
3432.24675,0.02614
3430.18657,0.02606
3428.12640,0.02575
3426.06623,0.02580
3424.00606,0.02628
3421.94589,0.02671
3419.88571,0.02699
3417.82554,0.02715
3415.76537,0.02691
3413.70520,0.02645
3411.64503,0.02645
3409.58485,0.02697
3407.52468,0.02747
3405.46451,0.02790
3403.40434,0.02818
3401.34416,0.02803
3399.28399,0.02785
3397.22382,0.02778
3395.16365,0.02777
3393.10348,0.02769
3391.04330,0.02772
3388.98313,0.02785
3386.92296,0.02809
3384.86279,0.02849
3382.80262,0.02870
3380.74244,0.02859
3378.68227,0.02844
3376.62210,0.02857
3374.56193,0.02875
3372.50176,0.02857
3370.44158,0.02825
3368.38141,0.02830
3366.32124,0.02877
3364.26107,0.02921
3362.20089,0.02925
3360.14072,0.02895
3358.08055,0.02860
3356.02038,0.02846
3353.96021,0.02872
3351.90003,0.02938
3349.83986,0.02989
3347.77969,0.02967
3345.71952,0.02911
3343.65935,0.02896
3341.59917,0.02913
3339.53900,0.02931
3337.47883,0.02941
3335.41866,0.02936
3333.35849,0.02927
3331.29831,0.02934
3329.23814,0.02951
3327.17797,0.02951
3325.11780,0.02940
3323.05762,0.02936
3320.99745,0.02943
3318.93728,0.02960
3316.87711,0.02963
3314.81694,0.02950
3312.75676,0.02943
3310.69659,0.02952
3308.63642,0.02970
3306.57625,0.02983
3304.51608,0.02984
3302.45590,0.02970
3300.39573,0.02965
3298.33556,0.02978
3296.27539,0.02981
3294.21521,0.02976
3292.15504,0.02981
3290.09487,0.02990
3288.03470,0.02987
3285.97453,0.02969
3283.91435,0.02960
3281.85418,0.02982
3279.79401,0.03013
3277.73384,0.03011
3275.67367,0.02986
3273.61349,0.02975
3271.55332,0.02985
3269.49315,0.02989
3267.43298,0.02970
3265.37281,0.02949
3263.31263,0.02966
3261.25246,0.02989
3259.19229,0.02981
3257.13212,0.02992
3255.07194,0.03033
3253.01177,0.03032
3250.95160,0.02996
3248.89143,0.02995
3246.83126,0.03027
3244.77108,0.03040
3242.71091,0.03023
3240.65074,0.03007
3238.59057,0.03011
3236.53040,0.03018
3234.47022,0.02999
3232.41005,0.02983
3230.34988,0.03000
3228.28971,0.03003
3226.22954,0.02992
3224.16936,0.03026
3222.10919,0.03061
3220.04902,0.03040
3217.98885,0.03018
3215.92867,0.03048
3213.86850,0.03076
3211.80833,0.03042
3209.74816,0.02993
3207.68799,0.02991
3205.62781,0.03008
3203.56764,0.03011
3201.50747,0.02994
3199.44730,0.02981
3197.38713,0.02984
3195.32695,0.02979
3193.26678,0.02969
3191.20661,0.02965
3189.14644,0.02944
3187.08626,0.02908
3185.02609,0.02916
3182.96592,0.02962
3180.90575,0.02968
3178.84558,0.02946
3176.78540,0.02943
3174.72523,0.02937
3172.66506,0.02927
3170.60489,0.02934
3168.54472,0.02943
3166.48454,0.02935
3164.42437,0.02914
3162.36420,0.02902
3160.30403,0.02909
3158.24386,0.02907
3156.18368,0.02881
3154.12351,0.02847
3152.06334,0.02839
3150.00317,0.02857
3147.94299,0.02861
3145.88282,0.02839
3143.82265,0.02815
3141.76248,0.02806
3139.70231,0.02807
3137.64213,0.02807
3135.58196,0.02803
3133.52179,0.02809
3131.46162,0.02813
3129.40145,0.02796
3127.34127,0.02777
3125.28110,0.02771
3123.22093,0.02768
3121.16076,0.02763
3119.10058,0.02746
3117.04041,0.02724
3114.98024,0.02718
3112.92007,0.02727
3110.85990,0.02725
3108.79972,0.02726
3106.73955,0.02738
3104.67938,0.02721
3102.61921,0.02690
3100.55904,0.02693
3098.49886,0.02701
3096.43869,0.02677
3094.37852,0.02633
3092.31835,0.02599
3090.25818,0.02590
3088.19800,0.02594
3086.13783,0.02596
3084.07766,0.02608
3082.01749,0.02626
3079.95731,0.02630
3077.89714,0.02615
3075.83697,0.02602
3073.77680,0.02594
3071.71663,0.02580
3069.65645,0.02559
3067.59628,0.02540
3065.53611,0.02519
3063.47594,0.02498
3061.41577,0.02486
3059.35559,0.02490
3057.29542,0.02492
3055.23525,0.02479
3053.17508,0.02467
3051.11491,0.02462
3049.05473,0.02465
3046.99456,0.02468
3044.93439,0.02452
3042.87422,0.02422
3040.81404,0.02401
3038.75387,0.02395
3036.69370,0.02394
3034.63353,0.02383
3032.57336,0.02368
3030.51318,0.02362
3028.45301,0.02356
3026.39284,0.02339
3024.33267,0.02327
3022.27250,0.02325
3020.21232,0.02315
3018.15215,0.02305
3016.09198,0.02335
3014.03181,0.02390
3011.97163,0.02410
3009.91146,0.02383
3007.85129,0.02342
3005.79112,0.02307
3003.73095,0.02268
3001.67077,0.02236
2999.61060,0.02234
2997.55043,0.02253
2995.49026,0.02258
2993.43009,0.02243
2991.36991,0.02230
2989.30974,0.02231
2987.24957,0.02232
2985.18940,0.02227
2983.12923,0.02223
2981.06905,0.02220
2979.00888,0.02213
2976.94871,0.02206
2974.88854,0.02204
2972.82836,0.02194
2970.76819,0.02170
2968.70802,0.02164
2966.64785,0.02178
2964.58768,0.02189
2962.52750,0.02181
2960.46733,0.02138
2958.40716,0.02098
2956.34699,0.02097
2954.28682,0.02108
2952.22664,0.02114
2950.16647,0.02105
2948.10630,0.02078
2946.04613,0.02064
2943.98596,0.02067
2941.92578,0.02059
2939.86561,0.02048
2937.80544,0.02038
2935.74527,0.02010
2933.68509,0.01977
2931.62492,0.01968
2929.56475,0.01977
2927.50458,0.01985
2925.44441,0.01988
2923.38423,0.01980
2921.32406,0.01950
2919.26389,0.01922
2917.20372,0.01926
2915.14355,0.01944
2913.08337,0.01942
2911.02320,0.01909
2908.96303,0.01875
2906.90286,0.01852
2904.84268,0.01844
2902.78251,0.01860
2900.72234,0.01878
2898.66217,0.01873
2896.60200,0.01858
2894.54182,0.01837
2892.48165,0.01793
2890.42148,0.01745
2888.36131,0.01740
2886.30114,0.01771
2884.24096,0.01787
2882.18079,0.01780
2880.12062,0.01771
2878.06045,0.01756
2876.00028,0.01729
2873.94010,0.01691
2871.87993,0.01674
2869.81976,0.01697
2867.75959,0.01721
2865.69941,0.01702
2863.63924,0.01651
2861.57907,0.01604
2859.51890,0.01573
2857.45873,0.01556
2855.39855,0.01547
2853.33838,0.01533
2851.27821,0.01527
2849.21804,0.01520
2847.15787,0.01496
2845.09769,0.01486
2843.03752,0.01501
2840.97735,0.01508
2838.91718,0.01487
2836.85700,0.01452
2834.79683,0.01435
2832.73666,0.01430
2830.67649,0.01418
2828.61632,0.01391
2826.55614,0.01371
2824.49597,0.01368
2822.43580,0.01363
2820.37563,0.01355
2818.31546,0.01354
2816.25528,0.01351
2814.19511,0.01343
2812.13494,0.01340
2810.07477,0.01334
2808.01460,0.01314
2805.95442,0.01295
2803.89425,0.01293
2801.83408,0.01309
2799.77391,0.01317
2797.71373,0.01298
2795.65356,0.01260
2793.59339,0.01219
2791.53322,0.01204
2789.47305,0.01222
2787.41287,0.01246
2785.35270,0.01246
2783.29253,0.01231
2781.23236,0.01210
2779.17219,0.01199
2777.11201,0.01212
2775.05184,0.01223
2772.99167,0.01212
2770.93150,0.01187
2768.87133,0.01177
2766.81115,0.01184
2764.75098,0.01176
2762.69081,0.01166
2760.63064,0.01177
2758.57046,0.01192
2756.51029,0.01190
2754.45012,0.01174
2752.38995,0.01155
2750.32978,0.01144
2748.26960,0.01144
2746.20943,0.01146
2744.14926,0.01127
2742.08909,0.01084
2740.02892,0.01055
2737.96874,0.01048
2735.90857,0.01042
2733.84840,0.01038
2731.78823,0.01046
2729.72805,0.01066
2727.66788,0.01083
2725.60771,0.01081
2723.54754,0.01062
2721.48737,0.01045
2719.42719,0.01039
2717.36702,0.01021
2715.30685,0.01004
2713.24668,0.01023
2711.18651,0.01056
2709.12633,0.01055
2707.06616,0.01030
2705.00599,0.01025
2702.94582,0.01018
2700.88565,0.00981
2698.82547,0.00960
2696.76530,0.00965
2694.70513,0.00952
2692.64496,0.00928
2690.58478,0.00920
2688.52461,0.00931
2686.46444,0.00948
2684.40427,0.00949
2682.34410,0.00937
2680.28392,0.00942
2678.22375,0.00955
2676.16358,0.00959
2674.10341,0.00963
2672.04324,0.00960
2669.98306,0.00934
2667.92289,0.00902
2665.86272,0.00883
2663.80255,0.00880
2661.74238,0.00895
2659.68220,0.00906
2657.62203,0.00885
2655.56186,0.00858
2653.50169,0.00851
2651.44151,0.00856
2649.38134,0.00859
2647.32117,0.00851
2645.26100,0.00853
2643.20083,0.00880
2641.14065,0.00901
2639.08048,0.00901
2637.02031,0.00894
2634.96014,0.00877
2632.89997,0.00851
2630.83979,0.00833
2628.77962,0.00823
2626.71945,0.00811
2624.65928,0.00805
2622.59910,0.00811
2620.53893,0.00816
2618.47876,0.00786
2616.41859,0.00736
2614.35842,0.00728
2612.29824,0.00759
2610.23807,0.00804
2608.17790,0.00826
2606.11773,0.00807
2604.05756,0.00772
2601.99738,0.00763
2599.93721,0.00785
2597.87704,0.00787
2595.81687,0.00759
2593.75670,0.00739
2591.69652,0.00735
2589.63635,0.00743
2587.57618,0.00753
2585.51601,0.00740
2583.45583,0.00720
2581.39566,0.00713
2579.33549,0.00711
2577.27532,0.00712
2575.21515,0.00712
2573.15497,0.00708
2571.09480,0.00691
2569.03463,0.00674
2566.97446,0.00675
2564.91429,0.00672
2562.85411,0.00689
2560.79394,0.00712
2558.73377,0.00689
2556.67360,0.00666
2554.61342,0.00672
2552.55325,0.00659
2550.49308,0.00640
2548.43291,0.00669
2546.37274,0.00729
2544.31256,0.00767
2542.25239,0.00762
2540.19222,0.00736
2538.13205,0.00729
2536.07188,0.00743
2534.01170,0.00735
2531.95153,0.00703
2529.89136,0.00696
2527.83119,0.00703
2525.77102,0.00695
2523.71084,0.00682
2521.65067,0.00683
2519.59050,0.00690
2517.53033,0.00683
2515.47015,0.00659
2513.40998,0.00668
2511.34981,0.00729
2509.28964,0.00768
2507.22947,0.00752
2505.16929,0.00731
2503.10912,0.00755
2501.04895,0.00802
2498.98878,0.00799
2496.92861,0.00721
2494.86843,0.00639
2492.80826,0.00614
2490.74809,0.00639
2488.68792,0.00684
2486.62775,0.00719
2484.56757,0.00740
2482.50740,0.00746
2480.44723,0.00738
2478.38706,0.00750
2476.32688,0.00774
2474.26671,0.00758
2472.20654,0.00716
2470.14637,0.00706
2468.08620,0.00730
2466.02602,0.00746
2463.96585,0.00740
2461.90568,0.00756
2459.84551,0.00786
2457.78534,0.00794
2455.72516,0.00782
2453.66499,0.00757
2451.60482,0.00742
2449.54465,0.00752
2447.48447,0.00765
2445.42430,0.00784
2443.36413,0.00825
2441.30396,0.00858
2439.24379,0.00843
2437.18361,0.00792
2435.12344,0.00727
2433.06327,0.00674
2431.00310,0.00687
2428.94293,0.00721
2426.88275,0.00724
2424.82258,0.00744
2422.76241,0.00781
2420.70224,0.00783
2418.64207,0.00747
2416.58189,0.00737
2414.52172,0.00780
2412.46155,0.00818
2410.40138,0.00800
2408.34120,0.00759
2406.28103,0.00743
2404.22086,0.00748
2402.16069,0.00743
2400.10052,0.00737
2398.04034,0.00691
2395.98017,0.00704
2393.92000,0.00731
2391.85983,0.00753
2389.79966,0.00786
2387.73948,0.00841
2385.67931,0.00907
2383.61914,0.00963
2381.55897,0.00999
2379.49880,0.01036
2377.43862,0.01086
2375.37845,0.01106
2373.31828,0.01043
2371.25811,0.00961
2369.19793,0.00970
2367.13776,0.01065
2365.07759,0.01092
2363.01742,0.00876
2360.95725,0.00542
2358.89707,0.00493
2356.83690,0.00859
2354.77673,0.01266
2352.71656,0.01379
2350.65639,0.01349
2348.59621,0.01299
2346.53604,0.01183
2344.47587,0.01058
2342.41570,0.01082
2340.35552,0.01224
2338.29535,0.01340
2336.23518,0.01390
2334.17501,0.01394
2332.11484,0.01339
2330.05466,0.01273
2327.99449,0.01268
2325.93432,0.01305
2323.87415,0.01315
2321.81398,0.01306
2319.75380,0.01304
2317.69363,0.01261
2315.63346,0.01171
2313.57329,0.01125
2311.51312,0.01193
2309.45294,0.01293
2307.39277,0.01294
2305.33260,0.01202
2303.27243,0.01104
2301.21225,0.01027
2299.15208,0.00983
2297.09191,0.00986
2295.03174,0.01019
2292.97157,0.01035
2290.91139,0.01027
2288.85122,0.01010
2286.79105,0.00972
2284.73088,0.00905
2282.67071,0.00837
2280.61053,0.00793
2278.55036,0.00759
2276.49019,0.00720
2274.43002,0.00703
2272.36984,0.00724
2270.30967,0.00758
2268.24950,0.00773
2266.18933,0.00755
2264.12916,0.00707
2262.06898,0.00678
2260.00881,0.00689
2257.94864,0.00707
2255.88847,0.00752
2253.82830,0.00820
2251.76812,0.00811
2249.70795,0.00719
2247.64778,0.00700
2245.58761,0.00750
2243.52744,0.00784
2241.46726,0.00791
2239.40709,0.00777
2237.34692,0.00701
2235.28675,0.00607
2233.22657,0.00587
2231.16640,0.00654
2229.10623,0.00717
2227.04606,0.00712
2224.98589,0.00685
2222.92571,0.00646
2220.86554,0.00631
2218.80537,0.00715
2216.74520,0.00801
2214.68503,0.00764
2212.62485,0.00662
2210.56468,0.00546
2208.50451,0.00448
2206.44434,0.00460
2204.38417,0.00602
2202.32399,0.00743
2200.26382,0.00761
2198.20365,0.00731
2196.14348,0.00769
2194.08330,0.00850
2192.02313,0.00879
2189.96296,0.00840
2187.90279,0.00782
2185.84262,0.00748
2183.78244,0.00760
2181.72227,0.00782
2179.66210,0.00779
2177.60193,0.00720
2175.54176,0.00600
2173.48158,0.00534
2171.42141,0.00627
2169.36124,0.00719
2167.30107,0.00643
2165.24089,0.00533
2163.18072,0.00459
2161.12055,0.00344
2159.06038,0.00185
2157.00021,0.00000
2154.94003,0.00001
2152.87986,0.00247
2150.81969,0.00425
2148.75952,0.00453
2146.69935,0.00503
2144.63917,0.00570
2142.57900,0.00590
2140.51883,0.00629
2138.45866,0.00626
2136.39849,0.00492
2134.33831,0.00420
2132.27814,0.00474
2130.21797,0.00523
2128.15780,0.00573
2126.09762,0.00610
2124.03745,0.00551
2121.97728,0.00496
2119.91711,0.00577
2117.85694,0.00655
2115.79676,0.00605
2113.73659,0.00558
2111.67642,0.00560
2109.61625,0.00553
2107.55608,0.00561
2105.49590,0.00591
2103.43573,0.00620
2101.37556,0.00637
2099.31539,0.00635
2097.25521,0.00622
2095.19504,0.00581
2093.13487,0.00540
2091.07470,0.00539
2089.01453,0.00565
2086.95435,0.00554
2084.89418,0.00500
2082.83401,0.00506
2080.77384,0.00575
2078.71367,0.00557
2076.65349,0.00465
2074.59332,0.00438
2072.53315,0.00487
2070.47298,0.00544
2068.41281,0.00541
2066.35263,0.00480
2064.29246,0.00456
2062.23229,0.00483
2060.17212,0.00522
2058.11194,0.00562
2056.05177,0.00542
2053.99160,0.00488
2051.93143,0.00463
2049.87126,0.00436
2047.81108,0.00424
2045.75091,0.00426
2043.69074,0.00363
2041.63057,0.00293
2039.57040,0.00299
2037.51022,0.00238
2035.45005,0.00101
2033.38988,0.00190
2031.32971,0.00424
2029.26954,0.00476
2027.20936,0.00417
2025.14919,0.00413
2023.08902,0.00501
2021.02885,0.00580
2018.96867,0.00478
2016.90850,0.00268
2014.84833,0.00101
2012.78816,0.00005
2010.72799,0.00030
2008.66781,0.00163
2006.60764,0.00273
2004.54747,0.00276
2002.48730,0.00250
2000.42713,0.00278
1998.36695,0.00313
1996.30678,0.00330
1994.24661,0.00334
1992.18644,0.00352
1990.12626,0.00404
1988.06609,0.00408
1986.00592,0.00389
1983.94575,0.00428
1981.88558,0.00419
1979.82540,0.00342
1977.76523,0.00342
1975.70506,0.00393
1973.64489,0.00384
1971.58472,0.00387
1969.52454,0.00448
1967.46437,0.00456
1965.40420,0.00408
1963.34403,0.00426
1961.28386,0.00451
1959.22368,0.00354
1957.16351,0.00236
1955.10334,0.00234
1953.04317,0.00298
1950.98299,0.00363
1948.92282,0.00444
1946.86265,0.00477
1944.80248,0.00413
1942.74231,0.00330
1940.68213,0.00319
1938.62196,0.00367
1936.56179,0.00383
1934.50162,0.00370
1932.44145,0.00378
1930.38127,0.00350
1928.32110,0.00290
1926.26093,0.00270
1924.20076,0.00278
1922.14059,0.00279
1920.08041,0.00275
1918.02024,0.00313
1915.96007,0.00384
1913.89990,0.00411
1911.83972,0.00364
1909.77955,0.00282
1907.71938,0.00226
1905.65921,0.00227
1903.59904,0.00275
1901.53886,0.00314
1899.47869,0.00323
1897.41852,0.00338
1895.35835,0.00361
1893.29818,0.00371
1891.23800,0.00381
1889.17783,0.00415
1887.11766,0.00445
1885.05749,0.00419
1882.99731,0.00357
1880.93714,0.00324
1878.87697,0.00326
1876.81680,0.00319
1874.75663,0.00294
1872.69645,0.00286
1870.63628,0.00316
1868.57611,0.00368
1866.51594,0.00385
1864.45577,0.00352
1862.39559,0.00299
1860.33542,0.00262
1858.27525,0.00282
1856.21508,0.00333
1854.15491,0.00338
1852.09473,0.00294
1850.03456,0.00268
1847.97439,0.00285
1845.91422,0.00322
1843.85404,0.00341
1841.79387,0.00339
1839.73370,0.00343
1837.67353,0.00359
1835.61336,0.00372
1833.55318,0.00363
1831.49301,0.00336
1829.43284,0.00316
1827.37267,0.00311
1825.31250,0.00313
1823.25232,0.00326
1821.19215,0.00340
1819.13198,0.00343
1817.07181,0.00327
1815.01163,0.00311
1812.95146,0.00315
1810.89129,0.00321
1808.83112,0.00328
1806.77095,0.00365
1804.71077,0.00420
1802.65060,0.00457
1800.59043,0.00462
1798.53026,0.00434
1796.47009,0.00378
1794.40991,0.00329
1792.34974,0.00342
1790.28957,0.00399
1788.22940,0.00428
1786.16923,0.00429
1784.10905,0.00426
1782.04888,0.00422
1779.98871,0.00422
1777.92854,0.00414
1775.86836,0.00385
1773.80819,0.00357
1771.74802,0.00367
1769.68785,0.00411
1767.62768,0.00440
1765.56750,0.00437
1763.50733,0.00433
1761.44716,0.00449
1759.38699,0.00465
1757.32682,0.00473
1755.26664,0.00490
1753.20647,0.00512
1751.14630,0.00532
1749.08613,0.00556
1747.02596,0.00587
1744.96578,0.00600
1742.90561,0.00565
1740.84544,0.00500
1738.78527,0.00456
1736.72509,0.00460
1734.66492,0.00515
1732.60475,0.00579
1730.54458,0.00582
1728.48441,0.00557
1726.42423,0.00552
1724.36406,0.00569
1722.30389,0.00593
1720.24372,0.00599
1718.18355,0.00603
1716.12337,0.00639
1714.06320,0.00682
1712.00303,0.00709
1709.94286,0.00714
1707.88268,0.00707
1705.82251,0.00729
1703.76234,0.00778
1701.70217,0.00794
1699.64200,0.00785
1697.58182,0.00801
1695.52165,0.00861
1693.46148,0.00943
1691.40131,0.01013
1689.34114,0.01052
1687.28096,0.01048
1685.22079,0.01037
1683.16062,0.01086
1681.10045,0.01147
1679.04028,0.01164
1676.98010,0.01168
1674.91993,0.01205
1672.85976,0.01266
1670.79959,0.01326
1668.73941,0.01387
1666.67924,0.01424
1664.61907,0.01429
1662.55890,0.01442
1660.49873,0.01486
1658.43855,0.01521
1656.37838,0.01514
1654.31821,0.01481
1652.25804,0.01479
1650.19787,0.01515
1648.13769,0.01558
1646.07752,0.01592
1644.01735,0.01599
1641.95718,0.01586
1639.89701,0.01571
1637.83683,0.01549
1635.77666,0.01512
1633.71649,0.01475
1631.65632,0.01450
1629.59614,0.01415
1627.53597,0.01363
1625.47580,0.01318
1623.41563,0.01292
1621.35546,0.01267
1619.29528,0.01215
1617.23511,0.01154
1615.17494,0.01138
1613.11477,0.01146
1611.05460,0.01133
1608.99442,0.01101
1606.93425,0.01068
1604.87408,0.01036
1602.81391,0.01013
1600.75373,0.01003
1598.69356,0.00988
1596.63339,0.00958
1594.57322,0.00933
1592.51305,0.00925
1590.45287,0.00915
1588.39270,0.00889
1586.33253,0.00862
1584.27236,0.00854
1582.21219,0.00853
1580.15201,0.00832
1578.09184,0.00802
1576.03167,0.00797
1573.97150,0.00807
1571.91133,0.00795
1569.85115,0.00775
1567.79098,0.00778
1565.73081,0.00794
1563.67064,0.00793
1561.61046,0.00754
1559.55029,0.00714
1557.49012,0.00759
1555.42995,0.00823
1553.36978,0.00844
1551.30960,0.00832
1549.24943,0.00802
1547.18926,0.00777
1545.12909,0.00776
1543.06892,0.00786
1541.00874,0.00766
1538.94857,0.00728
1536.88840,0.00711
1534.82823,0.00712
1532.76805,0.00720
1530.70788,0.00726
1528.64771,0.00723
1526.58754,0.00712
1524.52737,0.00693
1522.46719,0.00677
1520.40702,0.00689
1518.34685,0.00712
1516.28668,0.00712
1514.22651,0.00697
1512.16633,0.00700
1510.10616,0.00711
1508.04599,0.00680
1505.98582,0.00606
1503.92565,0.00563
1501.86547,0.00551
1499.80530,0.00529
1497.74513,0.00498
1495.68496,0.00479
1493.62478,0.00464
1491.56461,0.00461
1489.50444,0.00475
1487.44427,0.00464
1485.38410,0.00432
1483.32392,0.00422
1481.26375,0.00438
1479.20358,0.00447
1477.14341,0.00448
1475.08324,0.00456
1473.02306,0.00463
1470.96289,0.00451
1468.90272,0.00429
1466.84255,0.00409
1464.78238,0.00408
1462.72220,0.00429
1460.66203,0.00454
1458.60186,0.00476
1456.54169,0.00480
1454.48151,0.00451
1452.42134,0.00424
1450.36117,0.00412
1448.30100,0.00410
1446.24083,0.00408
1444.18065,0.00402
1442.12048,0.00394
1440.06031,0.00385
1438.00014,0.00386
1435.93997,0.00401
1433.87979,0.00412
1431.81962,0.00418
1429.75945,0.00421
1427.69928,0.00418
1425.63910,0.00420
1423.57893,0.00435
1421.51876,0.00453
1419.45859,0.00478
1417.39842,0.00491
1415.33824,0.00466
1413.27807,0.00442
1411.21790,0.00442
1409.15773,0.00440
1407.09756,0.00438
1405.03738,0.00447
1402.97721,0.00447
1400.91704,0.00432
1398.85687,0.00434
1396.79670,0.00452
1394.73652,0.00446
1392.67635,0.00412
1390.61618,0.00392
1388.55601,0.00397
1386.49583,0.00398
1384.43566,0.00384
1382.37549,0.00372
1380.31532,0.00367
1378.25515,0.00366
1376.19497,0.00362
1374.13480,0.00351
1372.07463,0.00335
1370.01446,0.00322
1367.95429,0.00313
1365.89411,0.00308
1363.83394,0.00313
1361.77377,0.00315
1359.71360,0.00297
1357.65343,0.00270
1355.59325,0.00253
1353.53308,0.00241
1351.47291,0.00229
1349.41274,0.00217
1347.35256,0.00207
1345.29239,0.00199
1343.23222,0.00205
1341.17205,0.00248
1339.11188,0.00296
1337.05170,0.00288
1334.99153,0.00242
1332.93136,0.00207
1330.87119,0.00192
1328.81102,0.00191
1326.75084,0.00197
1324.69067,0.00202
1322.63050,0.00208
1320.57033,0.00211
1318.51015,0.00214
1316.44998,0.00217
1314.38981,0.00207
1312.32964,0.00194
1310.26947,0.00193
1308.20929,0.00195
1306.14912,0.00193
1304.08895,0.00191
1302.02878,0.00202
1299.96861,0.00219
1297.90843,0.00227
1295.84826,0.00216
1293.78809,0.00209
1291.72792,0.00223
1289.66775,0.00239
1287.60757,0.00242
1285.54740,0.00243
1283.48723,0.00242
1281.42706,0.00233
1279.36688,0.00218
1277.30671,0.00207
1275.24654,0.00207
1273.18637,0.00220
1271.12620,0.00238
1269.06602,0.00249
1267.00585,0.00245
1264.94568,0.00236
1262.88551,0.00236
1260.82534,0.00246
1258.76516,0.00253
1256.70499,0.00254
1254.64482,0.00256
1252.58465,0.00256
1250.52447,0.00243
1248.46430,0.00232
1246.40413,0.00240
1244.34396,0.00254
1242.28379,0.00246
1240.22361,0.00220
1238.16344,0.00206
1236.10327,0.00216
1234.04310,0.00226
1231.98293,0.00221
1229.92275,0.00210
1227.86258,0.00192
1225.80241,0.00168
1223.74224,0.00155
1221.68207,0.00146
1219.62189,0.00133
1217.56172,0.00116
1215.50155,0.00101
1213.44138,0.00098
1211.38120,0.00104
1209.32103,0.00101
1207.26086,0.00085
1205.20069,0.00062
1203.14052,0.00043
1201.08034,0.00037
1199.02017,0.00045
1196.96000,0.00042
1194.89983,0.00023
1192.83966,0.00007
1190.77948,0.00000
1188.71931,-0.00001
1186.65914,0.00007
1184.59897,0.00017
1182.53880,0.00039
1180.47862,0.00067
1178.41845,0.00066
1176.35828,0.00055
1174.29811,0.00058
1172.23793,0.00061
1170.17776,0.00061
1168.11759,0.00065
1166.05742,0.00072
1163.99725,0.00084
1161.93707,0.00101
1159.87690,0.00115
1157.81673,0.00129
1155.75656,0.00157
1153.69639,0.00195
1151.63621,0.00226
1149.57604,0.00251
1147.51587,0.00276
1145.45570,0.00291
1143.39552,0.00308
1141.33535,0.00335
1139.27518,0.00382
1137.21501,0.00453
1135.15484,0.00525
1133.09466,0.00586
1131.03449,0.00641
1128.97432,0.00687
1126.91415,0.00715
1124.85398,0.00753
1122.79380,0.00833
1120.73363,0.00944
1118.67346,0.01060
1116.61329,0.01149
1114.55312,0.01211
1112.49294,0.01286
1110.43277,0.01385
1108.37260,0.01478
1106.31243,0.01550
1104.25225,0.01630
1102.19208,0.01737
1100.13191,0.01833
1098.07174,0.01905
1096.01157,0.01995
1093.95139,0.02095
1091.89122,0.02164
1089.83105,0.02216
1087.77088,0.02260
1085.71071,0.02310
1083.65053,0.02382
1081.59036,0.02454
1079.53019,0.02521
1077.47002,0.02593
1075.40985,0.02661
1073.34967,0.02702
1071.28950,0.02714
1069.22933,0.02731
1067.16916,0.02764
1065.10898,0.02783
1063.04881,0.02777
1060.98864,0.02763
1058.92847,0.02744
1056.86830,0.02700
1054.80812,0.02618
1052.74795,0.02526
1050.68778,0.02443
1048.62761,0.02368
1046.56744,0.02288
1044.50726,0.02180
1042.44709,0.02041
1040.38692,0.01892
1038.32675,0.01767
1036.26657,0.01677
1034.20640,0.01595
1032.14623,0.01482
1030.08606,0.01356
1028.02589,0.01273
1025.96571,0.01214
1023.90554,0.01135
1021.84537,0.01063
1019.78520,0.01019
1017.72503,0.00998
1015.66485,0.00985
1013.60468,0.00963
1011.54451,0.00941
1009.48434,0.00929
1007.42417,0.00953
1005.36399,0.01024
1003.30382,0.01110
1001.24365,0.01179
999.18348,0.01219
997.12330,0.01243
995.06313,0.01302
993.00296,0.01410
990.94279,0.01502
988.88262,0.01548
986.82244,0.01574
984.76227,0.01576
982.70210,0.01573
980.64193,0.01584
978.58176,0.01564
976.52158,0.01493
974.46141,0.01415
972.40124,0.01372
970.34107,0.01328
968.28089,0.01233
966.22072,0.01127
964.16055,0.01060
962.10038,0.01002
960.04021,0.00931
957.98003,0.00851
955.91986,0.00762
953.85969,0.00670
951.79952,0.00589
949.73935,0.00535
947.67917,0.00502
945.61900,0.00458
943.55883,0.00413
941.49866,0.00377
939.43849,0.00324
937.37831,0.00266
935.31814,0.00210
933.25797,0.00163
931.19780,0.00140
929.13762,0.00118
927.07745,0.00089
925.01728,0.00087
922.95711,0.00103
920.89694,0.00093
918.83676,0.00066
916.77659,0.00053
914.71642,0.00059
912.65625,0.00060
910.59608,0.00037
908.53590,0.00019
906.47573,0.00032
904.41556,0.00057
902.35539,0.00073
900.29522,0.00077
898.23504,0.00071
896.17487,0.00062
894.11470,0.00067
892.05453,0.00103
889.99435,0.00153
887.93418,0.00183
885.87401,0.00183
883.81384,0.00183
881.75367,0.00236
879.69349,0.00318
877.63332,0.00384
875.57315,0.00417
873.51298,0.00405
871.45281,0.00386
869.39263,0.00418
867.33246,0.00444
865.27229,0.00410
863.21212,0.00378
861.15194,0.00412
859.09177,0.00489
857.03160,0.00536
854.97143,0.00531
852.91126,0.00508
850.85108,0.00501
848.79091,0.00493
846.73074,0.00467
844.67057,0.00446
842.61040,0.00445
840.55022,0.00457
838.49005,0.00471
836.42988,0.00451
834.36971,0.00384
832.30954,0.00364
830.24936,0.00404
828.18919,0.00395
826.12902,0.00330
824.06885,0.00291
822.00867,0.00287
819.94850,0.00293
817.88833,0.00289
815.82816,0.00266
813.76799,0.00244
811.70781,0.00246
809.64764,0.00280
807.58747,0.00291
805.52730,0.00270
803.46713,0.00251
801.40695,0.00212
799.34678,0.00154
797.28661,0.00140
795.22644,0.00158
793.16627,0.00145
791.10609,0.00104
789.04592,0.00077
786.98575,0.00100
784.92558,0.00120
782.86540,0.00093
780.80523,0.00079
778.74506,0.00104
776.68489,0.00130
774.62472,0.00144
772.56454,0.00150
770.50437,0.00134
768.44420,0.00132
766.38403,0.00170
764.32386,0.00197
762.26368,0.00180
760.20351,0.00135
758.14334,0.00116
756.08317,0.00134
754.02299,0.00136
751.96282,0.00170
749.90265,0.00257
747.84248,0.00279
745.78231,0.00217
743.72213,0.00158
741.66196,0.00129
739.60179,0.00116
737.54162,0.00121
735.48145,0.00140
733.42127,0.00135
731.36110,0.00094
729.30093,0.00083
727.24076,0.00121
725.18059,0.00149
723.12041,0.00196
721.06024,0.00201
719.00007,0.00222
716.93990,0.00219
714.87972,0.00160
712.81955,0.00101
710.75938,0.00089
708.69921,0.00131
706.63904,0.00196
704.57886,0.00248
702.51869,0.00254
700.45852,0.00227
698.39835,0.00241
696.33818,0.00322
694.27800,0.00383
692.21783,0.00348
690.15766,0.00247
688.09749,0.00156
686.03731,0.00098
683.97714,0.00084
681.91697,0.00124
679.85680,0.00153
677.79663,0.00139
675.73645,0.00135
673.67628,0.00166
671.61611,0.00200
669.55594,0.00278
667.49577,0.00402
665.43559,0.00369
663.37542,0.00416
661.31525,0.00491
659.25508,0.00473
657.19491,0.00351
655.13473,0.00247
653.07456,0.00232
651.01439,0.00251
648.95422,0.00304
646.89404,0.00457
644.83387,0.00612
642.77370,0.00598
640.71353,0.00471
638.65336,0.00421
636.59318,0.00461
634.53301,0.00496
632.47284,0.00442
630.41267,0.00294
628.35250,0.00185
626.29232,0.00183
624.23215,0.00189
622.17198,0.00222
620.11181,0.00381
618.05164,0.00612
615.99146,0.00653
613.93129,0.00519
611.87112,0.00518
609.81095,0.00570
607.75077,0.00372
605.69060,0.00043
603.63043,0.00000
601.57026,0.00006
599.51009,0.00000
