3996.73391,-0.00063
3994.67373,-0.00065
3992.61356,-0.00055
3990.55339,-0.00057
3988.49322,-0.00062
3986.43305,-0.00050
3984.37287,-0.00039
3982.31270,-0.00029
3980.25253,-0.00013
3978.19236,0.00003
3976.13219,0.00009
3974.07201,0.00008
3972.01184,0.00009
3969.95167,0.00018
3967.89150,0.00051
3965.83133,0.00099
3963.77115,0.00105
3961.71098,0.00072
3959.65081,0.00065
3957.59064,0.00090
3955.53046,0.00122
3953.47029,0.00142
3951.41012,0.00111
3949.34995,0.00034
3947.28978,0.00000
3945.22960,0.00030
3943.16943,0.00059
3941.10926,0.00089
3939.04909,0.00135
3936.98892,0.00163
3934.92874,0.00144
3932.86857,0.00091
3930.80840,0.00074
3928.74823,0.00122
3926.68805,0.00167
3924.62788,0.00160
3922.56771,0.00141
3920.50754,0.00142
3918.44737,0.00124
3916.38719,0.00128
3914.32702,0.00212
3912.26685,0.00316
3910.20668,0.00384
3908.14651,0.00412
3906.08633,0.00353
3904.02616,0.00166
3901.96599,0.00000
3899.90582,0.00005
3897.84565,0.00108
3895.78547,0.00202
3893.72530,0.00248
3891.66513,0.00244
3889.60496,0.00243
3887.54478,0.00258
3885.48461,0.00250
3883.42444,0.00219
3881.36427,0.00186
3879.30410,0.00176
3877.24392,0.00233
3875.18375,0.00291
3873.12358,0.00272
3871.06341,0.00198
3869.00324,0.00143
3866.94306,0.00160
3864.88289,0.00183
3862.82272,0.00151
3860.76255,0.00136
3858.70237,0.00176
3856.64220,0.00232
3854.58203,0.00257
3852.52186,0.00195
3850.46169,0.00159
3848.40151,0.00184
3846.34134,0.00242
3844.28117,0.00302
3842.22100,0.00322
3840.16083,0.00292
3838.10065,0.00236
3836.04048,0.00215
3833.98031,0.00235
3831.92014,0.00244
3829.85997,0.00265
3827.79979,0.00315
3825.73962,0.00358
3823.67945,0.00382
3821.61928,0.00363
3819.55910,0.00301
3817.49893,0.00287
3815.43876,0.00301
3813.37859,0.00313
3811.31842,0.00335
3809.25824,0.00375
3807.19807,0.00401
3805.13790,0.00438
3803.07773,0.00510
3801.01756,0.00529
3798.95738,0.00499
3796.89721,0.00488
3794.83704,0.00494
3792.77687,0.00509
3790.71670,0.00521
3788.65652,0.00530
3786.59635,0.00559
3784.53618,0.00596
3782.47601,0.00619
3780.41583,0.00612
3778.35566,0.00575
3776.29549,0.00562
3774.23532,0.00600
3772.17515,0.00647
3770.11497,0.00622
3768.05480,0.00523
3765.99463,0.00452
3763.93446,0.00460
3761.87429,0.00500
3759.81411,0.00472
3757.75394,0.00372
3755.69377,0.00339
3753.63360,0.00386
3751.57342,0.00363
3749.51325,0.00197
3747.45308,0.00062
3745.39291,0.00000
3743.33274,0.00044
3741.27256,0.00174
3739.21239,0.00260
3737.15222,0.00253
3735.09205,0.00185
3733.03188,0.00175
3730.97170,0.00242
3728.91153,0.00292
3726.85136,0.00281
3724.79119,0.00252
3722.73102,0.00263
3720.67084,0.00320
3718.61067,0.00362
3716.55050,0.00391
3714.49033,0.00420
3712.43015,0.00420
3710.36998,0.00389
3708.30981,0.00396
3706.24964,0.00458
3704.18947,0.00519
3702.12929,0.00532
3700.06912,0.00518
3698.00895,0.00530
3695.94878,0.00575
3693.88861,0.00646
3691.82843,0.00706
3689.76826,0.00628
3687.70809,0.00474
3685.64792,0.00420
3683.58775,0.00438
3681.52757,0.00472
3679.46740,0.00532
3677.40723,0.00561
3675.34706,0.00499
3673.28688,0.00443
3671.22671,0.00444
3669.16654,0.00408
3667.10637,0.00379
3665.04620,0.00411
3662.98602,0.00463
3660.92585,0.00505
3658.86568,0.00520
3656.80551,0.00481
3654.74534,0.00458
3652.68516,0.00539
3650.62499,0.00588
3648.56482,0.00446
3646.50465,0.00353
3644.44447,0.00399
3642.38430,0.00472
3640.32413,0.00523
3638.26396,0.00554
3636.20379,0.00562
3634.14361,0.00548
3632.08344,0.00539
3630.02327,0.00512
3627.96310,0.00451
3625.90293,0.00451
3623.84275,0.00520
3621.78258,0.00561
3619.72241,0.00519
3617.66224,0.00446
3615.60207,0.00408
3613.54189,0.00382
3611.48172,0.00342
3609.42155,0.00337
3607.36138,0.00386
3605.30120,0.00485
3603.24103,0.00610
3601.18086,0.00685
3599.12069,0.00690
3597.06052,0.00649
3595.00034,0.00610
3592.94017,0.00603
3590.88000,0.00606
3588.81983,0.00540
3586.75966,0.00465
3584.69948,0.00509
3582.63931,0.00612
3580.57914,0.00678
3578.51897,0.00710
3576.45879,0.00741
3574.39862,0.00772
3572.33845,0.00796
3570.27828,0.00796
3568.21811,0.00727
3566.15793,0.00636
3564.09776,0.00653
3562.03759,0.00745
3559.97742,0.00832
3557.91725,0.00905
3555.85707,0.00948
3553.79690,0.00946
3551.73673,0.00908
3549.67656,0.00845
3547.61639,0.00763
3545.55621,0.00726
3543.49604,0.00796
3541.43587,0.00902
3539.37570,0.00939
3537.31552,0.00912
3535.25535,0.00913
3533.19518,0.00975
3531.13501,0.01028
3529.07484,0.01001
3527.01466,0.00907
3524.95449,0.00835
3522.89432,0.00848
3520.83415,0.00919
3518.77398,0.00998
3516.71380,0.01057
3514.65363,0.01091
3512.59346,0.01092
3510.53329,0.01067
3508.47312,0.01055
3506.41294,0.01066
3504.35277,0.01057
3502.29260,0.01035
3500.23243,0.01068
3498.17225,0.01130
3496.11208,0.01158
3494.05191,0.01159
3491.99174,0.01163
3489.93157,0.01156
3487.87139,0.01138
3485.81122,0.01145
3483.75105,0.01169
3481.69088,0.01161
3479.63071,0.01142
3477.57053,0.01168
3475.51036,0.01221
3473.45019,0.01262
3471.39002,0.01278
3469.32984,0.01263
3467.26967,0.01234
3465.20950,0.01219
3463.14933,0.01219
3461.08916,0.01219
3459.02898,0.01244
3456.96881,0.01284
3454.90864,0.01305
3452.84847,0.01320
3450.78830,0.01344
3448.72812,0.01355
3446.66795,0.01350
3444.60778,0.01343
3442.54761,0.01338
3440.48744,0.01336
3438.42726,0.01351
3436.36709,0.01371
3434.30692,0.01382
3432.24675,0.01386
3430.18657,0.01392
3428.12640,0.01410
3426.06623,0.01417
3424.00606,0.01393
3421.94589,0.01367
3419.88571,0.01370
3417.82554,0.01393
3415.76537,0.01395
3413.70520,0.01377
3411.64503,0.01380
3409.58485,0.01413
3407.52468,0.01459
3405.46451,0.01482
3403.40434,0.01460
3401.34416,0.01423
3399.28399,0.01350
3397.22382,0.01365
3395.16365,0.01377
3393.10348,0.01385
3391.04330,0.01404
3388.98313,0.01428
3386.92296,0.01442
3384.86279,0.01445
3382.80262,0.01446
3380.74244,0.01443
3378.68227,0.01457
3376.62210,0.01486
3374.56193,0.01505
3372.50176,0.01501
3370.44158,0.01491
3368.38141,0.01484
3366.32124,0.01475
3364.26107,0.01467
3362.20089,0.01465
3360.14072,0.01472
3358.08055,0.01480
3356.02038,0.01492
3353.96021,0.01524
3351.90003,0.01548
3349.83986,0.01540
3347.77969,0.01523
3345.71952,0.01517
3343.65935,0.01513
3341.59917,0.01502
3339.53900,0.01485
3337.47883,0.01470
3335.41866,0.01470
3333.35849,0.01484
3331.29831,0.01505
3329.23814,0.01525
3327.17797,0.01536
3325.11780,0.01541
3323.05762,0.01538
3320.99745,0.01535
3318.93728,0.01546
3316.87711,0.01561
3314.81694,0.01562
3312.75676,0.01559
3310.69659,0.01555
3308.63642,0.01549
3306.57625,0.01550
3304.51608,0.01561
3302.45590,0.01572
3300.39573,0.01577
3298.33556,0.01583
3296.27539,0.01597
3294.21521,0.01592
3292.15504,0.01554
3290.09487,0.01519
3288.03470,0.01526
3285.97453,0.01565
3283.91435,0.01600
3281.85418,0.01604
3279.79401,0.01569
3277.73384,0.01530
3275.67367,0.01530
3273.61349,0.01554
3271.55332,0.01571
3269.49315,0.01577
3267.43298,0.01575
3265.37281,0.01568
3263.31263,0.01562
3261.25246,0.01563
3259.19229,0.01578
3257.13212,0.01589
3255.07194,0.01573
3253.01177,0.01552
3250.95160,0.01550
3248.89143,0.01559
3246.83126,0.01564
3244.77108,0.01560
3242.71091,0.01564
3240.65074,0.01578
3238.59057,0.01581
3236.53040,0.01566
3234.47022,0.01539
3232.41005,0.01521
3230.34988,0.01516
3228.28971,0.01523
3226.22954,0.01538
3224.16936,0.01541
3222.10919,0.01531
3220.04902,0.01526
3217.98885,0.01525
3215.92867,0.01521
3213.86850,0.01515
3211.80833,0.01510
3209.74816,0.01511
3207.68799,0.01521
3205.62781,0.01543
3203.56764,0.01555
3201.50747,0.01530
3199.44730,0.01490
3197.38713,0.01477
3195.32695,0.01491
3193.26678,0.01507
3191.20661,0.01521
3189.14644,0.01540
3187.08626,0.01543
3185.02609,0.01527
3182.96592,0.01520
3180.90575,0.01517
3178.84558,0.01492
3176.78540,0.01476
3174.72523,0.01484
3172.66506,0.01488
3170.60489,0.01484
3168.54472,0.01478
3166.48454,0.01467
3164.42437,0.01457
3162.36420,0.01453
3160.30403,0.01446
3158.24386,0.01436
3156.18368,0.01432
3154.12351,0.01441
3152.06334,0.01466
3150.00317,0.01496
3147.94299,0.01504
3145.88282,0.01484
3143.82265,0.01470
3141.76248,0.01475
3139.70231,0.01486
3137.64213,0.01485
3135.58196,0.01463
3133.52179,0.01430
3131.46162,0.01418
3129.40145,0.01419
3127.34127,0.01414
3125.28110,0.01409
3123.22093,0.01403
3121.16076,0.01383
3119.10058,0.01358
3117.04041,0.01348
3114.98024,0.01354
3112.92007,0.01368
3110.85990,0.01382
3108.79972,0.01389
3106.73955,0.01389
3104.67938,0.01383
3102.61921,0.01371
3100.55904,0.01368
3098.49886,0.01382
3096.43869,0.01389
3094.37852,0.01378
3092.31835,0.01370
3090.25818,0.01374
3088.19800,0.01379
3086.13783,0.01384
3084.07766,0.01392
3082.01749,0.01383
3079.95731,0.01351
3077.89714,0.01328
3075.83697,0.01327
3073.77680,0.01334
3071.71663,0.01341
3069.65645,0.01330
3067.59628,0.01303
3065.53611,0.01305
3063.47594,0.01335
3061.41577,0.01346
3059.35559,0.01338
3057.29542,0.01328
3055.23525,0.01322
3053.17508,0.01327
3051.11491,0.01329
3049.05473,0.01309
3046.99456,0.01274
3044.93439,0.01254
3042.87422,0.01250
3040.81404,0.01249
3038.75387,0.01248
3036.69370,0.01234
3034.63353,0.01218
3032.57336,0.01221
3030.51318,0.01242
3028.45301,0.01250
3026.39284,0.01240
3024.33267,0.01229
3022.27250,0.01223
3020.21232,0.01216
3018.15215,0.01199
3016.09198,0.01169
3014.03181,0.01143
3011.97163,0.01144
3009.91146,0.01160
3007.85129,0.01167
3005.79112,0.01172
3003.73095,0.01184
3001.67077,0.01202
2999.61060,0.01234
2997.55043,0.01238
2995.49026,0.01209
2993.43009,0.01171
2991.36991,0.01159
2989.30974,0.01157
2987.24957,0.01147
2985.18940,0.01147
2983.12923,0.01167
2981.06905,0.01183
2979.00888,0.01179
2976.94871,0.01165
2974.88854,0.01169
2972.82836,0.01196
2970.76819,0.01216
2968.70802,0.01215
2966.64785,0.01199
2964.58768,0.01186
2962.52750,0.01194
2960.46733,0.01215
2958.40716,0.01221
2956.34699,0.01207
2954.28682,0.01198
2952.22664,0.01195
2950.16647,0.01187
2948.10630,0.01184
2946.04613,0.01179
2943.98596,0.01181
2941.92578,0.01194
2939.86561,0.01199
2937.80544,0.01201
2935.74527,0.01204
2933.68509,0.01194
2931.62492,0.01171
2929.56475,0.01163
2927.50458,0.01182
2925.44441,0.01201
2923.38423,0.01206
2921.32406,0.01201
2919.26389,0.01191
2917.20372,0.01181
2915.14355,0.01170
2913.08337,0.01148
2911.02320,0.01124
2908.96303,0.01115
2906.90286,0.01123
2904.84268,0.01130
2902.78251,0.01123
2900.72234,0.01107
2898.66217,0.01092
2896.60200,0.01092
2894.54182,0.01101
2892.48165,0.01099
2890.42148,0.01090
2888.36131,0.01079
2886.30114,0.01065
2884.24096,0.01051
2882.18079,0.01037
2880.12062,0.01039
2878.06045,0.01052
2876.00028,0.01053
2873.94010,0.01047
2871.87993,0.01048
2869.81976,0.01047
2867.75959,0.01041
2865.69941,0.01039
2863.63924,0.01052
2861.57907,0.01069
2859.51890,0.01064
2857.45873,0.01035
2855.39855,0.01014
2853.33838,0.01020
2851.27821,0.01033
2849.21804,0.01028
2847.15787,0.01014
2845.09769,0.00997
2843.03752,0.00969
2840.97735,0.00952
2838.91718,0.00946
2836.85700,0.00938
2834.79683,0.00934
2832.73666,0.00948
2830.67649,0.00960
2828.61632,0.00944
2826.55614,0.00931
2824.49597,0.00945
2822.43580,0.00950
2820.37563,0.00930
2818.31546,0.00906
2816.25528,0.00892
2814.19511,0.00890
2812.13494,0.00890
2810.07477,0.00885
2808.01460,0.00876
2805.95442,0.00874
2803.89425,0.00878
2801.83408,0.00877
2799.77391,0.00868
2797.71373,0.00863
2795.65356,0.00871
2793.59339,0.00882
2791.53322,0.00891
2789.47305,0.00891
2787.41287,0.00877
2785.35270,0.00856
2783.29253,0.00838
2781.23236,0.00828
2779.17219,0.00838
2777.11201,0.00858
2775.05184,0.00864
2772.99167,0.00852
2770.93150,0.00839
2768.87133,0.00836
2766.81115,0.00834
2764.75098,0.00826
2762.69081,0.00818
2760.63064,0.00810
2758.57046,0.00808
2756.51029,0.00815
2754.45012,0.00820
2752.38995,0.00810
2750.32978,0.00801
2748.26960,0.00806
2746.20943,0.00807
2744.14926,0.00800
2742.08909,0.00792
2740.02892,0.00784
2737.96874,0.00783
2735.90857,0.00786
2733.84840,0.00787
2731.78823,0.00786
2729.72805,0.00785
2727.66788,0.00781
2725.60771,0.00788
2723.54754,0.00792
2721.48737,0.00783
2719.42719,0.00775
2717.36702,0.00768
2715.30685,0.00762
2713.24668,0.00772
2711.18651,0.00779
2709.12633,0.00759
2707.06616,0.00730
2705.00599,0.00724
2702.94582,0.00743
2700.88565,0.00759
2698.82547,0.00756
2696.76530,0.00744
2694.70513,0.00741
2692.64496,0.00743
2690.58478,0.00735
2688.52461,0.00722
2686.46444,0.00716
2684.40427,0.00712
2682.34410,0.00711
2680.28392,0.00713
2678.22375,0.00712
2676.16358,0.00714
2674.10341,0.00719
2672.04324,0.00709
2669.98306,0.00682
2667.92289,0.00670
2665.86272,0.00690
2663.80255,0.00725
2661.74238,0.00751
2659.68220,0.00760
2657.62203,0.00751
2655.56186,0.00731
2653.50169,0.00714
2651.44151,0.00714
2649.38134,0.00731
2647.32117,0.00747
2645.26100,0.00746
2643.20083,0.00737
2641.14065,0.00739
2639.08048,0.00753
2637.02031,0.00751
2634.96014,0.00731
2632.89997,0.00719
2630.83979,0.00709
2628.77962,0.00695
2626.71945,0.00701
2624.65928,0.00723
2622.59910,0.00721
2620.53893,0.00703
2618.47876,0.00699
2616.41859,0.00701
2614.35842,0.00719
2612.29824,0.00735
2610.23807,0.00716
2608.17790,0.00696
2606.11773,0.00692
2604.05756,0.00680
2601.99738,0.00662
2599.93721,0.00641
2597.87704,0.00627
2595.81687,0.00641
2593.75670,0.00669
2591.69652,0.00683
2589.63635,0.00678
2587.57618,0.00660
2585.51601,0.00652
2583.45583,0.00663
2581.39566,0.00673
2579.33549,0.00673
2577.27532,0.00669
2575.21515,0.00668
2573.15497,0.00670
2571.09480,0.00667
2569.03463,0.00656
2566.97446,0.00651
2564.91429,0.00646
2562.85411,0.00619
2560.79394,0.00589
2558.73377,0.00591
2556.67360,0.00605
2554.61342,0.00620
2552.55325,0.00645
2550.49308,0.00653
2548.43291,0.00636
2546.37274,0.00630
2544.31256,0.00627
2542.25239,0.00592
2540.19222,0.00560
2538.13205,0.00576
2536.07188,0.00607
2534.01170,0.00616
2531.95153,0.00600
2529.89136,0.00585
2527.83119,0.00584
2525.77102,0.00580
2523.71084,0.00573
2521.65067,0.00577
2519.59050,0.00582
2517.53033,0.00586
2515.47015,0.00610
2513.40998,0.00643
2511.34981,0.00659
2509.28964,0.00662
2507.22947,0.00645
2505.16929,0.00602
2503.10912,0.00576
2501.04895,0.00591
2498.98878,0.00610
2496.92861,0.00615
2494.86843,0.00622
2492.80826,0.00634
2490.74809,0.00628
2488.68792,0.00604
2486.62775,0.00588
2484.56757,0.00585
2482.50740,0.00587
2480.44723,0.00601
2478.38706,0.00616
2476.32688,0.00611
2474.26671,0.00595
2472.20654,0.00595
2470.14637,0.00616
2468.08620,0.00638
2466.02602,0.00650
2463.96585,0.00652
2461.90568,0.00646
2459.84551,0.00635
2457.78534,0.00629
2455.72516,0.00641
2453.66499,0.00659
2451.60482,0.00652
2449.54465,0.00624
2447.48447,0.00603
2445.42430,0.00610
2443.36413,0.00629
2441.30396,0.00627
2439.24379,0.00605
2437.18361,0.00583
2435.12344,0.00579
2433.06327,0.00595
2431.00310,0.00621
2428.94293,0.00639
2426.88275,0.00632
2424.82258,0.00601
2422.76241,0.00584
2420.70224,0.00591
2418.64207,0.00598
2416.58189,0.00602
2414.52172,0.00590
2412.46155,0.00575
2410.40138,0.00583
2408.34120,0.00602
2406.28103,0.00612
2404.22086,0.00613
2402.16069,0.00607
2400.10052,0.00575
2398.04034,0.00517
2395.98017,0.00524
2393.92000,0.00575
2391.85983,0.00620
2389.79966,0.00627
2387.73948,0.00590
2385.67931,0.00535
2383.61914,0.00473
2381.55897,0.00392
2379.49880,0.00318
2377.43862,0.00301
2375.37845,0.00324
2373.31828,0.00450
2371.25811,0.00609
2369.19793,0.00692
2367.13776,0.00829
2365.07759,0.01079
2363.01742,0.01175
2360.95725,0.01399
2358.89707,0.01452
2356.83690,0.01280
2354.77673,0.00917
2352.71656,0.00682
2350.65639,0.00912
2348.59621,0.01153
2346.53604,0.00753
2344.47587,0.00796
2342.41570,0.00993
2340.35552,0.01084
2338.29535,0.01109
2336.23518,0.01059
2334.17501,0.00972
2332.11484,0.00861
2330.05466,0.00841
2327.99449,0.00810
2325.93432,0.00861
2323.87415,0.00720
2321.81398,0.00569
2319.75380,0.00437
2317.69363,0.00498
2315.63346,0.00487
2313.57329,0.00369
2311.51312,0.00279
2309.45294,0.00251
2307.39277,0.00285
2305.33260,0.00346
2303.27243,0.00406
2301.21225,0.00427
2299.15208,0.00461
2297.09191,0.00509
2295.03174,0.00566
2292.97157,0.00634
2290.91139,0.00658
2288.85122,0.00648
2286.79105,0.00668
2284.73088,0.00718
2282.67071,0.00743
2280.61053,0.00729
2278.55036,0.00695
2276.49019,0.00666
2274.43002,0.00668
2272.36984,0.00689
2270.30967,0.00704
2268.24950,0.00686
2266.18933,0.00653
2264.12916,0.00650
2262.06898,0.00666
2260.00881,0.00650
2257.94864,0.00618
2255.88847,0.00581
2253.82830,0.00563
2251.76812,0.00571
2249.70795,0.00551
2247.64778,0.00512
2245.58761,0.00504
2243.52744,0.00521
2241.46726,0.00529
2239.40709,0.00531
2237.34692,0.00546
2235.28675,0.00605
2233.22657,0.00624
2231.16640,0.00561
2229.10623,0.00546
2227.04606,0.00589
2224.98589,0.00598
2222.92571,0.00555
2220.86554,0.00510
2218.80537,0.00510
2216.74520,0.00536
2214.68503,0.00536
2212.62485,0.00524
2210.56468,0.00521
2208.50451,0.00515
2206.44434,0.00543
2204.38417,0.00586
2202.32399,0.00597
2200.26382,0.00589
2198.20365,0.00545
2196.14348,0.00474
2194.08330,0.00450
2192.02313,0.00494
2189.96296,0.00546
2187.90279,0.00542
2185.84262,0.00517
2183.78244,0.00513
2181.72227,0.00496
2179.66210,0.00460
2177.60193,0.00445
2175.54176,0.00470
2173.48158,0.00545
2171.42141,0.00635
2169.36124,0.00655
2167.30107,0.00610
2165.24089,0.00610
2163.18072,0.00628
2161.12055,0.00490
2159.06038,0.00227
2157.00021,0.00097
2154.94003,0.00138
2152.87986,0.00256
2150.81969,0.00346
2148.75952,0.00332
2146.69935,0.00302
2144.63917,0.00329
2142.57900,0.00345
2140.51883,0.00303
2138.45866,0.00242
2136.39849,0.00223
2134.33831,0.00296
2132.27814,0.00390
2130.21797,0.00423
2128.15780,0.00408
2126.09762,0.00383
2124.03745,0.00366
2121.97728,0.00350
2119.91711,0.00351
2117.85694,0.00379
2115.79676,0.00384
2113.73659,0.00386
2111.67642,0.00437
2109.61625,0.00476
2107.55608,0.00485
2105.49590,0.00495
2103.43573,0.00482
2101.37556,0.00454
2099.31539,0.00498
2097.25521,0.00546
2095.19504,0.00545
2093.13487,0.00476
2091.07470,0.00409
2089.01453,0.00402
2086.95435,0.00435
2084.89418,0.00454
2082.83401,0.00437
2080.77384,0.00444
2078.71367,0.00474
2076.65349,0.00488
2074.59332,0.00508
2072.53315,0.00532
2070.47298,0.00548
2068.41281,0.00592
2066.35263,0.00619
2064.29246,0.00572
2062.23229,0.00524
2060.17212,0.00533
2058.11194,0.00559
2056.05177,0.00569
2053.99160,0.00590
2051.93143,0.00673
2049.87126,0.00755
2047.81108,0.00716
2045.75091,0.00616
2043.69074,0.00564
2041.63057,0.00581
2039.57040,0.00624
2037.51022,0.00630
2035.45005,0.00623
2033.38988,0.00604
2031.32971,0.00557
2029.26954,0.00559
2027.20936,0.00591
2025.14919,0.00555
2023.08902,0.00493
2021.02885,0.00498
2018.96867,0.00536
2016.90850,0.00503
2014.84833,0.00417
2012.78816,0.00405
2010.72799,0.00493
2008.66781,0.00542
2006.60764,0.00525
2004.54747,0.00517
2002.48730,0.00437
2000.42713,0.00329
1998.36695,0.00347
1996.30678,0.00388
1994.24661,0.00308
1992.18644,0.00209
1990.12626,0.00240
1988.06609,0.00351
1986.00592,0.00460
1983.94575,0.00610
1981.88558,0.00826
1979.82540,0.00941
1977.76523,0.00860
1975.70506,0.00782
1973.64489,0.00755
1971.58472,0.00605
1969.52454,0.00401
1967.46437,0.00346
1965.40420,0.00404
1963.34403,0.00437
1961.28386,0.00380
1959.22368,0.00248
1957.16351,0.00165
1955.10334,0.00225
1953.04317,0.00349
1950.98299,0.00385
1948.92282,0.00356
1946.86265,0.00350
1944.80248,0.00338
1942.74231,0.00296
1940.68213,0.00256
1938.62196,0.00248
1936.56179,0.00254
1934.50162,0.00268
1932.44145,0.00304
1930.38127,0.00349
1928.32110,0.00377
1926.26093,0.00361
1924.20076,0.00298
1922.14059,0.00263
1920.08041,0.00305
1918.02024,0.00355
1915.96007,0.00356
1913.89990,0.00347
1911.83972,0.00353
1909.77955,0.00380
1907.71938,0.00412
1905.65921,0.00417
1903.59904,0.00401
1901.53886,0.00380
1899.47869,0.00367
1897.41852,0.00354
1895.35835,0.00327
1893.29818,0.00306
1891.23800,0.00324
1889.17783,0.00353
1887.11766,0.00363
1885.05749,0.00356
1882.99731,0.00343
1880.93714,0.00333
1878.87697,0.00326
1876.81680,0.00318
1874.75663,0.00313
1872.69645,0.00320
1870.63628,0.00344
1868.57611,0.00366
1866.51594,0.00364
1864.45577,0.00350
1862.39559,0.00347
1860.33542,0.00354
1858.27525,0.00370
1856.21508,0.00400
1854.15491,0.00415
1852.09473,0.00395
1850.03456,0.00360
1847.97439,0.00331
1845.91422,0.00301
1843.85404,0.00277
1841.79387,0.00279
1839.73370,0.00303
1837.67353,0.00317
1835.61336,0.00307
1833.55318,0.00309
1831.49301,0.00339
1829.43284,0.00345
1827.37267,0.00330
1825.31250,0.00347
1823.25232,0.00386
1821.19215,0.00396
1819.13198,0.00354
1817.07181,0.00295
1815.01163,0.00276
1812.95146,0.00274
1810.89129,0.00260
1808.83112,0.00254
1806.77095,0.00257
1804.71077,0.00225
1802.65060,0.00163
1800.59043,0.00150
1798.53026,0.00193
1796.47009,0.00247
1794.40991,0.00299
1792.34974,0.00297
1790.28957,0.00229
1788.22940,0.00180
1786.16923,0.00166
1784.10905,0.00179
1782.04888,0.00213
1779.98871,0.00233
1777.92854,0.00239
1775.86836,0.00275
1773.80819,0.00329
1771.74802,0.00302
1769.68785,0.00192
1767.62768,0.00138
1765.56750,0.00176
1763.50733,0.00228
1761.44716,0.00237
1759.38699,0.00217
1757.32682,0.00201
1755.26664,0.00188
1753.20647,0.00163
1751.14630,0.00132
1749.08613,0.00128
1747.02596,0.00147
1744.96578,0.00171
1742.90561,0.00212
1740.84544,0.00252
1738.78527,0.00255
1736.72509,0.00227
1734.66492,0.00172
1732.60475,0.00123
1730.54458,0.00150
1728.48441,0.00210
1726.42423,0.00250
1724.36406,0.00256
1722.30389,0.00271
1720.24372,0.00328
1718.18355,0.00343
1716.12337,0.00217
1714.06320,0.00115
1712.00303,0.00116
1709.94286,0.00173
1707.88268,0.00225
1705.82251,0.00209
1703.76234,0.00157
1701.70217,0.00167
1699.64200,0.00199
1697.58182,0.00188
1695.52165,0.00176
1693.46148,0.00188
1691.40131,0.00209
1689.34114,0.00249
1687.28096,0.00330
1685.22079,0.00416
1683.16062,0.00385
1681.10045,0.00309
1679.04028,0.00320
1676.98010,0.00412
1674.91993,0.00519
1672.85976,0.00607
1670.79959,0.00674
1668.73941,0.00684
1666.67924,0.00663
1664.61907,0.00678
1662.55890,0.00694
1660.49873,0.00653
1658.43855,0.00623
1656.37838,0.00683
1654.31821,0.00794
1652.25804,0.00812
1650.19787,0.00797
1648.13769,0.00811
1646.07752,0.00796
1644.01735,0.00719
1641.95718,0.00674
1639.89701,0.00719
1637.83683,0.00819
1635.77666,0.00866
1633.71649,0.00818
1631.65632,0.00773
1629.59614,0.00779
1627.53597,0.00812
1625.47580,0.00832
1623.41563,0.00814
1621.35546,0.00782
1619.29528,0.00819
1617.23511,0.00888
1615.17494,0.00863
1613.11477,0.00797
1611.05460,0.00786
1608.99442,0.00805
1606.93425,0.00804
1604.87408,0.00793
1602.81391,0.00792
1600.75373,0.00797
1598.69356,0.00808
1596.63339,0.00820
1594.57322,0.00821
1592.51305,0.00808
1590.45287,0.00791
1588.39270,0.00777
1586.33253,0.00757
1584.27236,0.00726
1582.21219,0.00698
1580.15201,0.00714
1578.09184,0.00763
1576.03167,0.00760
1573.97150,0.00688
1571.91133,0.00651
1569.85115,0.00642
1567.79098,0.00584
1565.73081,0.00515
1563.67064,0.00512
1561.61046,0.00613
1559.55029,0.00684
1557.49012,0.00514
1555.42995,0.00319
1553.36978,0.00232
1551.30960,0.00219
1549.24943,0.00222
1547.18926,0.00217
1545.12909,0.00239
1543.06892,0.00347
1541.00874,0.00477
1538.94857,0.00438
1536.88840,0.00314
1534.82823,0.00254
1532.76805,0.00241
1530.70788,0.00216
1528.64771,0.00196
1526.58754,0.00182
1524.52737,0.00188
1522.46719,0.00197
1520.40702,0.00147
1518.34685,0.00087
1516.28668,0.00052
1514.22651,0.00024
1512.16633,0.00000
1510.10616,0.00000
1508.04599,0.00063
1505.98582,0.00167
1503.92565,0.00214
1501.86547,0.00212
1499.80530,0.00242
1497.74513,0.00283
1495.68496,0.00305
1493.62478,0.00339
1491.56461,0.00360
1489.50444,0.00335
1487.44427,0.00325
1485.38410,0.00357
1483.32392,0.00384
1481.26375,0.00391
1479.20358,0.00391
1477.14341,0.00388
1475.08324,0.00382
1473.02306,0.00386
1470.96289,0.00406
1468.90272,0.00428
1466.84255,0.00458
1464.78238,0.00475
1462.72220,0.00470
1460.66203,0.00481
1458.60186,0.00465
1456.54169,0.00371
1454.48151,0.00326
1452.42134,0.00357
1450.36117,0.00434
1448.30100,0.00510
1446.24083,0.00552
1444.18065,0.00571
1442.12048,0.00577
1440.06031,0.00564
1438.00014,0.00522
1435.93997,0.00470
1433.87979,0.00465
1431.81962,0.00495
1429.75945,0.00528
1427.69928,0.00541
1425.63910,0.00544
1423.57893,0.00540
1421.51876,0.00509
1419.45859,0.00438
1417.39842,0.00409
1415.33824,0.00479
1413.27807,0.00557
1411.21790,0.00576
1409.15773,0.00571
1407.09756,0.00577
1405.03738,0.00579
1402.97721,0.00574
1400.91704,0.00552
1398.85687,0.00496
1396.79670,0.00448
1394.73652,0.00456
1392.67635,0.00491
1390.61618,0.00511
1388.55601,0.00505
1386.49583,0.00514
1384.43566,0.00561
1382.37549,0.00598
1380.31532,0.00594
1378.25515,0.00580
1376.19497,0.00579
1374.13480,0.00565
1372.07463,0.00550
1370.01446,0.00560
1367.95429,0.00578
1365.89411,0.00566
1363.83394,0.00506
1361.77377,0.00460
1359.71360,0.00500
1357.65343,0.00571
1355.59325,0.00610
1353.53308,0.00625
1351.47291,0.00638
1349.41274,0.00652
1347.35256,0.00655
1345.29239,0.00635
1343.23222,0.00577
1341.17205,0.00478
1339.11188,0.00402
1337.05170,0.00439
1334.99153,0.00538
1332.93136,0.00602
1330.87119,0.00619
1328.81102,0.00627
1326.75084,0.00635
1324.69067,0.00635
1322.63050,0.00624
1320.57033,0.00599
1318.51015,0.00563
1316.44998,0.00544
1314.38981,0.00554
1312.32964,0.00586
1310.26947,0.00626
1308.20929,0.00659
1306.14912,0.00680
1304.08895,0.00692
1302.02878,0.00691
1299.96861,0.00677
1297.90843,0.00659
1295.84826,0.00657
1293.78809,0.00666
1291.72792,0.00662
1289.66775,0.00643
1287.60757,0.00638
1285.54740,0.00652
1283.48723,0.00661
1281.42706,0.00656
1279.36688,0.00658
1277.30671,0.00674
1275.24654,0.00683
1273.18637,0.00674
1271.12620,0.00657
1269.06602,0.00645
1267.00585,0.00648
1264.94568,0.00666
1262.88551,0.00685
1260.82534,0.00696
1258.76516,0.00699
1256.70499,0.00695
1254.64482,0.00689
1252.58465,0.00681
1250.52447,0.00675
1248.46430,0.00686
1246.40413,0.00694
1244.34396,0.00684
1242.28379,0.00675
1240.22361,0.00667
1238.16344,0.00650
1236.10327,0.00642
1234.04310,0.00647
1231.98293,0.00647
1229.92275,0.00645
1227.86258,0.00643
1225.80241,0.00633
1223.74224,0.00621
1221.68207,0.00612
1219.62189,0.00602
1217.56172,0.00598
1215.50155,0.00599
1213.44138,0.00592
1211.38120,0.00575
1209.32103,0.00555
1207.26086,0.00549
1205.20069,0.00562
1203.14052,0.00575
1201.08034,0.00577
1199.02017,0.00561
1196.96000,0.00550
1194.89983,0.00542
1192.83966,0.00543
1190.77948,0.00548
1188.71931,0.00535
1186.65914,0.00525
1184.59897,0.00544
1182.53880,0.00566
1180.47862,0.00575
1178.41845,0.00576
1176.35828,0.00573
1174.29811,0.00581
1172.23793,0.00605
1170.17776,0.00629
1168.11759,0.00649
1166.05742,0.00660
1163.99725,0.00669
1161.93707,0.00686
1159.87690,0.00703
1157.81673,0.00722
1155.75656,0.00749
1153.69639,0.00773
1151.63621,0.00787
1149.57604,0.00800
1147.51587,0.00816
1145.45570,0.00842
1143.39552,0.00875
1141.33535,0.00909
1139.27518,0.00945
1137.21501,0.00982
1135.15484,0.01024
1133.09466,0.01067
1131.03449,0.01110
1128.97432,0.01155
1126.91415,0.01193
1124.85398,0.01218
1122.79380,0.01234
1120.73363,0.01261
1118.67346,0.01308
1116.61329,0.01361
1114.55312,0.01414
1112.49294,0.01462
1110.43277,0.01502
1108.37260,0.01537
1106.31243,0.01570
1104.25225,0.01600
1102.19208,0.01632
1100.13191,0.01664
1098.07174,0.01688
1096.01157,0.01707
1093.95139,0.01738
1091.89122,0.01767
1089.83105,0.01782
1087.77088,0.01790
1085.71071,0.01799
1083.65053,0.01824
1081.59036,0.01869
1079.53019,0.01908
1077.47002,0.01925
1075.40985,0.01937
1073.34967,0.01959
1071.28950,0.01973
1069.22933,0.01965
1067.16916,0.01957
1065.10898,0.01955
1063.04881,0.01959
1060.98864,0.01965
1058.92847,0.01961
1056.86830,0.01937
1054.80812,0.01905
1052.74795,0.01882
1050.68778,0.01862
1048.62761,0.01823
1046.56744,0.01764
1044.50726,0.01711
1042.44709,0.01675
1040.38692,0.01643
1038.32675,0.01606
1036.26657,0.01558
1034.20640,0.01507
1032.14623,0.01454
1030.08606,0.01409
1028.02589,0.01373
1025.96571,0.01344
1023.90554,0.01340
1021.84537,0.01335
1019.78520,0.01312
1017.72503,0.01302
1015.66485,0.01302
1013.60468,0.01287
1011.54451,0.01274
1009.48434,0.01266
1007.42417,0.01255
1005.36399,0.01260
1003.30382,0.01279
1001.24365,0.01295
999.18348,0.01322
997.12330,0.01369
995.06313,0.01412
993.00296,0.01443
990.94279,0.01467
988.88262,0.01489
986.82244,0.01508
984.76227,0.01516
982.70210,0.01521
980.64193,0.01544
978.58176,0.01571
976.52158,0.01569
974.46141,0.01543
972.40124,0.01534
970.34107,0.01531
968.28089,0.01501
966.22072,0.01455
964.16055,0.01420
962.10038,0.01398
960.04021,0.01372
957.98003,0.01336
955.91986,0.01298
953.85969,0.01262
951.79952,0.01233
949.73935,0.01213
947.67917,0.01182
945.61900,0.01123
943.55883,0.01065
941.49866,0.01037
939.43849,0.01032
937.37831,0.01036
935.31814,0.01030
933.25797,0.01004
931.19780,0.00976
929.13762,0.00946
927.07745,0.00916
925.01728,0.00903
922.95711,0.00888
920.89694,0.00854
918.83676,0.00835
916.77659,0.00855
914.71642,0.00889
912.65625,0.00893
910.59608,0.00869
908.53590,0.00857
906.47573,0.00867
904.41556,0.00884
902.35539,0.00890
900.29522,0.00882
898.23504,0.00873
896.17487,0.00872
894.11470,0.00881
892.05453,0.00908
889.99435,0.00935
887.93418,0.00940
885.87401,0.00945
883.81384,0.00949
881.75367,0.00941
879.69349,0.00950
877.63332,0.00982
875.57315,0.00998
873.51298,0.00998
871.45281,0.01016
869.39263,0.01040
867.33246,0.01040
865.27229,0.01044
863.21212,0.01072
861.15194,0.01087
859.09177,0.01082
857.03160,0.01085
854.97143,0.01096
852.91126,0.01096
850.85108,0.01088
848.79091,0.01094
846.73074,0.01090
844.67057,0.01053
842.61040,0.01013
840.55022,0.00995
838.49005,0.00992
836.42988,0.00989
834.36971,0.00984
832.30954,0.00977
830.24936,0.00942
828.18919,0.00889
826.12902,0.00863
824.06885,0.00862
822.00867,0.00875
819.94850,0.00896
817.88833,0.00904
815.82816,0.00896
813.76799,0.00873
811.70781,0.00832
809.64764,0.00809
807.58747,0.00813
805.52730,0.00811
803.46713,0.00790
801.40695,0.00751
799.34678,0.00715
797.28661,0.00732
795.22644,0.00787
793.16627,0.00799
791.10609,0.00770
789.04592,0.00773
786.98575,0.00803
784.92558,0.00806
782.86540,0.00806
780.80523,0.00829
778.74506,0.00823
776.68489,0.00771
774.62472,0.00725
772.56454,0.00714
770.50437,0.00721
768.44420,0.00726
766.38403,0.00710
764.32386,0.00698
762.26368,0.00729
760.20351,0.00771
758.14334,0.00797
756.08317,0.00804
754.02299,0.00766
751.96282,0.00719
749.90265,0.00708
747.84248,0.00694
745.78231,0.00658
743.72213,0.00656
741.66196,0.00702
739.60179,0.00761
737.54162,0.00800
735.48145,0.00787
733.42127,0.00741
731.36110,0.00715
729.30093,0.00723
727.24076,0.00735
725.18059,0.00724
723.12041,0.00740
721.06024,0.00693
719.00007,0.00761
716.93990,0.00774
714.87972,0.00714
712.81955,0.00697
710.75938,0.00724
708.69921,0.00725
706.63904,0.00695
704.57886,0.00681
702.51869,0.00695
700.45852,0.00721
698.39835,0.00754
696.33818,0.00813
694.27800,0.00874
692.21783,0.00879
690.15766,0.00829
688.09749,0.00812
686.03731,0.00924
683.97714,0.01092
681.91697,0.01161
679.85680,0.01149
677.79663,0.01149
675.73645,0.01175
673.67628,0.01279
671.61611,0.01476
669.55594,0.01029
667.49577,0.00312
665.43559,0.01424
663.37542,0.01304
661.31525,0.01024
659.25508,0.00990
657.19491,0.01027
655.13473,0.01018
653.07456,0.00941
651.01439,0.00844
648.95422,0.00795
646.89404,0.00827
644.83387,0.00782
642.77370,0.00728
640.71353,0.00716
638.65336,0.00640
636.59318,0.00480
634.53301,0.00409
632.47284,0.00498
630.41267,0.00591
628.35250,0.00589
626.29232,0.00556
624.23215,0.00533
622.17198,0.00501
620.11181,0.00466
618.05164,0.00383
615.99146,0.00258
613.93129,0.00289
611.87112,0.00319
609.81095,0.00161
607.75077,0.00044
605.69060,0.00038
603.63043,0.00025
601.57026,0.00000
599.51009,0.00000
