3996.73391,-0.00023
3994.67373,-0.00033
3992.61356,-0.00038
3990.55339,-0.00030
3988.49322,-0.00011
3986.43305,-0.00001
3984.37287,-0.00005
3982.31270,0.00007
3980.25253,0.00042
3978.19236,0.00071
3976.13219,0.00084
3974.07201,0.00078
3972.01184,0.00056
3969.95167,0.00043
3967.89150,0.00065
3965.83133,0.00090
3963.77115,0.00065
3961.71098,0.00024
3959.65081,0.00037
3957.59064,0.00081
3955.53046,0.00109
3953.47029,0.00123
3951.41012,0.00103
3949.34995,0.00037
3947.28978,0.00000
3945.22960,0.00031
3943.16943,0.00082
3941.10926,0.00137
3939.04909,0.00180
3936.98892,0.00180
3934.92874,0.00141
3932.86857,0.00097
3930.80840,0.00096
3928.74823,0.00136
3926.68805,0.00170
3924.62788,0.00175
3922.56771,0.00163
3920.50754,0.00148
3918.44737,0.00125
3916.38719,0.00129
3914.32702,0.00180
3912.26685,0.00236
3910.20668,0.00284
3908.14651,0.00310
3906.08633,0.00251
3904.02616,0.00098
3901.96599,0.00000
3899.90582,0.00052
3897.84565,0.00153
3895.78547,0.00197
3893.72530,0.00184
3891.66513,0.00157
3889.60496,0.00159
3887.54478,0.00181
3885.48461,0.00194
3883.42444,0.00181
3881.36427,0.00157
3879.30410,0.00164
3877.24392,0.00217
3875.18375,0.00256
3873.12358,0.00218
3871.06341,0.00118
3869.00324,0.00053
3866.94306,0.00089
3864.88289,0.00149
3862.82272,0.00138
3860.76255,0.00090
3858.70237,0.00076
3856.64220,0.00113
3854.58203,0.00195
3852.52186,0.00234
3850.46169,0.00219
3848.40151,0.00195
3846.34134,0.00209
3844.28117,0.00252
3842.22100,0.00289
3840.16083,0.00307
3838.10065,0.00297
3836.04048,0.00282
3833.98031,0.00291
3831.92014,0.00303
3829.85997,0.00307
3827.79979,0.00306
3825.73962,0.00306
3823.67945,0.00318
3821.61928,0.00327
3819.55910,0.00302
3817.49893,0.00298
3815.43876,0.00309
3813.37859,0.00307
3811.31842,0.00315
3809.25824,0.00362
3807.19807,0.00416
3805.13790,0.00447
3803.07773,0.00475
3801.01756,0.00488
3798.95738,0.00478
3796.89721,0.00474
3794.83704,0.00490
3792.77687,0.00510
3790.71670,0.00506
3788.65652,0.00496
3786.59635,0.00519
3784.53618,0.00559
3782.47601,0.00577
3780.41583,0.00567
3778.35566,0.00544
3776.29549,0.00543
3774.23532,0.00570
3772.17515,0.00593
3770.11497,0.00568
3768.05480,0.00496
3765.99463,0.00446
3763.93446,0.00443
3761.87429,0.00450
3759.81411,0.00408
3757.75394,0.00316
3755.69377,0.00273
3753.63360,0.00315
3751.57342,0.00348
3749.51325,0.00267
3747.45308,0.00133
3745.39291,0.00002
3743.33274,0.00000
3741.27256,0.00112
3739.21239,0.00186
3737.15222,0.00204
3735.09205,0.00213
3733.03188,0.00265
3730.97170,0.00302
3728.91153,0.00288
3726.85136,0.00256
3724.79119,0.00243
3722.73102,0.00284
3720.67084,0.00348
3718.61067,0.00367
3716.55050,0.00343
3714.49033,0.00359
3712.43015,0.00429
3710.36998,0.00452
3708.30981,0.00460
3706.24964,0.00496
3704.18947,0.00536
3702.12929,0.00554
3700.06912,0.00543
3698.00895,0.00525
3695.94878,0.00520
3693.88861,0.00554
3691.82843,0.00614
3689.76826,0.00614
3687.70809,0.00546
3685.64792,0.00512
3683.58775,0.00501
3681.52757,0.00511
3679.46740,0.00543
3677.40723,0.00557
3675.34706,0.00510
3673.28688,0.00450
3671.22671,0.00418
3669.16654,0.00394
3667.10637,0.00406
3665.04620,0.00464
3662.98602,0.00522
3660.92585,0.00547
3658.86568,0.00537
3656.80551,0.00498
3654.74534,0.00467
3652.68516,0.00511
3650.62499,0.00588
3648.56482,0.00572
3646.50465,0.00535
3644.44447,0.00528
3642.38430,0.00535
3640.32413,0.00570
3638.26396,0.00626
3636.20379,0.00655
3634.14361,0.00643
3632.08344,0.00620
3630.02327,0.00609
3627.96310,0.00594
3625.90293,0.00593
3623.84275,0.00600
3621.78258,0.00599
3619.72241,0.00587
3617.66224,0.00572
3615.60207,0.00551
3613.54189,0.00496
3611.48172,0.00441
3609.42155,0.00456
3607.36138,0.00560
3605.30120,0.00702
3603.24103,0.00810
3601.18086,0.00860
3599.12069,0.00848
3597.06052,0.00794
3595.00034,0.00745
3592.94017,0.00759
3590.88000,0.00788
3588.81983,0.00746
3586.75966,0.00685
3584.69948,0.00730
3582.63931,0.00815
3580.57914,0.00869
3578.51897,0.00915
3576.45879,0.00961
3574.39862,0.00981
3572.33845,0.00988
3570.27828,0.00999
3568.21811,0.00970
3566.15793,0.00906
3564.09776,0.00907
3562.03759,0.00964
3559.97742,0.01036
3557.91725,0.01129
3555.85707,0.01205
3553.79690,0.01222
3551.73673,0.01185
3549.67656,0.01122
3547.61639,0.01046
3545.55621,0.01016
3543.49604,0.01085
3541.43587,0.01189
3539.37570,0.01245
3537.31552,0.01248
3535.25535,0.01258
3533.19518,0.01295
3531.13501,0.01321
3529.07484,0.01301
3527.01466,0.01243
3524.95449,0.01211
3522.89432,0.01257
3520.83415,0.01341
3518.77398,0.01399
3516.71380,0.01432
3514.65363,0.01456
3512.59346,0.01471
3510.53329,0.01468
3508.47312,0.01472
3506.41294,0.01481
3504.35277,0.01447
3502.29260,0.01402
3500.23243,0.01439
3498.17225,0.01532
3496.11208,0.01580
3494.05191,0.01570
3491.99174,0.01565
3489.93157,0.01586
3487.87139,0.01608
3485.81122,0.01633
3483.75105,0.01659
3481.69088,0.01653
3479.63071,0.01644
3477.57053,0.01664
3475.51036,0.01683
3473.45019,0.01698
3471.39002,0.01729
3469.32984,0.01746
3467.26967,0.01734
3465.20950,0.01721
3463.14933,0.01728
3461.08916,0.01739
3459.02898,0.01753
3456.96881,0.01775
3454.90864,0.01795
3452.84847,0.01808
3450.78830,0.01821
3448.72812,0.01830
3446.66795,0.01833
3444.60778,0.01850
3442.54761,0.01859
3440.48744,0.01851
3438.42726,0.01866
3436.36709,0.01900
3434.30692,0.01930
3432.24675,0.01942
3430.18657,0.01944
3428.12640,0.01964
3426.06623,0.01987
3424.00606,0.01994
3421.94589,0.02002
3419.88571,0.02007
3417.82554,0.02015
3415.76537,0.02013
3413.70520,0.01989
3411.64503,0.01983
3409.58485,0.02010
3407.52468,0.02046
3405.46451,0.02071
3403.40434,0.02079
3401.34416,0.02089
3399.28399,0.02022
3397.22382,0.02000
3395.16365,0.01982
3393.10348,0.01992
3391.04330,0.02032
3388.98313,0.02068
3386.92296,0.02071
3384.86279,0.02057
3382.80262,0.02070
3380.74244,0.02097
3378.68227,0.02111
3376.62210,0.02130
3374.56193,0.02164
3372.50176,0.02180
3370.44158,0.02160
3368.38141,0.02139
3366.32124,0.02141
3364.26107,0.02158
3362.20089,0.02168
3360.14072,0.02161
3358.08055,0.02152
3356.02038,0.02168
3353.96021,0.02192
3351.90003,0.02190
3349.83986,0.02183
3347.77969,0.02204
3345.71952,0.02224
3343.65935,0.02219
3341.59917,0.02203
3339.53900,0.02187
3337.47883,0.02173
3335.41866,0.02165
3333.35849,0.02179
3331.29831,0.02215
3329.23814,0.02252
3327.17797,0.02273
3325.11780,0.02278
3323.05762,0.02272
3320.99745,0.02273
3318.93728,0.02296
3316.87711,0.02316
3314.81694,0.02306
3312.75676,0.02276
3310.69659,0.02252
3308.63642,0.02251
3306.57625,0.02267
3304.51608,0.02277
3302.45590,0.02271
3300.39573,0.02255
3298.33556,0.02258
3296.27539,0.02289
3294.21521,0.02305
3292.15504,0.02286
3290.09487,0.02274
3288.03470,0.02292
3285.97453,0.02327
3283.91435,0.02369
3281.85418,0.02379
3279.79401,0.02332
3277.73384,0.02281
3275.67367,0.02279
3273.61349,0.02308
3271.55332,0.02317
3269.49315,0.02304
3267.43298,0.02303
3265.37281,0.02313
3263.31263,0.02315
3261.25246,0.02311
3259.19229,0.02315
3257.13212,0.02311
3255.07194,0.02290
3253.01177,0.02274
3250.95160,0.02265
3248.89143,0.02257
3246.83126,0.02262
3244.77108,0.02287
3242.71091,0.02310
3240.65074,0.02312
3238.59057,0.02304
3236.53040,0.02292
3234.47022,0.02266
3232.41005,0.02235
3230.34988,0.02221
3228.28971,0.02228
3226.22954,0.02245
3224.16936,0.02244
3222.10919,0.02226
3220.04902,0.02214
3217.98885,0.02214
3215.92867,0.02226
3213.86850,0.02245
3211.80833,0.02258
3209.74816,0.02254
3207.68799,0.02243
3205.62781,0.02244
3203.56764,0.02245
3201.50747,0.02230
3199.44730,0.02208
3197.38713,0.02203
3195.32695,0.02216
3193.26678,0.02220
3191.20661,0.02210
3189.14644,0.02212
3187.08626,0.02221
3185.02609,0.02223
3182.96592,0.02232
3180.90575,0.02227
3178.84558,0.02191
3176.78540,0.02179
3174.72523,0.02199
3172.66506,0.02201
3170.60489,0.02185
3168.54472,0.02167
3166.48454,0.02137
3164.42437,0.02120
3162.36420,0.02138
3160.30403,0.02151
3158.24386,0.02130
3156.18368,0.02104
3154.12351,0.02097
3152.06334,0.02115
3150.00317,0.02148
3147.94299,0.02168
3145.88282,0.02164
3143.82265,0.02146
3141.76248,0.02132
3139.70231,0.02138
3137.64213,0.02151
3135.58196,0.02133
3133.52179,0.02080
3131.46162,0.02045
3129.40145,0.02053
3127.34127,0.02073
3125.28110,0.02075
3123.22093,0.02059
3121.16076,0.02036
3119.10058,0.02011
3117.04041,0.01998
3114.98024,0.02007
3112.92007,0.02025
3110.85990,0.02028
3108.79972,0.02017
3106.73955,0.02009
3104.67938,0.02004
3102.61921,0.01987
3100.55904,0.01968
3098.49886,0.01965
3096.43869,0.01977
3094.37852,0.01987
3092.31835,0.01974
3090.25818,0.01946
3088.19800,0.01924
3086.13783,0.01922
3084.07766,0.01927
3082.01749,0.01924
3079.95731,0.01918
3077.89714,0.01912
3075.83697,0.01906
3073.77680,0.01910
3071.71663,0.01917
3069.65645,0.01902
3067.59628,0.01873
3065.53611,0.01865
3063.47594,0.01879
3061.41577,0.01887
3059.35559,0.01880
3057.29542,0.01872
3055.23525,0.01874
3053.17508,0.01885
3051.11491,0.01889
3049.05473,0.01869
3046.99456,0.01836
3044.93439,0.01822
3042.87422,0.01826
3040.81404,0.01825
3038.75387,0.01808
3036.69370,0.01776
3034.63353,0.01745
3032.57336,0.01732
3030.51318,0.01739
3028.45301,0.01749
3026.39284,0.01752
3024.33267,0.01747
3022.27250,0.01745
3020.21232,0.01754
3018.15215,0.01749
3016.09198,0.01707
3014.03181,0.01671
3011.97163,0.01675
3009.91146,0.01691
3007.85129,0.01681
3005.79112,0.01663
3003.73095,0.01665
3001.67077,0.01679
2999.61060,0.01711
2997.55043,0.01718
2995.49026,0.01684
2993.43009,0.01645
2991.36991,0.01649
2989.30974,0.01671
2987.24957,0.01676
2985.18940,0.01672
2983.12923,0.01665
2981.06905,0.01647
2979.00888,0.01637
2976.94871,0.01647
2974.88854,0.01661
2972.82836,0.01671
2970.76819,0.01669
2968.70802,0.01652
2966.64785,0.01642
2964.58768,0.01658
2962.52750,0.01684
2960.46733,0.01699
2958.40716,0.01694
2956.34699,0.01667
2954.28682,0.01644
2952.22664,0.01634
2950.16647,0.01638
2948.10630,0.01659
2946.04613,0.01679
2943.98596,0.01686
2941.92578,0.01689
2939.86561,0.01685
2937.80544,0.01678
2935.74527,0.01675
2933.68509,0.01671
2931.62492,0.01669
2929.56475,0.01670
2927.50458,0.01673
2925.44441,0.01677
2923.38423,0.01682
2921.32406,0.01680
2919.26389,0.01674
2917.20372,0.01673
2915.14355,0.01669
2913.08337,0.01655
2911.02320,0.01635
2908.96303,0.01625
2906.90286,0.01625
2904.84268,0.01621
2902.78251,0.01609
2900.72234,0.01597
2898.66217,0.01581
2896.60200,0.01569
2894.54182,0.01569
2892.48165,0.01568
2890.42148,0.01560
2888.36131,0.01551
2886.30114,0.01539
2884.24096,0.01528
2882.18079,0.01522
2880.12062,0.01511
2878.06045,0.01508
2876.00028,0.01521
2873.94010,0.01532
2871.87993,0.01528
2869.81976,0.01515
2867.75959,0.01499
2865.69941,0.01485
2863.63924,0.01483
2861.57907,0.01490
2859.51890,0.01484
2857.45873,0.01457
2855.39855,0.01429
2853.33838,0.01424
2851.27821,0.01443
2849.21804,0.01457
2847.15787,0.01444
2845.09769,0.01414
2843.03752,0.01385
2840.97735,0.01357
2838.91718,0.01335
2836.85700,0.01326
2834.79683,0.01327
2832.73666,0.01335
2830.67649,0.01341
2828.61632,0.01333
2826.55614,0.01317
2824.49597,0.01300
2822.43580,0.01292
2820.37563,0.01297
2818.31546,0.01302
2816.25528,0.01283
2814.19511,0.01249
2812.13494,0.01244
2810.07477,0.01262
2808.01460,0.01265
2805.95442,0.01255
2803.89425,0.01250
2801.83408,0.01244
2799.77391,0.01230
2797.71373,0.01223
2795.65356,0.01237
2793.59339,0.01258
2791.53322,0.01261
2789.47305,0.01244
2787.41287,0.01226
2785.35270,0.01215
2783.29253,0.01207
2781.23236,0.01198
2779.17219,0.01203
2777.11201,0.01216
2775.05184,0.01211
2772.99167,0.01186
2770.93150,0.01169
2768.87133,0.01166
2766.81115,0.01155
2764.75098,0.01132
2762.69081,0.01129
2760.63064,0.01140
2758.57046,0.01140
2756.51029,0.01137
2754.45012,0.01141
2752.38995,0.01143
2750.32978,0.01138
2748.26960,0.01134
2746.20943,0.01136
2744.14926,0.01131
2742.08909,0.01111
2740.02892,0.01094
2737.96874,0.01090
2735.90857,0.01087
2733.84840,0.01082
2731.78823,0.01078
2729.72805,0.01077
2727.66788,0.01078
2725.60771,0.01077
2723.54754,0.01075
2721.48737,0.01080
2719.42719,0.01086
2717.36702,0.01071
2715.30685,0.01044
2713.24668,0.01044
2711.18651,0.01053
2709.12633,0.01045
2707.06616,0.01033
2705.00599,0.01027
2702.94582,0.01029
2700.88565,0.01035
2698.82547,0.01034
2696.76530,0.01024
2694.70513,0.01018
2692.64496,0.01015
2690.58478,0.01006
2688.52461,0.01000
2686.46444,0.01000
2684.40427,0.00996
2682.34410,0.00989
2680.28392,0.00984
2678.22375,0.00982
2676.16358,0.00980
2674.10341,0.00979
2672.04324,0.00971
2669.98306,0.00954
2667.92289,0.00945
2665.86272,0.00954
2663.80255,0.00973
2661.74238,0.00988
2659.68220,0.00993
2657.62203,0.00990
2655.56186,0.00970
2653.50169,0.00947
2651.44151,0.00951
2649.38134,0.00977
2647.32117,0.00991
2645.26100,0.00979
2643.20083,0.00961
2641.14065,0.00954
2639.08048,0.00955
2637.02031,0.00953
2634.96014,0.00938
2632.89997,0.00912
2630.83979,0.00892
2628.77962,0.00899
2626.71945,0.00923
2624.65928,0.00926
2622.59910,0.00917
2620.53893,0.00929
2618.47876,0.00941
2616.41859,0.00931
2614.35842,0.00915
2612.29824,0.00899
2610.23807,0.00888
2608.17790,0.00889
2606.11773,0.00886
2604.05756,0.00874
2601.99738,0.00857
2599.93721,0.00832
2597.87704,0.00810
2595.81687,0.00814
2593.75670,0.00828
2591.69652,0.00842
2589.63635,0.00856
2587.57618,0.00848
2585.51601,0.00814
2583.45583,0.00790
2581.39566,0.00791
2579.33549,0.00800
2577.27532,0.00781
2575.21515,0.00750
2573.15497,0.00746
2571.09480,0.00754
2569.03463,0.00762
2566.97446,0.00789
2564.91429,0.00822
2562.85411,0.00816
2560.79394,0.00788
2558.73377,0.00778
2556.67360,0.00768
2554.61342,0.00759
2552.55325,0.00770
2550.49308,0.00777
2548.43291,0.00782
2546.37274,0.00800
2544.31256,0.00785
2542.25239,0.00730
2540.19222,0.00706
2538.13205,0.00737
2536.07188,0.00769
2534.01170,0.00767
2531.95153,0.00752
2529.89136,0.00748
2527.83119,0.00753
2525.77102,0.00766
2523.71084,0.00781
2521.65067,0.00778
2519.59050,0.00759
2517.53033,0.00747
2515.47015,0.00759
2513.40998,0.00786
2511.34981,0.00804
2509.28964,0.00815
2507.22947,0.00800
2505.16929,0.00750
2503.10912,0.00719
2501.04895,0.00741
2498.98878,0.00770
2496.92861,0.00775
2494.86843,0.00777
2492.80826,0.00790
2490.74809,0.00803
2488.68792,0.00809
2486.62775,0.00808
2484.56757,0.00794
2482.50740,0.00768
2480.44723,0.00757
2478.38706,0.00768
2476.32688,0.00783
2474.26671,0.00794
2472.20654,0.00794
2470.14637,0.00788
2468.08620,0.00800
2466.02602,0.00818
2463.96585,0.00816
2461.90568,0.00817
2459.84551,0.00827
2457.78534,0.00817
2455.72516,0.00798
2453.66499,0.00808
2451.60482,0.00835
2449.54465,0.00837
2447.48447,0.00805
2445.42430,0.00778
2443.36413,0.00782
2441.30396,0.00791
2439.24379,0.00779
2437.18361,0.00751
2435.12344,0.00739
2433.06327,0.00751
2431.00310,0.00764
2428.94293,0.00772
2426.88275,0.00776
2424.82258,0.00772
2422.76241,0.00760
2420.70224,0.00748
2418.64207,0.00760
2416.58189,0.00777
2414.52172,0.00752
2412.46155,0.00717
2410.40138,0.00720
2408.34120,0.00742
2406.28103,0.00762
2404.22086,0.00757
2402.16069,0.00734
2400.10052,0.00714
2398.04034,0.00668
2395.98017,0.00672
2393.92000,0.00714
2391.85983,0.00743
2389.79966,0.00716
2387.73948,0.00650
2385.67931,0.00587
2383.61914,0.00531
2381.55897,0.00451
2379.49880,0.00363
2377.43862,0.00327
2375.37845,0.00416
2373.31828,0.00568
2371.25811,0.00702
2369.19793,0.00824
2367.13776,0.00922
2365.07759,0.01043
2363.01742,0.01278
2360.95725,0.01397
2358.89707,0.01540
2356.83690,0.01508
2354.77673,0.01257
2352.71656,0.00949
2350.65639,0.00584
2348.59621,0.00510
2346.53604,0.00999
2344.47587,0.01196
2342.41570,0.01194
2340.35552,0.01210
2338.29535,0.01207
2336.23518,0.01182
2334.17501,0.01073
2332.11484,0.00948
2330.05466,0.00892
2327.99449,0.00958
2325.93432,0.00930
2323.87415,0.00813
2321.81398,0.00638
2319.75380,0.00582
2317.69363,0.00528
2315.63346,0.00500
2313.57329,0.00453
2311.51312,0.00361
2309.45294,0.00321
2307.39277,0.00382
2305.33260,0.00488
2303.27243,0.00554
2301.21225,0.00577
2299.15208,0.00578
2297.09191,0.00598
2295.03174,0.00643
2292.97157,0.00697
2290.91139,0.00742
2288.85122,0.00763
2286.79105,0.00761
2284.73088,0.00751
2282.67071,0.00740
2280.61053,0.00727
2278.55036,0.00712
2276.49019,0.00719
2274.43002,0.00743
2272.36984,0.00764
2270.30967,0.00775
2268.24950,0.00772
2266.18933,0.00756
2264.12916,0.00770
2262.06898,0.00807
2260.00881,0.00801
2257.94864,0.00732
2255.88847,0.00677
2253.82830,0.00689
2251.76812,0.00719
2249.70795,0.00695
2247.64778,0.00669
2245.58761,0.00699
2243.52744,0.00725
2241.46726,0.00679
2239.40709,0.00604
2237.34692,0.00565
2235.28675,0.00560
2233.22657,0.00550
2231.16640,0.00528
2229.10623,0.00520
2227.04606,0.00531
2224.98589,0.00577
2222.92571,0.00656
2220.86554,0.00698
2218.80537,0.00698
2216.74520,0.00692
2214.68503,0.00661
2212.62485,0.00628
2210.56468,0.00626
2208.50451,0.00609
2206.44434,0.00590
2204.38417,0.00588
2202.32399,0.00584
2200.26382,0.00551
2198.20365,0.00457
2196.14348,0.00397
2194.08330,0.00480
2192.02313,0.00584
2189.96296,0.00557
2187.90279,0.00511
2185.84262,0.00575
2183.78244,0.00605
2181.72227,0.00462
2179.66210,0.00335
2177.60193,0.00380
2175.54176,0.00488
2173.48158,0.00578
2171.42141,0.00631
2169.36124,0.00665
2167.30107,0.00685
2165.24089,0.00670
2163.18072,0.00628
2161.12055,0.00474
2159.06038,0.00259
2157.00021,0.00188
2154.94003,0.00217
2152.87986,0.00248
2150.81969,0.00288
2148.75952,0.00332
2146.69935,0.00327
2144.63917,0.00277
2142.57900,0.00239
2140.51883,0.00221
2138.45866,0.00210
2136.39849,0.00214
2134.33831,0.00255
2132.27814,0.00302
2130.21797,0.00300
2128.15780,0.00285
2126.09762,0.00302
2124.03745,0.00325
2121.97728,0.00344
2119.91711,0.00389
2117.85694,0.00421
2115.79676,0.00410
2113.73659,0.00394
2111.67642,0.00404
2109.61625,0.00417
2107.55608,0.00414
2105.49590,0.00417
2103.43573,0.00418
2101.37556,0.00395
2099.31539,0.00421
2097.25521,0.00458
2095.19504,0.00479
2093.13487,0.00459
2091.07470,0.00429
2089.01453,0.00417
2086.95435,0.00438
2084.89418,0.00477
2082.83401,0.00495
2080.77384,0.00481
2078.71367,0.00449
2076.65349,0.00441
2074.59332,0.00449
2072.53315,0.00455
2070.47298,0.00517
2068.41281,0.00614
2066.35263,0.00619
2064.29246,0.00543
2062.23229,0.00509
2060.17212,0.00524
2058.11194,0.00529
2056.05177,0.00519
2053.99160,0.00563
2051.93143,0.00682
2049.87126,0.00747
2047.81108,0.00665
2045.75091,0.00538
2043.69074,0.00477
2041.63057,0.00478
2039.57040,0.00469
2037.51022,0.00454
2035.45005,0.00503
2033.38988,0.00556
2031.32971,0.00540
2029.26954,0.00513
2027.20936,0.00531
2025.14919,0.00574
2023.08902,0.00578
2021.02885,0.00490
2018.96867,0.00344
2016.90850,0.00248
2014.84833,0.00260
2012.78816,0.00351
2010.72799,0.00465
2008.66781,0.00468
2006.60764,0.00379
2004.54747,0.00366
2002.48730,0.00358
2000.42713,0.00279
1998.36695,0.00261
1996.30678,0.00296
1994.24661,0.00255
1992.18644,0.00209
1990.12626,0.00297
1988.06609,0.00414
1986.00592,0.00452
1983.94575,0.00507
1981.88558,0.00660
1979.82540,0.00790
1977.76523,0.00760
1975.70506,0.00674
1973.64489,0.00625
1971.58472,0.00543
1969.52454,0.00439
1967.46437,0.00380
1965.40420,0.00365
1963.34403,0.00335
1961.28386,0.00228
1959.22368,0.00092
1957.16351,0.00053
1955.10334,0.00145
1953.04317,0.00281
1950.98299,0.00323
1948.92282,0.00269
1946.86265,0.00228
1944.80248,0.00204
1942.74231,0.00180
1940.68213,0.00211
1938.62196,0.00262
1936.56179,0.00263
1934.50162,0.00251
1932.44145,0.00300
1930.38127,0.00372
1928.32110,0.00387
1926.26093,0.00343
1924.20076,0.00275
1922.14059,0.00211
1920.08041,0.00215
1918.02024,0.00292
1915.96007,0.00352
1913.89990,0.00368
1911.83972,0.00372
1909.77955,0.00362
1907.71938,0.00350
1905.65921,0.00363
1903.59904,0.00377
1901.53886,0.00361
1899.47869,0.00333
1897.41852,0.00318
1895.35835,0.00327
1893.29818,0.00338
1891.23800,0.00322
1889.17783,0.00294
1887.11766,0.00289
1885.05749,0.00299
1882.99731,0.00300
1880.93714,0.00304
1878.87697,0.00319
1876.81680,0.00340
1874.75663,0.00350
1872.69645,0.00347
1870.63628,0.00354
1868.57611,0.00365
1866.51594,0.00345
1864.45577,0.00312
1862.39559,0.00305
1860.33542,0.00309
1858.27525,0.00309
1856.21508,0.00316
1854.15491,0.00324
1852.09473,0.00322
1850.03456,0.00313
1847.97439,0.00299
1845.91422,0.00277
1843.85404,0.00257
1841.79387,0.00258
1839.73370,0.00277
1837.67353,0.00284
1835.61336,0.00258
1833.55318,0.00247
1831.49301,0.00293
1829.43284,0.00338
1827.37267,0.00342
1825.31250,0.00348
1823.25232,0.00375
1821.19215,0.00381
1819.13198,0.00329
1817.07181,0.00262
1815.01163,0.00244
1812.95146,0.00262
1810.89129,0.00273
1808.83112,0.00263
1806.77095,0.00235
1804.71077,0.00187
1802.65060,0.00139
1800.59043,0.00147
1798.53026,0.00195
1796.47009,0.00234
1794.40991,0.00259
1792.34974,0.00256
1790.28957,0.00217
1788.22940,0.00176
1786.16923,0.00154
1784.10905,0.00182
1782.04888,0.00246
1779.98871,0.00273
1777.92854,0.00265
1775.86836,0.00298
1773.80819,0.00376
1771.74802,0.00375
1769.68785,0.00251
1767.62768,0.00160
1765.56750,0.00177
1763.50733,0.00234
1761.44716,0.00253
1759.38699,0.00223
1757.32682,0.00192
1755.26664,0.00187
1753.20647,0.00194
1751.14630,0.00202
1749.08613,0.00222
1747.02596,0.00243
1744.96578,0.00260
1742.90561,0.00298
1740.84544,0.00337
1738.78527,0.00341
1736.72509,0.00320
1734.66492,0.00282
1732.60475,0.00246
1730.54458,0.00261
1728.48441,0.00289
1726.42423,0.00303
1724.36406,0.00309
1722.30389,0.00348
1720.24372,0.00443
1718.18355,0.00485
1716.12337,0.00359
1714.06320,0.00245
1712.00303,0.00233
1709.94286,0.00278
1707.88268,0.00325
1705.82251,0.00316
1703.76234,0.00281
1701.70217,0.00318
1699.64200,0.00379
1697.58182,0.00374
1695.52165,0.00349
1693.46148,0.00348
1691.40131,0.00364
1689.34114,0.00415
1687.28096,0.00531
1685.22079,0.00667
1683.16062,0.00671
1681.10045,0.00606
1679.04028,0.00625
1676.98010,0.00731
1674.91993,0.00857
1672.85976,0.00963
1670.79959,0.01039
1668.73941,0.01051
1666.67924,0.01033
1664.61907,0.01057
1662.55890,0.01075
1660.49873,0.01024
1658.43855,0.00990
1656.37838,0.01065
1654.31821,0.01192
1652.25804,0.01206
1650.19787,0.01185
1648.13769,0.01204
1646.07752,0.01187
1644.01735,0.01098
1641.95718,0.01047
1639.89701,0.01096
1637.83683,0.01213
1635.77666,0.01258
1633.71649,0.01173
1631.65632,0.01098
1629.59614,0.01098
1627.53597,0.01128
1625.47580,0.01137
1623.41563,0.01101
1621.35546,0.01052
1619.29528,0.01084
1617.23511,0.01155
1615.17494,0.01127
1613.11477,0.01056
1611.05460,0.01040
1608.99442,0.01059
1606.93425,0.01054
1604.87408,0.01038
1602.81391,0.01030
1600.75373,0.01026
1598.69356,0.01034
1596.63339,0.01048
1594.57322,0.01042
1592.51305,0.01016
1590.45287,0.00992
1588.39270,0.00975
1586.33253,0.00948
1584.27236,0.00903
1582.21219,0.00858
1580.15201,0.00863
1578.09184,0.00919
1576.03167,0.00928
1573.97150,0.00854
1571.91133,0.00810
1569.85115,0.00796
1567.79098,0.00734
1565.73081,0.00666
1563.67064,0.00667
1561.61046,0.00772
1559.55029,0.00851
1557.49012,0.00680
1555.42995,0.00465
1553.36978,0.00355
1551.30960,0.00319
1549.24943,0.00308
1547.18926,0.00312
1545.12909,0.00373
1543.06892,0.00527
1541.00874,0.00676
1538.94857,0.00598
1536.88840,0.00427
1534.82823,0.00357
1532.76805,0.00345
1530.70788,0.00309
1528.64771,0.00286
1526.58754,0.00283
1524.52737,0.00297
1522.46719,0.00304
1520.40702,0.00246
1518.34685,0.00185
1516.28668,0.00141
1514.22651,0.00075
1512.16633,0.00006
1510.10616,0.00000
1508.04599,0.00101
1505.98582,0.00233
1503.92565,0.00255
1501.86547,0.00219
1499.80530,0.00236
1497.74513,0.00286
1495.68496,0.00321
1493.62478,0.00359
1491.56461,0.00393
1489.50444,0.00381
1487.44427,0.00353
1485.38410,0.00353
1483.32392,0.00370
1481.26375,0.00389
1479.20358,0.00400
1477.14341,0.00407
1475.08324,0.00422
1473.02306,0.00437
1470.96289,0.00440
1468.90272,0.00450
1466.84255,0.00492
1464.78238,0.00528
1462.72220,0.00529
1460.66203,0.00549
1458.60186,0.00557
1456.54169,0.00478
1454.48151,0.00415
1452.42134,0.00423
1450.36117,0.00482
1448.30100,0.00545
1446.24083,0.00579
1444.18065,0.00599
1442.12048,0.00615
1440.06031,0.00617
1438.00014,0.00587
1435.93997,0.00543
1433.87979,0.00537
1431.81962,0.00567
1429.75945,0.00600
1427.69928,0.00616
1425.63910,0.00628
1423.57893,0.00627
1421.51876,0.00597
1419.45859,0.00542
1417.39842,0.00521
1415.33824,0.00573
1413.27807,0.00638
1411.21790,0.00667
1409.15773,0.00678
1407.09756,0.00685
1405.03738,0.00679
1402.97721,0.00666
1400.91704,0.00646
1398.85687,0.00598
1396.79670,0.00560
1394.73652,0.00571
1392.67635,0.00591
1390.61618,0.00590
1388.55601,0.00583
1386.49583,0.00601
1384.43566,0.00644
1382.37549,0.00667
1380.31532,0.00659
1378.25515,0.00654
1376.19497,0.00662
1374.13480,0.00651
1372.07463,0.00634
1370.01446,0.00645
1367.95429,0.00661
1365.89411,0.00643
1363.83394,0.00582
1361.77377,0.00537
1359.71360,0.00569
1357.65343,0.00635
1355.59325,0.00677
1353.53308,0.00689
1351.47291,0.00693
1349.41274,0.00697
1347.35256,0.00689
1345.29239,0.00664
1343.23222,0.00613
1341.17205,0.00526
1339.11188,0.00453
1337.05170,0.00477
1334.99153,0.00568
1332.93136,0.00632
1330.87119,0.00648
1328.81102,0.00651
1326.75084,0.00655
1324.69067,0.00657
1322.63050,0.00656
1320.57033,0.00646
1318.51015,0.00623
1316.44998,0.00616
1314.38981,0.00632
1312.32964,0.00653
1310.26947,0.00674
1308.20929,0.00698
1306.14912,0.00715
1304.08895,0.00725
1302.02878,0.00730
1299.96861,0.00726
1297.90843,0.00715
1295.84826,0.00711
1293.78809,0.00720
1291.72792,0.00722
1289.66775,0.00710
1287.60757,0.00707
1285.54740,0.00721
1283.48723,0.00725
1281.42706,0.00707
1279.36688,0.00695
1277.30671,0.00705
1275.24654,0.00714
1273.18637,0.00708
1271.12620,0.00698
1269.06602,0.00688
1267.00585,0.00686
1264.94568,0.00705
1262.88551,0.00739
1260.82534,0.00760
1258.76516,0.00760
1256.70499,0.00756
1254.64482,0.00753
1252.58465,0.00742
1250.52447,0.00736
1248.46430,0.00742
1246.40413,0.00741
1244.34396,0.00727
1242.28379,0.00716
1240.22361,0.00714
1238.16344,0.00712
1236.10327,0.00704
1234.04310,0.00690
1231.98293,0.00675
1229.92275,0.00670
1227.86258,0.00663
1225.80241,0.00636
1223.74224,0.00602
1221.68207,0.00578
1219.62189,0.00566
1217.56172,0.00565
1215.50155,0.00566
1213.44138,0.00559
1211.38120,0.00547
1209.32103,0.00538
1207.26086,0.00542
1205.20069,0.00560
1203.14052,0.00564
1201.08034,0.00541
1199.02017,0.00509
1196.96000,0.00502
1194.89983,0.00511
1192.83966,0.00526
1190.77948,0.00530
1188.71931,0.00517
1186.65914,0.00510
1184.59897,0.00526
1182.53880,0.00551
1180.47862,0.00574
1178.41845,0.00589
1176.35828,0.00602
1174.29811,0.00630
1172.23793,0.00664
1170.17776,0.00688
1168.11759,0.00711
1166.05742,0.00738
1163.99725,0.00767
1161.93707,0.00806
1159.87690,0.00851
1157.81673,0.00888
1155.75656,0.00924
1153.69639,0.00967
1151.63621,0.01009
1149.57604,0.01056
1147.51587,0.01107
1145.45570,0.01156
1143.39552,0.01204
1141.33535,0.01255
1139.27518,0.01312
1137.21501,0.01381
1135.15484,0.01457
1133.09466,0.01522
1131.03449,0.01579
1128.97432,0.01639
1126.91415,0.01705
1124.85398,0.01772
1122.79380,0.01832
1120.73363,0.01888
1118.67346,0.01954
1116.61329,0.02027
1114.55312,0.02097
1112.49294,0.02166
1110.43277,0.02234
1108.37260,0.02287
1106.31243,0.02323
1104.25225,0.02363
1102.19208,0.02407
1100.13191,0.02445
1098.07174,0.02487
1096.01157,0.02532
1093.95139,0.02573
1091.89122,0.02612
1089.83105,0.02647
1087.77088,0.02681
1085.71071,0.02724
1083.65053,0.02767
1081.59036,0.02794
1079.53019,0.02820
1077.47002,0.02851
1075.40985,0.02879
1073.34967,0.02904
1071.28950,0.02921
1069.22933,0.02924
1067.16916,0.02918
1065.10898,0.02903
1063.04881,0.02894
1060.98864,0.02891
1058.92847,0.02875
1056.86830,0.02833
1054.80812,0.02777
1052.74795,0.02731
1050.68778,0.02689
1048.62761,0.02634
1046.56744,0.02557
1044.50726,0.02472
1042.44709,0.02398
1040.38692,0.02324
1038.32675,0.02241
1036.26657,0.02170
1034.20640,0.02107
1032.14623,0.02031
1030.08606,0.01950
1028.02589,0.01883
1025.96571,0.01837
1023.90554,0.01801
1021.84537,0.01759
1019.78520,0.01720
1017.72503,0.01695
1015.66485,0.01668
1013.60468,0.01637
1011.54451,0.01626
1009.48434,0.01641
1007.42417,0.01662
1005.36399,0.01677
1003.30382,0.01699
1001.24365,0.01739
999.18348,0.01788
997.12330,0.01846
995.06313,0.01906
993.00296,0.01958
990.94279,0.02009
988.88262,0.02058
986.82244,0.02085
984.76227,0.02085
982.70210,0.02072
980.64193,0.02072
978.58176,0.02097
976.52158,0.02112
974.46141,0.02102
972.40124,0.02081
970.34107,0.02044
968.28089,0.01990
966.22072,0.01936
964.16055,0.01885
962.10038,0.01830
960.04021,0.01776
957.98003,0.01725
955.91986,0.01662
953.85969,0.01594
951.79952,0.01544
949.73935,0.01508
947.67917,0.01458
945.61900,0.01390
943.55883,0.01329
941.49866,0.01287
939.43849,0.01254
937.37831,0.01230
935.31814,0.01207
933.25797,0.01173
931.19780,0.01139
929.13762,0.01096
927.07745,0.01049
925.01728,0.01017
922.95711,0.00990
920.89694,0.00955
918.83676,0.00921
916.77659,0.00900
914.71642,0.00913
912.65625,0.00934
910.59608,0.00916
908.53590,0.00883
906.47573,0.00888
904.41556,0.00926
902.35539,0.00955
900.29522,0.00957
898.23504,0.00935
896.17487,0.00920
894.11470,0.00945
892.05453,0.00993
889.99435,0.01029
887.93418,0.01046
885.87401,0.01065
883.81384,0.01087
881.75367,0.01109
879.69349,0.01148
877.63332,0.01194
875.57315,0.01209
873.51298,0.01212
871.45281,0.01248
869.39263,0.01292
867.33246,0.01297
865.27229,0.01285
863.21212,0.01280
861.15194,0.01274
859.09177,0.01282
857.03160,0.01308
854.97143,0.01317
852.91126,0.01296
850.85108,0.01282
848.79091,0.01288
846.73074,0.01267
844.67057,0.01216
842.61040,0.01194
840.55022,0.01190
838.49005,0.01160
836.42988,0.01125
834.36971,0.01122
832.30954,0.01122
830.24936,0.01088
828.18919,0.01035
826.12902,0.00994
824.06885,0.00977
822.00867,0.00958
819.94850,0.00917
817.88833,0.00886
815.82816,0.00880
813.76799,0.00869
811.70781,0.00856
809.64764,0.00862
807.58747,0.00870
805.52730,0.00837
803.46713,0.00779
801.40695,0.00746
799.34678,0.00745
797.28661,0.00752
795.22644,0.00763
793.16627,0.00758
791.10609,0.00750
789.04592,0.00774
786.98575,0.00804
784.92558,0.00805
782.86540,0.00803
780.80523,0.00810
778.74506,0.00798
776.68489,0.00768
774.62472,0.00749
772.56454,0.00749
770.50437,0.00747
768.44420,0.00723
766.38403,0.00687
764.32386,0.00668
762.26368,0.00680
760.20351,0.00689
758.14334,0.00689
756.08317,0.00708
754.02299,0.00717
751.96282,0.00700
749.90265,0.00661
747.84248,0.00614
745.78231,0.00592
743.72213,0.00601
741.66196,0.00634
739.60179,0.00695
737.54162,0.00741
735.48145,0.00720
733.42127,0.00683
731.36110,0.00681
729.30093,0.00681
727.24076,0.00678
725.18059,0.00666
723.12041,0.00627
721.06024,0.00645
719.00007,0.00655
716.93990,0.00649
714.87972,0.00639
712.81955,0.00658
710.75938,0.00675
708.69921,0.00623
706.63904,0.00559
704.57886,0.00567
702.51869,0.00616
700.45852,0.00612
698.39835,0.00562
696.33818,0.00553
694.27800,0.00575
692.21783,0.00551
690.15766,0.00487
688.09749,0.00476
686.03731,0.00558
683.97714,0.00636
681.91697,0.00644
679.85680,0.00653
677.79663,0.00729
675.73645,0.00818
673.67628,0.00701
671.61611,0.00314
669.55594,0.00507
667.49577,0.01078
665.43559,0.00545
663.37542,0.00676
661.31525,0.00777
659.25508,0.00720
657.19491,0.00698
655.13473,0.00686
653.07456,0.00617
651.01439,0.00550
648.95422,0.00549
646.89404,0.00562
644.83387,0.00599
642.77370,0.00647
640.71353,0.00687
638.65336,0.00626
636.59318,0.00448
634.53301,0.00326
632.47284,0.00382
630.41267,0.00514
628.35250,0.00543
626.29232,0.00411
624.23215,0.00389
622.17198,0.00547
620.11181,0.00660
618.05164,0.00638
615.99146,0.00607
613.93129,0.00669
611.87112,0.00580
609.81095,0.00275
607.75077,0.00089
605.69060,0.00058
603.63043,0.00013
601.57026,0.00000
599.51009,0.00000
