3996.73391,0.00005
3994.67373,-0.00009
3992.61356,-0.00017
3990.55339,-0.00008
3988.49322,0.00004
3986.43305,0.00020
3984.37287,0.00042
3982.31270,0.00058
3980.25253,0.00056
3978.19236,0.00054
3976.13219,0.00070
3974.07201,0.00088
3972.01184,0.00084
3969.95167,0.00072
3967.89150,0.00090
3965.83133,0.00122
3963.77115,0.00111
3961.71098,0.00076
3959.65081,0.00076
3957.59064,0.00098
3955.53046,0.00121
3953.47029,0.00153
3951.41012,0.00149
3949.34995,0.00068
3947.28978,0.00000
3945.22960,0.00017
3943.16943,0.00065
3941.10926,0.00115
3939.04909,0.00168
3936.98892,0.00201
3934.92874,0.00189
3932.86857,0.00143
3930.80840,0.00125
3928.74823,0.00162
3926.68805,0.00204
3924.62788,0.00206
3922.56771,0.00193
3920.50754,0.00182
3918.44737,0.00153
3916.38719,0.00154
3914.32702,0.00208
3912.26685,0.00261
3910.20668,0.00293
3908.14651,0.00308
3906.08633,0.00259
3904.02616,0.00116
3901.96599,0.00000
3899.90582,0.00031
3897.84565,0.00132
3895.78547,0.00194
3893.72530,0.00198
3891.66513,0.00176
3889.60496,0.00172
3887.54478,0.00196
3885.48461,0.00216
3883.42444,0.00195
3881.36427,0.00152
3879.30410,0.00152
3877.24392,0.00211
3875.18375,0.00243
3873.12358,0.00196
3871.06341,0.00137
3869.00324,0.00136
3866.94306,0.00176
3864.88289,0.00184
3862.82272,0.00137
3860.76255,0.00095
3858.70237,0.00098
3856.64220,0.00132
3854.58203,0.00193
3852.52186,0.00208
3850.46169,0.00191
3848.40151,0.00182
3846.34134,0.00207
3844.28117,0.00246
3842.22100,0.00265
3840.16083,0.00264
3838.10065,0.00240
3836.04048,0.00218
3833.98031,0.00232
3831.92014,0.00257
3829.85997,0.00275
3827.79979,0.00285
3825.73962,0.00286
3823.67945,0.00300
3821.61928,0.00324
3819.55910,0.00317
3817.49893,0.00319
3815.43876,0.00319
3813.37859,0.00293
3811.31842,0.00279
3809.25824,0.00326
3807.19807,0.00404
3805.13790,0.00466
3803.07773,0.00500
3801.01756,0.00477
3798.95738,0.00446
3796.89721,0.00457
3794.83704,0.00473
3792.77687,0.00471
3790.71670,0.00462
3788.65652,0.00468
3786.59635,0.00497
3784.53618,0.00528
3782.47601,0.00547
3780.41583,0.00545
3778.35566,0.00513
3776.29549,0.00495
3774.23532,0.00517
3772.17515,0.00537
3770.11497,0.00510
3768.05480,0.00453
3765.99463,0.00420
3763.93446,0.00417
3761.87429,0.00416
3759.81411,0.00364
3757.75394,0.00264
3755.69377,0.00228
3753.63360,0.00275
3751.57342,0.00278
3749.51325,0.00160
3747.45308,0.00054
3745.39291,0.00000
3743.33274,0.00046
3741.27256,0.00158
3739.21239,0.00205
3737.15222,0.00156
3735.09205,0.00066
3733.03188,0.00080
3730.97170,0.00181
3728.91153,0.00250
3726.85136,0.00260
3724.79119,0.00249
3722.73102,0.00252
3720.67084,0.00277
3718.61067,0.00284
3716.55050,0.00283
3714.49033,0.00315
3712.43015,0.00374
3710.36998,0.00407
3708.30981,0.00427
3706.24964,0.00464
3704.18947,0.00500
3702.12929,0.00517
3700.06912,0.00522
3698.00895,0.00518
3695.94878,0.00510
3693.88861,0.00544
3691.82843,0.00634
3689.76826,0.00664
3687.70809,0.00585
3685.64792,0.00504
3683.58775,0.00459
3681.52757,0.00461
3679.46740,0.00519
3677.40723,0.00559
3675.34706,0.00480
3673.28688,0.00367
3671.22671,0.00342
3669.16654,0.00353
3667.10637,0.00371
3665.04620,0.00409
3662.98602,0.00458
3660.92585,0.00499
3658.86568,0.00502
3656.80551,0.00450
3654.74534,0.00414
3652.68516,0.00447
3650.62499,0.00446
3648.56482,0.00330
3646.50465,0.00296
3644.44447,0.00344
3642.38430,0.00394
3640.32413,0.00459
3638.26396,0.00537
3636.20379,0.00585
3634.14361,0.00580
3632.08344,0.00555
3630.02327,0.00540
3627.96310,0.00524
3625.90293,0.00538
3623.84275,0.00585
3621.78258,0.00627
3619.72241,0.00616
3617.66224,0.00560
3615.60207,0.00522
3613.54189,0.00494
3611.48172,0.00455
3609.42155,0.00458
3607.36138,0.00531
3605.30120,0.00647
3603.24103,0.00771
3601.18086,0.00849
3599.12069,0.00843
3597.06052,0.00782
3595.00034,0.00735
3592.94017,0.00735
3590.88000,0.00754
3588.81983,0.00720
3586.75966,0.00684
3584.69948,0.00741
3582.63931,0.00830
3580.57914,0.00886
3578.51897,0.00919
3576.45879,0.00960
3574.39862,0.01010
3572.33845,0.01034
3570.27828,0.01004
3568.21811,0.00927
3566.15793,0.00878
3564.09776,0.00929
3562.03759,0.00999
3559.97742,0.01043
3557.91725,0.01106
3555.85707,0.01174
3553.79690,0.01186
3551.73673,0.01131
3549.67656,0.01044
3547.61639,0.00974
3545.55621,0.00992
3543.49604,0.01108
3541.43587,0.01219
3539.37570,0.01251
3537.31552,0.01229
3535.25535,0.01229
3533.19518,0.01266
3531.13501,0.01296
3529.07484,0.01291
3527.01466,0.01247
3524.95449,0.01203
3522.89432,0.01212
3520.83415,0.01270
3518.77398,0.01335
3516.71380,0.01383
3514.65363,0.01410
3512.59346,0.01417
3510.53329,0.01409
3508.47312,0.01411
3506.41294,0.01428
3504.35277,0.01433
3502.29260,0.01433
3500.23243,0.01472
3498.17225,0.01540
3496.11208,0.01587
3494.05191,0.01598
3491.99174,0.01597
3489.93157,0.01600
3487.87139,0.01605
3485.81122,0.01618
3483.75105,0.01634
3481.69088,0.01621
3479.63071,0.01598
3477.57053,0.01622
3475.51036,0.01684
3473.45019,0.01747
3471.39002,0.01778
3469.32984,0.01754
3467.26967,0.01714
3465.20950,0.01714
3463.14933,0.01739
3461.08916,0.01760
3459.02898,0.01785
3456.96881,0.01812
3454.90864,0.01830
3452.84847,0.01846
3450.78830,0.01848
3448.72812,0.01826
3446.66795,0.01815
3444.60778,0.01835
3442.54761,0.01859
3440.48744,0.01889
3438.42726,0.01938
3436.36709,0.01966
3434.30692,0.01963
3432.24675,0.01956
3430.18657,0.01961
3428.12640,0.01986
3426.06623,0.02008
3424.00606,0.02002
3421.94589,0.01977
3419.88571,0.01962
3417.82554,0.01994
3415.76537,0.02036
3413.70520,0.02029
3411.64503,0.02001
3409.58485,0.02003
3407.52468,0.02040
3405.46451,0.02081
3403.40434,0.02099
3401.34416,0.02098
3399.28399,0.02022
3397.22382,0.02013
3395.16365,0.02002
3393.10348,0.02004
3391.04330,0.02037
3388.98313,0.02081
3386.92296,0.02101
3384.86279,0.02090
3382.80262,0.02082
3380.74244,0.02094
3378.68227,0.02123
3376.62210,0.02154
3374.56193,0.02171
3372.50176,0.02170
3370.44158,0.02167
3368.38141,0.02170
3366.32124,0.02168
3364.26107,0.02174
3362.20089,0.02193
3360.14072,0.02199
3358.08055,0.02180
3356.02038,0.02177
3353.96021,0.02212
3351.90003,0.02245
3349.83986,0.02255
3347.77969,0.02257
3345.71952,0.02250
3343.65935,0.02238
3341.59917,0.02236
3339.53900,0.02237
3337.47883,0.02229
3335.41866,0.02225
3333.35849,0.02230
3331.29831,0.02235
3329.23814,0.02240
3327.17797,0.02253
3325.11780,0.02278
3323.05762,0.02298
3320.99745,0.02306
3318.93728,0.02306
3316.87711,0.02308
3314.81694,0.02322
3312.75676,0.02338
3310.69659,0.02329
3308.63642,0.02308
3306.57625,0.02302
3304.51608,0.02302
3302.45590,0.02298
3300.39573,0.02293
3298.33556,0.02297
3296.27539,0.02320
3294.21521,0.02331
3292.15504,0.02312
3290.09487,0.02308
3288.03470,0.02345
3285.97453,0.02387
3283.91435,0.02396
3281.85418,0.02377
3279.79401,0.02344
3277.73384,0.02311
3275.67367,0.02298
3273.61349,0.02317
3271.55332,0.02351
3269.49315,0.02378
3267.43298,0.02383
3265.37281,0.02372
3263.31263,0.02359
3261.25246,0.02355
3259.19229,0.02361
3257.13212,0.02357
3255.07194,0.02330
3253.01177,0.02308
3250.95160,0.02314
3248.89143,0.02331
3246.83126,0.02342
3244.77108,0.02342
3242.71091,0.02338
3240.65074,0.02341
3238.59057,0.02351
3236.53040,0.02352
3234.47022,0.02334
3232.41005,0.02307
3230.34988,0.02287
3228.28971,0.02297
3226.22954,0.02331
3224.16936,0.02337
3222.10919,0.02311
3220.04902,0.02302
3217.98885,0.02313
3215.92867,0.02320
3213.86850,0.02307
3211.80833,0.02289
3209.74816,0.02286
3207.68799,0.02297
3205.62781,0.02304
3203.56764,0.02294
3201.50747,0.02286
3199.44730,0.02300
3197.38713,0.02324
3195.32695,0.02341
3193.26678,0.02336
3191.20661,0.02317
3189.14644,0.02312
3187.08626,0.02314
3185.02609,0.02313
3182.96592,0.02316
3180.90575,0.02309
3178.84558,0.02294
3176.78540,0.02303
3174.72523,0.02321
3172.66506,0.02303
3170.60489,0.02267
3168.54472,0.02250
3166.48454,0.02247
3164.42437,0.02248
3162.36420,0.02253
3160.30403,0.02261
3158.24386,0.02261
3156.18368,0.02252
3154.12351,0.02240
3152.06334,0.02232
3150.00317,0.02233
3147.94299,0.02229
3145.88282,0.02223
3143.82265,0.02233
3141.76248,0.02241
3139.70231,0.02226
3137.64213,0.02204
3135.58196,0.02182
3133.52179,0.02160
3131.46162,0.02150
3129.40145,0.02155
3127.34127,0.02158
3125.28110,0.02138
3123.22093,0.02107
3121.16076,0.02100
3119.10058,0.02114
3117.04041,0.02125
3114.98024,0.02133
3112.92007,0.02140
3110.85990,0.02134
3108.79972,0.02117
3106.73955,0.02119
3104.67938,0.02136
3102.61921,0.02129
3100.55904,0.02105
3098.49886,0.02092
3096.43869,0.02086
3094.37852,0.02085
3092.31835,0.02088
3090.25818,0.02088
3088.19800,0.02077
3086.13783,0.02066
3084.07766,0.02060
3082.01749,0.02043
3079.95731,0.02012
3077.89714,0.01993
3075.83697,0.01994
3073.77680,0.02006
3071.71663,0.02016
3069.65645,0.02001
3067.59628,0.01978
3065.53611,0.01973
3063.47594,0.01979
3061.41577,0.01984
3059.35559,0.01988
3057.29542,0.01984
3055.23525,0.01978
3053.17508,0.01983
3051.11491,0.01988
3049.05473,0.01972
3046.99456,0.01932
3044.93439,0.01908
3042.87422,0.01916
3040.81404,0.01927
3038.75387,0.01926
3036.69370,0.01905
3034.63353,0.01870
3032.57336,0.01850
3030.51318,0.01850
3028.45301,0.01847
3026.39284,0.01837
3024.33267,0.01824
3022.27250,0.01821
3020.21232,0.01827
3018.15215,0.01824
3016.09198,0.01797
3014.03181,0.01760
3011.97163,0.01748
3009.91146,0.01772
3007.85129,0.01787
3005.79112,0.01772
3003.73095,0.01758
3001.67077,0.01762
2999.61060,0.01790
2997.55043,0.01795
2995.49026,0.01778
2993.43009,0.01751
2991.36991,0.01736
2989.30974,0.01732
2987.24957,0.01737
2985.18940,0.01748
2983.12923,0.01753
2981.06905,0.01749
2979.00888,0.01739
2976.94871,0.01736
2974.88854,0.01750
2972.82836,0.01764
2970.76819,0.01760
2968.70802,0.01749
2966.64785,0.01741
2964.58768,0.01737
2962.52750,0.01737
2960.46733,0.01739
2958.40716,0.01742
2956.34699,0.01733
2954.28682,0.01718
2952.22664,0.01702
2950.16647,0.01693
2948.10630,0.01703
2946.04613,0.01719
2943.98596,0.01722
2941.92578,0.01716
2939.86561,0.01716
2937.80544,0.01727
2935.74527,0.01731
2933.68509,0.01716
2931.62492,0.01695
2929.56475,0.01678
2927.50458,0.01676
2925.44441,0.01685
2923.38423,0.01697
2921.32406,0.01708
2919.26389,0.01697
2917.20372,0.01679
2915.14355,0.01678
2913.08337,0.01675
2911.02320,0.01650
2908.96303,0.01625
2906.90286,0.01621
2904.84268,0.01627
2902.78251,0.01623
2900.72234,0.01605
2898.66217,0.01581
2896.60200,0.01567
2894.54182,0.01561
2892.48165,0.01560
2890.42148,0.01568
2888.36131,0.01565
2886.30114,0.01547
2884.24096,0.01538
2882.18079,0.01539
2880.12062,0.01538
2878.06045,0.01538
2876.00028,0.01540
2873.94010,0.01548
2871.87993,0.01558
2869.81976,0.01553
2867.75959,0.01527
2865.69941,0.01512
2863.63924,0.01505
2861.57907,0.01491
2859.51890,0.01479
2857.45873,0.01467
2855.39855,0.01453
2853.33838,0.01458
2851.27821,0.01470
2849.21804,0.01463
2847.15787,0.01439
2845.09769,0.01415
2843.03752,0.01399
2840.97735,0.01383
2838.91718,0.01366
2836.85700,0.01352
2834.79683,0.01343
2832.73666,0.01342
2830.67649,0.01344
2828.61632,0.01333
2826.55614,0.01316
2824.49597,0.01312
2822.43580,0.01313
2820.37563,0.01308
2818.31546,0.01294
2816.25528,0.01282
2814.19511,0.01274
2812.13494,0.01267
2810.07477,0.01266
2808.01460,0.01269
2805.95442,0.01269
2803.89425,0.01269
2801.83408,0.01268
2799.77391,0.01258
2797.71373,0.01241
2795.65356,0.01234
2793.59339,0.01228
2791.53322,0.01223
2789.47305,0.01231
2787.41287,0.01233
2785.35270,0.01214
2783.29253,0.01186
2781.23236,0.01170
2779.17219,0.01176
2777.11201,0.01196
2775.05184,0.01199
2772.99167,0.01177
2770.93150,0.01160
2768.87133,0.01155
2766.81115,0.01144
2764.75098,0.01128
2762.69081,0.01123
2760.63064,0.01127
2758.57046,0.01132
2756.51029,0.01144
2754.45012,0.01157
2752.38995,0.01148
2750.32978,0.01124
2748.26960,0.01100
2746.20943,0.01083
2744.14926,0.01082
2742.08909,0.01084
2740.02892,0.01079
2737.96874,0.01076
2735.90857,0.01074
2733.84840,0.01074
2731.78823,0.01075
2729.72805,0.01076
2727.66788,0.01082
2725.60771,0.01079
2723.54754,0.01066
2721.48737,0.01063
2719.42719,0.01068
2717.36702,0.01053
2715.30685,0.01023
2713.24668,0.01008
2711.18651,0.01007
2709.12633,0.01004
2707.06616,0.01003
2705.00599,0.01006
2702.94582,0.01010
2700.88565,0.01013
2698.82547,0.01006
2696.76530,0.00996
2694.70513,0.00993
2692.64496,0.00983
2690.58478,0.00965
2688.52461,0.00954
2686.46444,0.00958
2684.40427,0.00960
2682.34410,0.00956
2680.28392,0.00949
2678.22375,0.00938
2676.16358,0.00930
2674.10341,0.00929
2672.04324,0.00922
2669.98306,0.00907
2667.92289,0.00909
2665.86272,0.00928
2663.80255,0.00945
2661.74238,0.00949
2659.68220,0.00941
2657.62203,0.00932
2655.56186,0.00920
2653.50169,0.00896
2651.44151,0.00876
2649.38134,0.00877
2647.32117,0.00897
2645.26100,0.00908
2643.20083,0.00902
2641.14065,0.00895
2639.08048,0.00895
2637.02031,0.00896
2634.96014,0.00888
2632.89997,0.00870
2630.83979,0.00860
2628.77962,0.00862
2626.71945,0.00861
2624.65928,0.00860
2622.59910,0.00864
2620.53893,0.00863
2618.47876,0.00862
2616.41859,0.00861
2614.35842,0.00848
2612.29824,0.00823
2610.23807,0.00813
2608.17790,0.00826
2606.11773,0.00836
2604.05756,0.00827
2601.99738,0.00802
2599.93721,0.00770
2597.87704,0.00765
2595.81687,0.00784
2593.75670,0.00778
2591.69652,0.00757
2589.63635,0.00760
2587.57618,0.00768
2585.51601,0.00763
2583.45583,0.00746
2581.39566,0.00730
2579.33549,0.00726
2577.27532,0.00736
2575.21515,0.00745
2573.15497,0.00740
2571.09480,0.00723
2569.03463,0.00700
2566.97446,0.00694
2564.91429,0.00716
2562.85411,0.00732
2560.79394,0.00724
2558.73377,0.00724
2556.67360,0.00732
2554.61342,0.00728
2552.55325,0.00719
2550.49308,0.00718
2548.43291,0.00740
2546.37274,0.00760
2544.31256,0.00754
2542.25239,0.00724
2540.19222,0.00706
2538.13205,0.00715
2536.07188,0.00727
2534.01170,0.00730
2531.95153,0.00723
2529.89136,0.00708
2527.83119,0.00698
2525.77102,0.00680
2523.71084,0.00636
2521.65067,0.00622
2519.59050,0.00666
2517.53033,0.00706
2515.47015,0.00731
2513.40998,0.00747
2511.34981,0.00749
2509.28964,0.00750
2507.22947,0.00735
2505.16929,0.00691
2503.10912,0.00661
2501.04895,0.00667
2498.98878,0.00676
2496.92861,0.00692
2494.86843,0.00719
2492.80826,0.00728
2490.74809,0.00726
2488.68792,0.00738
2486.62775,0.00750
2484.56757,0.00734
2482.50740,0.00710
2480.44723,0.00726
2478.38706,0.00763
2476.32688,0.00775
2474.26671,0.00769
2472.20654,0.00754
2470.14637,0.00749
2468.08620,0.00771
2466.02602,0.00795
2463.96585,0.00793
2461.90568,0.00776
2459.84551,0.00759
2457.78534,0.00745
2455.72516,0.00753
2453.66499,0.00780
2451.60482,0.00797
2449.54465,0.00789
2447.48447,0.00764
2445.42430,0.00743
2443.36413,0.00727
2441.30396,0.00733
2439.24379,0.00755
2437.18361,0.00753
2435.12344,0.00739
2433.06327,0.00751
2431.00310,0.00761
2428.94293,0.00752
2426.88275,0.00741
2424.82258,0.00727
2422.76241,0.00717
2420.70224,0.00716
2418.64207,0.00720
2416.58189,0.00726
2414.52172,0.00717
2412.46155,0.00707
2410.40138,0.00715
2408.34120,0.00718
2406.28103,0.00711
2404.22086,0.00709
2402.16069,0.00719
2400.10052,0.00714
2398.04034,0.00662
2395.98017,0.00671
2393.92000,0.00729
2391.85983,0.00781
2389.79966,0.00786
2387.73948,0.00741
2385.67931,0.00683
2383.61914,0.00619
2381.55897,0.00524
2379.49880,0.00415
2377.43862,0.00361
2375.37845,0.00400
2373.31828,0.00548
2371.25811,0.00735
2369.19793,0.00875
2367.13776,0.01022
2365.07759,0.01150
2363.01742,0.01122
2360.95725,0.01195
2358.89707,0.01301
2356.83690,0.01262
2354.77673,0.01034
2352.71656,0.00841
2350.65639,0.00918
2348.59621,0.01007
2346.53604,0.00805
2344.47587,0.00852
2342.41570,0.01045
2340.35552,0.01190
2338.29535,0.01253
2336.23518,0.01211
2334.17501,0.01127
2332.11484,0.01031
2330.05466,0.00976
2327.99449,0.00922
2325.93432,0.00886
2323.87415,0.00732
2321.81398,0.00553
2319.75380,0.00435
2317.69363,0.00454
2315.63346,0.00440
2313.57329,0.00356
2311.51312,0.00286
2309.45294,0.00289
2307.39277,0.00360
2305.33260,0.00440
2303.27243,0.00491
2301.21225,0.00506
2299.15208,0.00525
2297.09191,0.00561
2295.03174,0.00613
2292.97157,0.00675
2290.91139,0.00713
2288.85122,0.00705
2286.79105,0.00686
2284.73088,0.00697
2282.67071,0.00722
2280.61053,0.00720
2278.55036,0.00698
2276.49019,0.00693
2274.43002,0.00694
2272.36984,0.00664
2270.30967,0.00637
2268.24950,0.00648
2266.18933,0.00679
2264.12916,0.00715
2262.06898,0.00736
2260.00881,0.00726
2257.94864,0.00683
2255.88847,0.00623
2253.82830,0.00580
2251.76812,0.00547
2249.70795,0.00501
2247.64778,0.00507
2245.58761,0.00571
2243.52744,0.00636
2241.46726,0.00659
2239.40709,0.00627
2237.34692,0.00579
2235.28675,0.00565
2233.22657,0.00535
2231.16640,0.00485
2229.10623,0.00500
2227.04606,0.00568
2224.98589,0.00610
2222.92571,0.00600
2220.86554,0.00573
2218.80537,0.00579
2216.74520,0.00610
2214.68503,0.00578
2212.62485,0.00513
2210.56468,0.00531
2208.50451,0.00587
2206.44434,0.00614
2204.38417,0.00600
2202.32399,0.00559
2200.26382,0.00562
2198.20365,0.00556
2196.14348,0.00497
2194.08330,0.00487
2192.02313,0.00493
2189.96296,0.00475
2187.90279,0.00479
2185.84262,0.00425
2183.78244,0.00335
2181.72227,0.00301
2179.66210,0.00311
2177.60193,0.00366
2175.54176,0.00408
2173.48158,0.00416
2171.42141,0.00457
2169.36124,0.00493
2167.30107,0.00488
2165.24089,0.00493
2163.18072,0.00491
2161.12055,0.00368
2159.06038,0.00176
2157.00021,0.00069
2154.94003,0.00064
2152.87986,0.00120
2150.81969,0.00166
2148.75952,0.00195
2146.69935,0.00220
2144.63917,0.00215
2142.57900,0.00215
2140.51883,0.00228
2138.45866,0.00178
2136.39849,0.00085
2134.33831,0.00077
2132.27814,0.00154
2130.21797,0.00219
2128.15780,0.00263
2126.09762,0.00319
2124.03745,0.00361
2121.97728,0.00351
2119.91711,0.00328
2117.85694,0.00336
2115.79676,0.00329
2113.73659,0.00302
2111.67642,0.00306
2109.61625,0.00303
2107.55608,0.00298
2105.49590,0.00347
2103.43573,0.00403
2101.37556,0.00420
2099.31539,0.00446
2097.25521,0.00429
2095.19504,0.00401
2093.13487,0.00361
2091.07470,0.00317
2089.01453,0.00296
2086.95435,0.00314
2084.89418,0.00347
2082.83401,0.00360
2080.77384,0.00385
2078.71367,0.00413
2076.65349,0.00423
2074.59332,0.00461
2072.53315,0.00494
2070.47298,0.00496
2068.41281,0.00512
2066.35263,0.00505
2064.29246,0.00444
2062.23229,0.00400
2060.17212,0.00409
2058.11194,0.00466
2056.05177,0.00532
2053.99160,0.00575
2051.93143,0.00624
2049.87126,0.00648
2047.81108,0.00584
2045.75091,0.00534
2043.69074,0.00547
2041.63057,0.00540
2039.57040,0.00507
2037.51022,0.00469
2035.45005,0.00418
2033.38988,0.00372
2031.32971,0.00365
2029.26954,0.00404
2027.20936,0.00458
2025.14919,0.00517
2023.08902,0.00542
2021.02885,0.00473
2018.96867,0.00384
2016.90850,0.00369
2014.84833,0.00377
2012.78816,0.00369
2010.72799,0.00369
2008.66781,0.00324
2006.60764,0.00269
2004.54747,0.00312
2002.48730,0.00350
2000.42713,0.00292
1998.36695,0.00246
1996.30678,0.00247
1994.24661,0.00221
1992.18644,0.00178
1990.12626,0.00218
1988.06609,0.00310
1986.00592,0.00358
1983.94575,0.00400
1981.88558,0.00543
1979.82540,0.00739
1977.76523,0.00800
1975.70506,0.00713
1973.64489,0.00596
1971.58472,0.00476
1969.52454,0.00358
1967.46437,0.00255
1965.40420,0.00214
1963.34403,0.00241
1961.28386,0.00211
1959.22368,0.00089
1957.16351,0.00009
1955.10334,0.00043
1953.04317,0.00152
1950.98299,0.00246
1948.92282,0.00271
1946.86265,0.00256
1944.80248,0.00213
1942.74231,0.00173
1940.68213,0.00167
1938.62196,0.00159
1936.56179,0.00136
1934.50162,0.00126
1932.44145,0.00146
1930.38127,0.00176
1928.32110,0.00188
1926.26093,0.00184
1924.20076,0.00177
1922.14059,0.00182
1920.08041,0.00215
1918.02024,0.00257
1915.96007,0.00268
1913.89990,0.00272
1911.83972,0.00286
1909.77955,0.00288
1907.71938,0.00288
1905.65921,0.00287
1903.59904,0.00282
1901.53886,0.00288
1899.47869,0.00297
1897.41852,0.00283
1895.35835,0.00260
1893.29818,0.00258
1891.23800,0.00280
1889.17783,0.00292
1887.11766,0.00273
1885.05749,0.00243
1882.99731,0.00227
1880.93714,0.00247
1878.87697,0.00284
1876.81680,0.00298
1874.75663,0.00287
1872.69645,0.00288
1870.63628,0.00313
1868.57611,0.00336
1866.51594,0.00316
1864.45577,0.00265
1862.39559,0.00228
1860.33542,0.00224
1858.27525,0.00244
1856.21508,0.00269
1854.15491,0.00282
1852.09473,0.00279
1850.03456,0.00258
1847.97439,0.00230
1845.91422,0.00213
1843.85404,0.00211
1841.79387,0.00217
1839.73370,0.00226
1837.67353,0.00226
1835.61336,0.00209
1833.55318,0.00213
1831.49301,0.00258
1829.43284,0.00293
1827.37267,0.00297
1825.31250,0.00302
1823.25232,0.00318
1821.19215,0.00316
1819.13198,0.00265
1817.07181,0.00202
1815.01163,0.00190
1812.95146,0.00214
1810.89129,0.00228
1808.83112,0.00218
1806.77095,0.00194
1804.71077,0.00154
1802.65060,0.00116
1800.59043,0.00133
1798.53026,0.00182
1796.47009,0.00216
1794.40991,0.00247
1792.34974,0.00251
1790.28957,0.00202
1788.22940,0.00151
1786.16923,0.00126
1784.10905,0.00141
1782.04888,0.00183
1779.98871,0.00197
1777.92854,0.00192
1775.86836,0.00235
1773.80819,0.00321
1771.74802,0.00327
1769.68785,0.00205
1767.62768,0.00104
1765.56750,0.00114
1763.50733,0.00178
1761.44716,0.00209
1759.38699,0.00188
1757.32682,0.00160
1755.26664,0.00144
1753.20647,0.00137
1751.14630,0.00150
1749.08613,0.00188
1747.02596,0.00213
1744.96578,0.00218
1742.90561,0.00241
1740.84544,0.00275
1738.78527,0.00286
1736.72509,0.00280
1734.66492,0.00247
1732.60475,0.00200
1730.54458,0.00207
1728.48441,0.00240
1726.42423,0.00256
1724.36406,0.00259
1722.30389,0.00289
1720.24372,0.00371
1718.18355,0.00419
1716.12337,0.00328
1714.06320,0.00234
1712.00303,0.00219
1709.94286,0.00256
1707.88268,0.00299
1705.82251,0.00293
1703.76234,0.00265
1701.70217,0.00309
1699.64200,0.00374
1697.58182,0.00377
1695.52165,0.00359
1693.46148,0.00352
1691.40131,0.00357
1689.34114,0.00402
1687.28096,0.00516
1685.22079,0.00668
1683.16062,0.00689
1681.10045,0.00609
1679.04028,0.00596
1676.98010,0.00677
1674.91993,0.00792
1672.85976,0.00902
1670.79959,0.00991
1668.73941,0.01011
1666.67924,0.00990
1664.61907,0.01015
1662.55890,0.01043
1660.49873,0.00996
1658.43855,0.00957
1656.37838,0.01037
1654.31821,0.01203
1652.25804,0.01264
1650.19787,0.01237
1648.13769,0.01230
1646.07752,0.01197
1644.01735,0.01090
1641.95718,0.01017
1639.89701,0.01056
1637.83683,0.01177
1635.77666,0.01236
1633.71649,0.01158
1631.65632,0.01076
1629.59614,0.01073
1627.53597,0.01120
1625.47580,0.01154
1623.41563,0.01141
1621.35546,0.01101
1619.29528,0.01130
1617.23511,0.01191
1615.17494,0.01146
1613.11477,0.01057
1611.05460,0.01029
1608.99442,0.01043
1606.93425,0.01041
1604.87408,0.01029
1602.81391,0.01029
1600.75373,0.01036
1598.69356,0.01048
1596.63339,0.01063
1594.57322,0.01056
1592.51305,0.01025
1590.45287,0.00997
1588.39270,0.00979
1586.33253,0.00951
1584.27236,0.00904
1582.21219,0.00861
1580.15201,0.00872
1578.09184,0.00933
1576.03167,0.00938
1573.97150,0.00851
1571.91133,0.00802
1569.85115,0.00798
1567.79098,0.00736
1565.73081,0.00648
1563.67064,0.00629
1561.61046,0.00748
1559.55029,0.00884
1557.49012,0.00747
1555.42995,0.00501
1553.36978,0.00354
1551.30960,0.00305
1549.24943,0.00292
1547.18926,0.00297
1545.12909,0.00354
1543.06892,0.00501
1541.00874,0.00663
1538.94857,0.00612
1536.88840,0.00433
1534.82823,0.00338
1532.76805,0.00320
1530.70788,0.00284
1528.64771,0.00245
1526.58754,0.00225
1524.52737,0.00242
1522.46719,0.00270
1520.40702,0.00224
1518.34685,0.00154
1516.28668,0.00107
1514.22651,0.00053
1512.16633,0.00000
1510.10616,-0.00000
1508.04599,0.00099
1505.98582,0.00228
1503.92565,0.00241
1501.86547,0.00200
1499.80530,0.00227
1497.74513,0.00283
1495.68496,0.00305
1493.62478,0.00331
1491.56461,0.00364
1489.50444,0.00352
1487.44427,0.00322
1485.38410,0.00323
1483.32392,0.00337
1481.26375,0.00342
1479.20358,0.00333
1477.14341,0.00325
1475.08324,0.00335
1473.02306,0.00365
1470.96289,0.00380
1468.90272,0.00382
1466.84255,0.00410
1464.78238,0.00439
1462.72220,0.00434
1460.66203,0.00447
1458.60186,0.00459
1456.54169,0.00400
1454.48151,0.00347
1452.42134,0.00342
1450.36117,0.00390
1448.30100,0.00454
1446.24083,0.00493
1444.18065,0.00510
1442.12048,0.00517
1440.06031,0.00514
1438.00014,0.00492
1435.93997,0.00457
1433.87979,0.00453
1431.81962,0.00482
1429.75945,0.00513
1427.69928,0.00527
1425.63910,0.00530
1423.57893,0.00518
1421.51876,0.00482
1419.45859,0.00429
1417.39842,0.00415
1415.33824,0.00473
1413.27807,0.00539
1411.21790,0.00565
1409.15773,0.00567
1407.09756,0.00569
1405.03738,0.00561
1402.97721,0.00545
1400.91704,0.00523
1398.85687,0.00480
1396.79670,0.00441
1394.73652,0.00445
1392.67635,0.00467
1390.61618,0.00475
1388.55601,0.00467
1386.49583,0.00476
1384.43566,0.00514
1382.37549,0.00538
1380.31532,0.00530
1378.25515,0.00521
1376.19497,0.00528
1374.13480,0.00523
1372.07463,0.00510
1370.01446,0.00516
1367.95429,0.00524
1365.89411,0.00508
1363.83394,0.00452
1361.77377,0.00407
1359.71360,0.00434
1357.65343,0.00491
1355.59325,0.00522
1353.53308,0.00527
1351.47291,0.00527
1349.41274,0.00531
1347.35256,0.00530
1345.29239,0.00514
1343.23222,0.00471
1341.17205,0.00390
1339.11188,0.00319
1337.05170,0.00339
1334.99153,0.00424
1332.93136,0.00488
1330.87119,0.00507
1328.81102,0.00513
1326.75084,0.00522
1324.69067,0.00522
1322.63050,0.00512
1320.57033,0.00494
1318.51015,0.00468
1316.44998,0.00460
1314.38981,0.00473
1312.32964,0.00491
1310.26947,0.00512
1308.20929,0.00533
1306.14912,0.00546
1304.08895,0.00560
1302.02878,0.00574
1299.96861,0.00571
1297.90843,0.00556
1295.84826,0.00555
1293.78809,0.00565
1291.72792,0.00563
1289.66775,0.00549
1287.60757,0.00543
1285.54740,0.00545
1283.48723,0.00545
1281.42706,0.00536
1279.36688,0.00531
1277.30671,0.00542
1275.24654,0.00554
1273.18637,0.00556
1271.12620,0.00555
1269.06602,0.00550
1267.00585,0.00548
1264.94568,0.00555
1262.88551,0.00570
1260.82534,0.00581
1258.76516,0.00583
1256.70499,0.00581
1254.64482,0.00578
1252.58465,0.00572
1250.52447,0.00565
1248.46430,0.00563
1246.40413,0.00557
1244.34396,0.00547
1242.28379,0.00542
1240.22361,0.00533
1238.16344,0.00518
1236.10327,0.00506
1234.04310,0.00500
1231.98293,0.00494
1229.92275,0.00491
1227.86258,0.00482
1225.80241,0.00460
1223.74224,0.00435
1221.68207,0.00416
1219.62189,0.00409
1217.56172,0.00414
1215.50155,0.00407
1213.44138,0.00380
1211.38120,0.00358
1209.32103,0.00344
1207.26086,0.00340
1205.20069,0.00351
1203.14052,0.00357
1201.08034,0.00348
1199.02017,0.00333
1196.96000,0.00338
1194.89983,0.00339
1192.83966,0.00340
1190.77948,0.00350
1188.71931,0.00349
1186.65914,0.00339
1184.59897,0.00345
1182.53880,0.00368
1180.47862,0.00393
1178.41845,0.00408
1176.35828,0.00414
1174.29811,0.00437
1172.23793,0.00480
1170.17776,0.00512
1168.11759,0.00534
1166.05742,0.00563
1163.99725,0.00600
1161.93707,0.00643
1159.87690,0.00684
1157.81673,0.00722
1155.75656,0.00761
1153.69639,0.00806
1151.63621,0.00851
1149.57604,0.00901
1147.51587,0.00963
1145.45570,0.01023
1143.39552,0.01072
1141.33535,0.01126
1139.27518,0.01192
1137.21501,0.01253
1135.15484,0.01310
1133.09466,0.01379
1131.03449,0.01456
1128.97432,0.01538
1126.91415,0.01620
1124.85398,0.01689
1122.79380,0.01748
1120.73363,0.01816
1118.67346,0.01894
1116.61329,0.01974
1114.55312,0.02057
1112.49294,0.02134
1110.43277,0.02197
1108.37260,0.02249
1106.31243,0.02301
1104.25225,0.02367
1102.19208,0.02434
1100.13191,0.02490
1098.07174,0.02542
1096.01157,0.02591
1093.95139,0.02649
1091.89122,0.02711
1089.83105,0.02752
1087.77088,0.02769
1085.71071,0.02787
1083.65053,0.02826
1081.59036,0.02884
1079.53019,0.02938
1077.47002,0.02980
1075.40985,0.03014
1073.34967,0.03050
1071.28950,0.03078
1069.22933,0.03089
1067.16916,0.03092
1065.10898,0.03088
1063.04881,0.03076
1060.98864,0.03059
1058.92847,0.03033
1056.86830,0.02994
1054.80812,0.02957
1052.74795,0.02917
1050.68778,0.02853
1048.62761,0.02770
1046.56744,0.02679
1044.50726,0.02584
1042.44709,0.02494
1040.38692,0.02408
1038.32675,0.02326
1036.26657,0.02241
1034.20640,0.02149
1032.14623,0.02059
1030.08606,0.01965
1028.02589,0.01875
1025.96571,0.01816
1023.90554,0.01778
1021.84537,0.01718
1019.78520,0.01641
1017.72503,0.01598
1015.66485,0.01590
1013.60468,0.01586
1011.54451,0.01588
1009.48434,0.01598
1007.42417,0.01608
1005.36399,0.01627
1003.30382,0.01663
1001.24365,0.01717
999.18348,0.01779
997.12330,0.01837
995.06313,0.01901
993.00296,0.01979
990.94279,0.02045
988.88262,0.02084
986.82244,0.02104
984.76227,0.02126
982.70210,0.02166
980.64193,0.02204
978.58176,0.02219
976.52158,0.02219
974.46141,0.02207
972.40124,0.02181
970.34107,0.02145
968.28089,0.02106
966.22072,0.02062
964.16055,0.02002
962.10038,0.01930
960.04021,0.01860
957.98003,0.01797
955.91986,0.01740
953.85969,0.01691
951.79952,0.01644
949.73935,0.01582
947.67917,0.01512
945.61900,0.01450
943.55883,0.01391
941.49866,0.01323
939.43849,0.01260
937.37831,0.01228
935.31814,0.01205
933.25797,0.01168
931.19780,0.01112
929.13762,0.01043
927.07745,0.00988
925.01728,0.00966
922.95711,0.00953
920.89694,0.00936
918.83676,0.00923
916.77659,0.00902
914.71642,0.00882
912.65625,0.00876
910.59608,0.00862
908.53590,0.00841
906.47573,0.00852
904.41556,0.00888
902.35539,0.00923
900.29522,0.00938
898.23504,0.00928
896.17487,0.00930
894.11470,0.00957
892.05453,0.00977
889.99435,0.00980
887.93418,0.00983
885.87401,0.01011
883.81384,0.01051
881.75367,0.01073
879.69349,0.01095
877.63332,0.01129
875.57315,0.01157
873.51298,0.01175
871.45281,0.01198
869.39263,0.01239
867.33246,0.01280
865.27229,0.01315
863.21212,0.01350
861.15194,0.01336
859.09177,0.01306
857.03160,0.01339
854.97143,0.01391
852.91126,0.01402
850.85108,0.01386
848.79091,0.01377
846.73074,0.01363
844.67057,0.01333
842.61040,0.01310
840.55022,0.01296
838.49005,0.01271
836.42988,0.01233
834.36971,0.01205
832.30954,0.01188
830.24936,0.01150
828.18919,0.01091
826.12902,0.01049
824.06885,0.01026
822.00867,0.00991
819.94850,0.00938
817.88833,0.00893
815.82816,0.00882
813.76799,0.00885
811.70781,0.00870
809.64764,0.00847
807.58747,0.00826
805.52730,0.00814
803.46713,0.00808
801.40695,0.00792
799.34678,0.00770
797.28661,0.00758
795.22644,0.00756
793.16627,0.00761
791.10609,0.00777
789.04592,0.00791
786.98575,0.00768
784.92558,0.00718
782.86540,0.00702
780.80523,0.00727
778.74506,0.00728
776.68489,0.00699
774.62472,0.00676
772.56454,0.00651
770.50437,0.00624
768.44420,0.00621
766.38403,0.00630
764.32386,0.00633
762.26368,0.00651
760.20351,0.00648
758.14334,0.00631
756.08317,0.00637
754.02299,0.00625
751.96282,0.00598
749.90265,0.00612
747.84248,0.00638
745.78231,0.00607
743.72213,0.00558
741.66196,0.00584
739.60179,0.00657
737.54162,0.00694
735.48145,0.00682
733.42127,0.00661
731.36110,0.00640
729.30093,0.00642
727.24076,0.00692
725.18059,0.00724
723.12041,0.00744
721.06024,0.00715
719.00007,0.00748
716.93990,0.00758
714.87972,0.00717
712.81955,0.00687
710.75938,0.00650
708.69921,0.00598
706.63904,0.00571
704.57886,0.00568
702.51869,0.00564
700.45852,0.00559
698.39835,0.00567
696.33818,0.00626
694.27800,0.00727
692.21783,0.00798
690.15766,0.00800
688.09749,0.00780
686.03731,0.00825
683.97714,0.00907
681.91697,0.00961
679.85680,0.01005
677.79663,0.01035
675.73645,0.01021
673.67628,0.01001
671.61611,0.00943
669.55594,0.00541
667.49577,0.00313
665.43559,0.01018
663.37542,0.01031
661.31525,0.00856
659.25508,0.00810
657.19491,0.00846
655.13473,0.00855
653.07456,0.00796
651.01439,0.00719
648.95422,0.00700
646.89404,0.00755
644.83387,0.00775
642.77370,0.00770
640.71353,0.00763
638.65336,0.00665
636.59318,0.00444
634.53301,0.00288
632.47284,0.00338
630.41267,0.00458
628.35250,0.00480
626.29232,0.00409
624.23215,0.00385
622.17198,0.00495
620.11181,0.00668
618.05164,0.00741
615.99146,0.00721
613.93129,0.00692
611.87112,0.00510
609.81095,0.00163
607.75077,0.00000
605.69060,0.00140
603.63043,0.00238
601.57026,0.00100
599.51009,0.00000
