3996.73391,0.00011
3994.67373,0.00000
3992.61356,0.00012
3990.55339,0.00032
3988.49322,0.00042
3986.43305,0.00047
3984.37287,0.00057
3982.31270,0.00078
3980.25253,0.00107
3978.19236,0.00124
3976.13219,0.00124
3974.07201,0.00125
3972.01184,0.00122
3969.95167,0.00114
3967.89150,0.00133
3965.83133,0.00173
3963.77115,0.00182
3961.71098,0.00164
3959.65081,0.00165
3957.59064,0.00181
3955.53046,0.00192
3953.47029,0.00196
3951.41012,0.00177
3949.34995,0.00133
3947.28978,0.00112
3945.22960,0.00141
3943.16943,0.00194
3941.10926,0.00247
3939.04909,0.00277
3936.98892,0.00277
3934.92874,0.00252
3932.86857,0.00217
3930.80840,0.00210
3928.74823,0.00239
3926.68805,0.00271
3924.62788,0.00292
3922.56771,0.00300
3920.50754,0.00297
3918.44737,0.00294
3916.38719,0.00328
3914.32702,0.00398
3912.26685,0.00457
3910.20668,0.00483
3908.14651,0.00455
3906.08633,0.00349
3904.02616,0.00190
3901.96599,0.00110
3899.90582,0.00174
3897.84565,0.00279
3895.78547,0.00321
3893.72530,0.00308
3891.66513,0.00302
3889.60496,0.00332
3887.54478,0.00357
3885.48461,0.00349
3883.42444,0.00307
3881.36427,0.00256
3879.30410,0.00262
3877.24392,0.00321
3875.18375,0.00350
3873.12358,0.00312
3871.06341,0.00252
3869.00324,0.00249
3866.94306,0.00298
3864.88289,0.00322
3862.82272,0.00291
3860.76255,0.00256
3858.70237,0.00249
3856.64220,0.00279
3854.58203,0.00361
3852.52186,0.00410
3850.46169,0.00384
3848.40151,0.00341
3846.34134,0.00342
3844.28117,0.00367
3842.22100,0.00370
3840.16083,0.00355
3838.10065,0.00339
3836.04048,0.00334
3833.98031,0.00350
3831.92014,0.00379
3829.85997,0.00410
3827.79979,0.00422
3825.73962,0.00408
3823.67945,0.00399
3821.61928,0.00417
3819.55910,0.00420
3817.49893,0.00415
3815.43876,0.00415
3813.37859,0.00407
3811.31842,0.00392
3809.25824,0.00410
3807.19807,0.00465
3805.13790,0.00523
3803.07773,0.00557
3801.01756,0.00552
3798.95738,0.00524
3796.89721,0.00509
3794.83704,0.00513
3792.77687,0.00520
3790.71670,0.00508
3788.65652,0.00496
3786.59635,0.00519
3784.53618,0.00561
3782.47601,0.00574
3780.41583,0.00564
3778.35566,0.00558
3776.29549,0.00565
3774.23532,0.00576
3772.17515,0.00568
3770.11497,0.00524
3768.05480,0.00466
3765.99463,0.00446
3763.93446,0.00458
3761.87429,0.00457
3759.81411,0.00417
3757.75394,0.00350
3755.69377,0.00309
3753.63360,0.00330
3751.57342,0.00360
3749.51325,0.00301
3747.45308,0.00190
3745.39291,0.00105
3743.33274,0.00134
3741.27256,0.00211
3739.21239,0.00209
3737.15222,0.00160
3735.09205,0.00167
3733.03188,0.00275
3730.97170,0.00355
3728.91153,0.00352
3726.85136,0.00324
3724.79119,0.00322
3722.73102,0.00355
3720.67084,0.00386
3718.61067,0.00374
3716.55050,0.00346
3714.49033,0.00356
3712.43015,0.00403
3710.36998,0.00425
3708.30981,0.00440
3706.24964,0.00482
3704.18947,0.00540
3702.12929,0.00579
3700.06912,0.00577
3698.00895,0.00559
3695.94878,0.00545
3693.88861,0.00556
3691.82843,0.00593
3689.76826,0.00610
3687.70809,0.00600
3685.64792,0.00585
3683.58775,0.00538
3681.52757,0.00482
3679.46740,0.00460
3677.40723,0.00457
3675.34706,0.00430
3673.28688,0.00409
3671.22671,0.00433
3669.16654,0.00477
3667.10637,0.00510
3665.04620,0.00534
3662.98602,0.00554
3660.92585,0.00572
3658.86568,0.00585
3656.80551,0.00575
3654.74534,0.00559
3652.68516,0.00578
3650.62499,0.00611
3648.56482,0.00605
3646.50465,0.00619
3644.44447,0.00624
3642.38430,0.00609
3640.32413,0.00623
3638.26396,0.00680
3636.20379,0.00726
3634.14361,0.00717
3632.08344,0.00691
3630.02327,0.00698
3627.96310,0.00725
3625.90293,0.00757
3623.84275,0.00795
3621.78258,0.00836
3619.72241,0.00845
3617.66224,0.00795
3615.60207,0.00740
3613.54189,0.00726
3611.48172,0.00729
3609.42155,0.00749
3607.36138,0.00814
3605.30120,0.00926
3603.24103,0.01050
3601.18086,0.01126
3599.12069,0.01120
3597.06052,0.01080
3595.00034,0.01072
3592.94017,0.01103
3590.88000,0.01110
3588.81983,0.01048
3586.75966,0.01009
3584.69948,0.01088
3582.63931,0.01202
3580.57914,0.01274
3578.51897,0.01307
3576.45879,0.01321
3574.39862,0.01328
3572.33845,0.01328
3570.27828,0.01315
3568.21811,0.01277
3566.15793,0.01260
3564.09776,0.01326
3562.03759,0.01416
3559.97742,0.01479
3557.91725,0.01535
3555.85707,0.01589
3553.79690,0.01616
3551.73673,0.01607
3549.67656,0.01573
3547.61639,0.01529
3545.55621,0.01527
3543.49604,0.01606
3541.43587,0.01704
3539.37570,0.01747
3537.31552,0.01750
3535.25535,0.01776
3533.19518,0.01826
3531.13501,0.01850
3529.07484,0.01835
3527.01466,0.01801
3524.95449,0.01803
3522.89432,0.01867
3520.83415,0.01949
3518.77398,0.02015
3516.71380,0.02058
3514.65363,0.02079
3512.59346,0.02087
3510.53329,0.02087
3508.47312,0.02094
3506.41294,0.02107
3504.35277,0.02094
3502.29260,0.02078
3500.23243,0.02118
3498.17225,0.02195
3496.11208,0.02247
3494.05191,0.02266
3491.99174,0.02273
3489.93157,0.02278
3487.87139,0.02294
3485.81122,0.02325
3483.75105,0.02351
3481.69088,0.02347
3479.63071,0.02352
3477.57053,0.02406
3475.51036,0.02470
3473.45019,0.02503
3471.39002,0.02515
3469.32984,0.02506
3467.26967,0.02482
3465.20950,0.02474
3463.14933,0.02502
3461.08916,0.02533
3459.02898,0.02557
3456.96881,0.02598
3454.90864,0.02651
3452.84847,0.02682
3450.78830,0.02683
3448.72812,0.02668
3446.66795,0.02654
3444.60778,0.02665
3442.54761,0.02690
3440.48744,0.02716
3438.42726,0.02751
3436.36709,0.02782
3434.30692,0.02814
3432.24675,0.02845
3430.18657,0.02857
3428.12640,0.02858
3426.06623,0.02851
3424.00606,0.02840
3421.94589,0.02842
3419.88571,0.02862
3417.82554,0.02898
3415.76537,0.02931
3413.70520,0.02938
3411.64503,0.02941
3409.58485,0.02962
3407.52468,0.02991
3405.46451,0.03012
3403.40434,0.03007
3401.34416,0.02996
3399.28399,0.02951
3397.22382,0.02963
3395.16365,0.02963
3393.10348,0.02971
3391.04330,0.02997
3388.98313,0.03008
3386.92296,0.03000
3384.86279,0.02996
3382.80262,0.03017
3380.74244,0.03047
3378.68227,0.03078
3376.62210,0.03118
3374.56193,0.03162
3372.50176,0.03180
3370.44158,0.03168
3368.38141,0.03158
3366.32124,0.03164
3364.26107,0.03176
3362.20089,0.03186
3360.14072,0.03184
3358.08055,0.03172
3356.02038,0.03170
3353.96021,0.03188
3351.90003,0.03201
3349.83986,0.03199
3347.77969,0.03201
3345.71952,0.03213
3343.65935,0.03222
3341.59917,0.03223
3339.53900,0.03220
3337.47883,0.03211
3335.41866,0.03202
3333.35849,0.03195
3331.29831,0.03191
3329.23814,0.03208
3327.17797,0.03240
3325.11780,0.03263
3323.05762,0.03275
3320.99745,0.03276
3318.93728,0.03276
3316.87711,0.03294
3314.81694,0.03323
3312.75676,0.03326
3310.69659,0.03301
3308.63642,0.03280
3306.57625,0.03278
3304.51608,0.03290
3302.45590,0.03295
3300.39573,0.03285
3298.33556,0.03281
3296.27539,0.03295
3294.21521,0.03312
3292.15504,0.03311
3290.09487,0.03311
3288.03470,0.03335
3285.97453,0.03364
3283.91435,0.03375
3281.85418,0.03372
3279.79401,0.03356
3277.73384,0.03326
3275.67367,0.03309
3273.61349,0.03319
3271.55332,0.03341
3269.49315,0.03356
3267.43298,0.03361
3265.37281,0.03366
3263.31263,0.03378
3261.25246,0.03386
3259.19229,0.03375
3257.13212,0.03349
3255.07194,0.03335
3253.01177,0.03339
3250.95160,0.03348
3248.89143,0.03350
3246.83126,0.03349
3244.77108,0.03349
3242.71091,0.03344
3240.65074,0.03336
3238.59057,0.03332
3236.53040,0.03326
3234.47022,0.03313
3232.41005,0.03306
3230.34988,0.03301
3228.28971,0.03304
3226.22954,0.03325
3224.16936,0.03334
3222.10919,0.03317
3220.04902,0.03308
3217.98885,0.03314
3215.92867,0.03320
3213.86850,0.03312
3211.80833,0.03291
3209.74816,0.03287
3207.68799,0.03312
3205.62781,0.03336
3203.56764,0.03329
3201.50747,0.03303
3199.44730,0.03276
3197.38713,0.03267
3195.32695,0.03286
3193.26678,0.03302
3191.20661,0.03286
3189.14644,0.03260
3187.08626,0.03253
3185.02609,0.03249
3182.96592,0.03241
3180.90575,0.03244
3178.84558,0.03242
3176.78540,0.03244
3174.72523,0.03264
3172.66506,0.03275
3170.60489,0.03263
3168.54472,0.03229
3166.48454,0.03184
3164.42437,0.03171
3162.36420,0.03191
3160.30403,0.03201
3158.24386,0.03181
3156.18368,0.03157
3154.12351,0.03162
3152.06334,0.03193
3150.00317,0.03213
3147.94299,0.03197
3145.88282,0.03165
3143.82265,0.03149
3141.76248,0.03149
3139.70231,0.03148
3137.64213,0.03140
3135.58196,0.03116
3133.52179,0.03083
3131.46162,0.03063
3129.40145,0.03061
3127.34127,0.03061
3125.28110,0.03052
3123.22093,0.03032
3121.16076,0.03008
3119.10058,0.02997
3117.04041,0.03012
3114.98024,0.03029
3112.92007,0.03028
3110.85990,0.03012
3108.79972,0.02995
3106.73955,0.02987
3104.67938,0.02989
3102.61921,0.02977
3100.55904,0.02960
3098.49886,0.02957
3096.43869,0.02950
3094.37852,0.02939
3092.31835,0.02936
3090.25818,0.02928
3088.19800,0.02911
3086.13783,0.02898
3084.07766,0.02895
3082.01749,0.02876
3079.95731,0.02833
3077.89714,0.02802
3075.83697,0.02806
3073.77680,0.02829
3071.71663,0.02831
3069.65645,0.02796
3067.59628,0.02752
3065.53611,0.02747
3063.47594,0.02772
3061.41577,0.02778
3059.35559,0.02763
3057.29542,0.02744
3055.23525,0.02738
3053.17508,0.02751
3051.11491,0.02753
3049.05473,0.02723
3046.99456,0.02679
3044.93439,0.02651
3042.87422,0.02646
3040.81404,0.02648
3038.75387,0.02645
3036.69370,0.02623
3034.63353,0.02583
3032.57336,0.02557
3030.51318,0.02560
3028.45301,0.02568
3026.39284,0.02563
3024.33267,0.02548
3022.27250,0.02535
3020.21232,0.02537
3018.15215,0.02546
3016.09198,0.02531
3014.03181,0.02497
3011.97163,0.02476
3009.91146,0.02474
3007.85129,0.02467
3005.79112,0.02445
3003.73095,0.02428
3001.67077,0.02433
2999.61060,0.02461
2997.55043,0.02457
2995.49026,0.02417
2993.43009,0.02379
2991.36991,0.02378
2989.30974,0.02401
2987.24957,0.02410
2985.18940,0.02395
2983.12923,0.02389
2981.06905,0.02394
2979.00888,0.02389
2976.94871,0.02379
2974.88854,0.02374
2972.82836,0.02375
2970.76819,0.02377
2968.70802,0.02363
2966.64785,0.02335
2964.58768,0.02320
2962.52750,0.02326
2960.46733,0.02339
2958.40716,0.02344
2956.34699,0.02330
2954.28682,0.02316
2952.22664,0.02309
2950.16647,0.02309
2948.10630,0.02320
2946.04613,0.02321
2943.98596,0.02309
2941.92578,0.02310
2939.86561,0.02316
2937.80544,0.02317
2935.74527,0.02314
2933.68509,0.02298
2931.62492,0.02275
2929.56475,0.02266
2927.50458,0.02273
2925.44441,0.02281
2923.38423,0.02280
2921.32406,0.02261
2919.26389,0.02238
2917.20372,0.02233
2915.14355,0.02235
2913.08337,0.02222
2911.02320,0.02192
2908.96303,0.02176
2906.90286,0.02182
2904.84268,0.02174
2902.78251,0.02143
2900.72234,0.02120
2898.66217,0.02109
2896.60200,0.02098
2894.54182,0.02092
2892.48165,0.02093
2890.42148,0.02086
2888.36131,0.02067
2886.30114,0.02058
2884.24096,0.02059
2882.18079,0.02055
2880.12062,0.02035
2878.06045,0.02015
2876.00028,0.02019
2873.94010,0.02032
2871.87993,0.02029
2869.81976,0.02013
2867.75959,0.02001
2865.69941,0.01997
2863.63924,0.01983
2861.57907,0.01961
2859.51890,0.01938
2857.45873,0.01906
2855.39855,0.01880
2853.33838,0.01882
2851.27821,0.01891
2849.21804,0.01887
2847.15787,0.01873
2845.09769,0.01854
2843.03752,0.01825
2840.97735,0.01799
2838.91718,0.01790
2836.85700,0.01788
2834.79683,0.01784
2832.73666,0.01788
2830.67649,0.01790
2828.61632,0.01769
2826.55614,0.01741
2824.49597,0.01730
2822.43580,0.01728
2820.37563,0.01727
2818.31546,0.01720
2816.25528,0.01708
2814.19511,0.01697
2812.13494,0.01694
2810.07477,0.01683
2808.01460,0.01656
2805.95442,0.01634
2803.89425,0.01623
2801.83408,0.01620
2799.77391,0.01619
2797.71373,0.01617
2795.65356,0.01618
2793.59339,0.01614
2791.53322,0.01610
2789.47305,0.01609
2787.41287,0.01596
2785.35270,0.01574
2783.29253,0.01553
2781.23236,0.01533
2779.17219,0.01536
2777.11201,0.01561
2775.05184,0.01570
2772.99167,0.01556
2770.93150,0.01545
2768.87133,0.01546
2766.81115,0.01536
2764.75098,0.01512
2762.69081,0.01495
2760.63064,0.01481
2758.57046,0.01470
2756.51029,0.01477
2754.45012,0.01482
2752.38995,0.01467
2750.32978,0.01453
2748.26960,0.01455
2746.20943,0.01455
2744.14926,0.01443
2742.08909,0.01420
2740.02892,0.01406
2737.96874,0.01412
2735.90857,0.01417
2733.84840,0.01411
2731.78823,0.01404
2729.72805,0.01394
2727.66788,0.01376
2725.60771,0.01357
2723.54754,0.01345
2721.48737,0.01339
2719.42719,0.01339
2717.36702,0.01335
2715.30685,0.01325
2713.24668,0.01326
2711.18651,0.01332
2709.12633,0.01331
2707.06616,0.01319
2705.00599,0.01299
2702.94582,0.01293
2700.88565,0.01304
2698.82547,0.01299
2696.76530,0.01275
2694.70513,0.01265
2692.64496,0.01267
2690.58478,0.01257
2688.52461,0.01239
2686.46444,0.01228
2684.40427,0.01228
2682.34410,0.01233
2680.28392,0.01225
2678.22375,0.01209
2676.16358,0.01204
2674.10341,0.01204
2672.04324,0.01188
2669.98306,0.01163
2667.92289,0.01160
2665.86272,0.01183
2663.80255,0.01207
2661.74238,0.01209
2659.68220,0.01195
2657.62203,0.01177
2655.56186,0.01157
2653.50169,0.01139
2651.44151,0.01143
2649.38134,0.01168
2647.32117,0.01179
2645.26100,0.01169
2643.20083,0.01143
2641.14065,0.01125
2639.08048,0.01128
2637.02031,0.01123
2634.96014,0.01100
2632.89997,0.01082
2630.83979,0.01074
2628.77962,0.01064
2626.71945,0.01066
2624.65928,0.01085
2622.59910,0.01091
2620.53893,0.01077
2618.47876,0.01065
2616.41859,0.01062
2614.35842,0.01055
2612.29824,0.01038
2610.23807,0.01019
2608.17790,0.01005
2606.11773,0.00997
2604.05756,0.01002
2601.99738,0.01000
2599.93721,0.00968
2597.87704,0.00938
2595.81687,0.00945
2593.75670,0.00964
2591.69652,0.00970
2589.63635,0.00963
2587.57618,0.00948
2585.51601,0.00944
2583.45583,0.00948
2581.39566,0.00935
2579.33549,0.00910
2577.27532,0.00884
2575.21515,0.00870
2573.15497,0.00894
2571.09480,0.00928
2569.03463,0.00937
2566.97446,0.00920
2564.91429,0.00891
2562.85411,0.00878
2560.79394,0.00881
2558.73377,0.00886
2556.67360,0.00892
2554.61342,0.00899
2552.55325,0.00911
2550.49308,0.00917
2548.43291,0.00924
2546.37274,0.00942
2544.31256,0.00936
2542.25239,0.00889
2540.19222,0.00861
2538.13205,0.00880
2536.07188,0.00895
2534.01170,0.00868
2531.95153,0.00833
2529.89136,0.00841
2527.83119,0.00872
2525.77102,0.00884
2523.71084,0.00871
2521.65067,0.00851
2519.59050,0.00845
2517.53033,0.00857
2515.47015,0.00885
2513.40998,0.00912
2511.34981,0.00926
2509.28964,0.00940
2507.22947,0.00941
2505.16929,0.00911
2503.10912,0.00881
2501.04895,0.00875
2498.98878,0.00884
2496.92861,0.00894
2494.86843,0.00902
2492.80826,0.00914
2490.74809,0.00934
2488.68792,0.00949
2486.62775,0.00952
2484.56757,0.00948
2482.50740,0.00942
2480.44723,0.00931
2478.38706,0.00921
2476.32688,0.00923
2474.26671,0.00931
2472.20654,0.00937
2470.14637,0.00941
2468.08620,0.00957
2466.02602,0.00984
2463.96585,0.00985
2461.90568,0.00959
2459.84551,0.00940
2457.78534,0.00936
2455.72516,0.00945
2453.66499,0.00968
2451.60482,0.00978
2449.54465,0.00968
2447.48447,0.00949
2445.42430,0.00943
2443.36413,0.00971
2441.30396,0.00992
2439.24379,0.00963
2437.18361,0.00916
2435.12344,0.00896
2433.06327,0.00909
2431.00310,0.00925
2428.94293,0.00935
2426.88275,0.00952
2424.82258,0.00946
2422.76241,0.00924
2420.70224,0.00921
2418.64207,0.00928
2416.58189,0.00928
2414.52172,0.00921
2412.46155,0.00919
2410.40138,0.00914
2408.34120,0.00896
2406.28103,0.00893
2404.22086,0.00897
2402.16069,0.00883
2400.10052,0.00863
2398.04034,0.00855
2395.98017,0.00899
2393.92000,0.00951
2391.85983,0.00954
2389.79966,0.00903
2387.73948,0.00846
2385.67931,0.00812
2383.61914,0.00770
2381.55897,0.00691
2379.49880,0.00606
2377.43862,0.00578
2375.37845,0.00626
2373.31828,0.00732
2371.25811,0.00888
2369.19793,0.01069
2367.13776,0.01211
2365.07759,0.01262
2363.01742,0.01246
2360.95725,0.01289
2358.89707,0.01394
2356.83690,0.01388
2354.77673,0.01225
2352.71656,0.01032
2350.65639,0.00931
2348.59621,0.00947
2346.53604,0.01040
2344.47587,0.01151
2342.41570,0.01227
2340.35552,0.01275
2338.29535,0.01307
2336.23518,0.01289
2334.17501,0.01214
2332.11484,0.01121
2330.05466,0.01054
2327.99449,0.01008
2325.93432,0.00947
2323.87415,0.00844
2321.81398,0.00727
2319.75380,0.00667
2317.69363,0.00666
2315.63346,0.00651
2313.57329,0.00583
2311.51312,0.00511
2309.45294,0.00494
2307.39277,0.00535
2305.33260,0.00599
2303.27243,0.00648
2301.21225,0.00674
2299.15208,0.00700
2297.09191,0.00738
2295.03174,0.00786
2292.97157,0.00837
2290.91139,0.00868
2288.85122,0.00858
2286.79105,0.00835
2284.73088,0.00843
2282.67071,0.00874
2280.61053,0.00873
2278.55036,0.00840
2276.49019,0.00832
2274.43002,0.00855
2272.36984,0.00855
2270.30967,0.00848
2268.24950,0.00871
2266.18933,0.00898
2264.12916,0.00904
2262.06898,0.00876
2260.00881,0.00821
2257.94864,0.00783
2255.88847,0.00781
2253.82830,0.00787
2251.76812,0.00764
2249.70795,0.00696
2247.64778,0.00667
2245.58761,0.00719
2243.52744,0.00764
2241.46726,0.00737
2239.40709,0.00675
2237.34692,0.00624
2235.28675,0.00605
2233.22657,0.00584
2231.16640,0.00546
2229.10623,0.00567
2227.04606,0.00641
2224.98589,0.00701
2222.92571,0.00728
2220.86554,0.00713
2218.80537,0.00694
2216.74520,0.00707
2214.68503,0.00715
2212.62485,0.00713
2210.56468,0.00715
2208.50451,0.00711
2206.44434,0.00722
2204.38417,0.00745
2202.32399,0.00728
2200.26382,0.00660
2198.20365,0.00594
2196.14348,0.00582
2194.08330,0.00590
2192.02313,0.00593
2189.96296,0.00607
2187.90279,0.00594
2185.84262,0.00573
2183.78244,0.00563
2181.72227,0.00490
2179.66210,0.00419
2177.60193,0.00414
2175.54176,0.00402
2173.48158,0.00416
2171.42141,0.00482
2169.36124,0.00558
2167.30107,0.00593
2165.24089,0.00539
2163.18072,0.00444
2161.12055,0.00291
2159.06038,0.00102
2157.00021,0.00052
2154.94003,0.00122
2152.87986,0.00220
2150.81969,0.00299
2148.75952,0.00296
2146.69935,0.00254
2144.63917,0.00255
2142.57900,0.00261
2140.51883,0.00258
2138.45866,0.00232
2136.39849,0.00168
2134.33831,0.00180
2132.27814,0.00269
2130.21797,0.00323
2128.15780,0.00327
2126.09762,0.00313
2124.03745,0.00330
2121.97728,0.00385
2119.91711,0.00423
2117.85694,0.00429
2115.79676,0.00442
2113.73659,0.00463
2111.67642,0.00434
2109.61625,0.00372
2107.55608,0.00367
2105.49590,0.00420
2103.43573,0.00457
2101.37556,0.00453
2099.31539,0.00454
2097.25521,0.00447
2095.19504,0.00448
2093.13487,0.00423
2091.07470,0.00373
2089.01453,0.00342
2086.95435,0.00379
2084.89418,0.00452
2082.83401,0.00472
2080.77384,0.00449
2078.71367,0.00433
2076.65349,0.00424
2074.59332,0.00434
2072.53315,0.00454
2070.47298,0.00461
2068.41281,0.00476
2066.35263,0.00480
2064.29246,0.00462
2062.23229,0.00459
2060.17212,0.00451
2058.11194,0.00453
2056.05177,0.00515
2053.99160,0.00605
2051.93143,0.00673
2049.87126,0.00684
2047.81108,0.00585
2045.75091,0.00464
2043.69074,0.00453
2041.63057,0.00475
2039.57040,0.00409
2037.51022,0.00335
2035.45005,0.00382
2033.38988,0.00489
2031.32971,0.00508
2029.26954,0.00454
2027.20936,0.00434
2025.14919,0.00442
2023.08902,0.00445
2021.02885,0.00411
2018.96867,0.00312
2016.90850,0.00229
2014.84833,0.00221
2012.78816,0.00265
2010.72799,0.00303
2008.66781,0.00248
2006.60764,0.00149
2004.54747,0.00114
2002.48730,0.00106
2000.42713,0.00109
1998.36695,0.00166
1996.30678,0.00203
1994.24661,0.00156
1992.18644,0.00109
1990.12626,0.00183
1988.06609,0.00310
1986.00592,0.00347
1983.94575,0.00335
1981.88558,0.00428
1979.82540,0.00573
1977.76523,0.00592
1975.70506,0.00531
1973.64489,0.00474
1971.58472,0.00359
1969.52454,0.00195
1967.46437,0.00063
1965.40420,0.00045
1963.34403,0.00119
1961.28386,0.00145
1959.22368,0.00110
1957.16351,0.00093
1955.10334,0.00127
1953.04317,0.00205
1950.98299,0.00263
1948.92282,0.00262
1946.86265,0.00216
1944.80248,0.00139
1942.74231,0.00101
1940.68213,0.00115
1938.62196,0.00106
1936.56179,0.00078
1934.50162,0.00077
1932.44145,0.00106
1930.38127,0.00150
1928.32110,0.00179
1926.26093,0.00158
1924.20076,0.00105
1922.14059,0.00097
1920.08041,0.00150
1918.02024,0.00204
1915.96007,0.00221
1913.89990,0.00226
1911.83972,0.00244
1909.77955,0.00267
1907.71938,0.00278
1905.65921,0.00256
1903.59904,0.00209
1901.53886,0.00185
1899.47869,0.00196
1897.41852,0.00205
1895.35835,0.00194
1893.29818,0.00179
1891.23800,0.00186
1889.17783,0.00209
1887.11766,0.00205
1885.05749,0.00180
1882.99731,0.00172
1880.93714,0.00184
1878.87697,0.00191
1876.81680,0.00183
1874.75663,0.00178
1872.69645,0.00198
1870.63628,0.00233
1868.57611,0.00252
1866.51594,0.00235
1864.45577,0.00205
1862.39559,0.00196
1860.33542,0.00187
1858.27525,0.00169
1856.21508,0.00179
1854.15491,0.00204
1852.09473,0.00203
1850.03456,0.00182
1847.97439,0.00156
1845.91422,0.00123
1843.85404,0.00101
1841.79387,0.00116
1839.73370,0.00146
1837.67353,0.00161
1835.61336,0.00156
1833.55318,0.00161
1831.49301,0.00187
1829.43284,0.00195
1827.37267,0.00183
1825.31250,0.00199
1823.25232,0.00248
1821.19215,0.00278
1819.13198,0.00244
1817.07181,0.00176
1815.01163,0.00136
1812.95146,0.00127
1810.89129,0.00124
1808.83112,0.00122
1806.77095,0.00114
1804.71077,0.00082
1802.65060,0.00050
1800.59043,0.00082
1798.53026,0.00144
1796.47009,0.00176
1794.40991,0.00185
1792.34974,0.00164
1790.28957,0.00110
1788.22940,0.00069
1786.16923,0.00056
1784.10905,0.00078
1782.04888,0.00126
1779.98871,0.00149
1777.92854,0.00145
1775.86836,0.00170
1773.80819,0.00240
1771.74802,0.00269
1769.68785,0.00205
1767.62768,0.00151
1765.56750,0.00159
1763.50733,0.00185
1761.44716,0.00187
1759.38699,0.00168
1757.32682,0.00164
1755.26664,0.00183
1753.20647,0.00197
1751.14630,0.00206
1749.08613,0.00233
1747.02596,0.00249
1744.96578,0.00248
1742.90561,0.00275
1740.84544,0.00320
1738.78527,0.00331
1736.72509,0.00299
1734.66492,0.00248
1732.60475,0.00220
1730.54458,0.00246
1728.48441,0.00282
1726.42423,0.00303
1724.36406,0.00317
1722.30389,0.00351
1720.24372,0.00421
1718.18355,0.00458
1716.12337,0.00375
1714.06320,0.00293
1712.00303,0.00287
1709.94286,0.00332
1707.88268,0.00386
1705.82251,0.00401
1703.76234,0.00387
1701.70217,0.00421
1699.64200,0.00483
1697.58182,0.00516
1695.52165,0.00547
1693.46148,0.00579
1691.40131,0.00599
1689.34114,0.00644
1687.28096,0.00749
1685.22079,0.00891
1683.16062,0.00941
1681.10045,0.00912
1679.04028,0.00934
1676.98010,0.01040
1674.91993,0.01177
1672.85976,0.01294
1670.79959,0.01385
1668.73941,0.01432
1666.67924,0.01448
1664.61907,0.01489
1662.55890,0.01528
1660.49873,0.01501
1658.43855,0.01472
1656.37838,0.01535
1654.31821,0.01673
1652.25804,0.01732
1650.19787,0.01712
1648.13769,0.01710
1646.07752,0.01706
1644.01735,0.01643
1641.95718,0.01583
1639.89701,0.01595
1637.83683,0.01676
1635.77666,0.01724
1633.71649,0.01658
1631.65632,0.01574
1629.59614,0.01552
1627.53597,0.01568
1625.47580,0.01574
1623.41563,0.01543
1621.35546,0.01501
1619.29528,0.01529
1617.23511,0.01586
1615.17494,0.01543
1613.11477,0.01451
1611.05460,0.01410
1608.99442,0.01408
1606.93425,0.01397
1604.87408,0.01380
1602.81391,0.01369
1600.75373,0.01359
1598.69356,0.01348
1596.63339,0.01339
1594.57322,0.01320
1592.51305,0.01288
1590.45287,0.01259
1588.39270,0.01232
1586.33253,0.01193
1584.27236,0.01136
1582.21219,0.01092
1580.15201,0.01097
1578.09184,0.01133
1576.03167,0.01114
1573.97150,0.01031
1571.91133,0.00995
1569.85115,0.00998
1567.79098,0.00947
1565.73081,0.00866
1563.67064,0.00840
1561.61046,0.00921
1559.55029,0.01000
1557.49012,0.00862
1555.42995,0.00665
1553.36978,0.00557
1551.30960,0.00518
1549.24943,0.00501
1547.18926,0.00492
1545.12909,0.00523
1543.06892,0.00627
1541.00874,0.00728
1538.94857,0.00659
1536.88840,0.00508
1534.82823,0.00430
1532.76805,0.00407
1530.70788,0.00373
1528.64771,0.00337
1526.58754,0.00316
1524.52737,0.00324
1522.46719,0.00333
1520.40702,0.00288
1518.34685,0.00231
1516.28668,0.00182
1514.22651,0.00124
1512.16633,0.00063
1510.10616,0.00030
1508.04599,0.00083
1505.98582,0.00202
1503.92565,0.00241
1501.86547,0.00213
1499.80530,0.00219
1497.74513,0.00249
1495.68496,0.00263
1493.62478,0.00276
1491.56461,0.00282
1489.50444,0.00262
1487.44427,0.00253
1485.38410,0.00271
1483.32392,0.00291
1481.26375,0.00299
1479.20358,0.00294
1477.14341,0.00283
1475.08324,0.00281
1473.02306,0.00298
1470.96289,0.00326
1468.90272,0.00348
1466.84255,0.00379
1464.78238,0.00402
1462.72220,0.00395
1460.66203,0.00397
1458.60186,0.00397
1456.54169,0.00352
1454.48151,0.00325
1452.42134,0.00332
1450.36117,0.00372
1448.30100,0.00425
1446.24083,0.00462
1444.18065,0.00484
1442.12048,0.00493
1440.06031,0.00480
1438.00014,0.00444
1435.93997,0.00404
1433.87979,0.00402
1431.81962,0.00432
1429.75945,0.00471
1427.69928,0.00495
1425.63910,0.00509
1423.57893,0.00510
1421.51876,0.00486
1419.45859,0.00442
1417.39842,0.00442
1415.33824,0.00515
1413.27807,0.00590
1411.21790,0.00616
1409.15773,0.00613
1407.09756,0.00612
1405.03738,0.00615
1402.97721,0.00612
1400.91704,0.00584
1398.85687,0.00522
1396.79670,0.00465
1394.73652,0.00460
1392.67635,0.00478
1390.61618,0.00481
1388.55601,0.00467
1386.49583,0.00470
1384.43566,0.00505
1382.37549,0.00528
1380.31532,0.00511
1378.25515,0.00486
1376.19497,0.00483
1374.13480,0.00478
1372.07463,0.00465
1370.01446,0.00463
1367.95429,0.00465
1365.89411,0.00448
1363.83394,0.00396
1361.77377,0.00352
1359.71360,0.00381
1357.65343,0.00445
1355.59325,0.00481
1353.53308,0.00478
1351.47291,0.00465
1349.41274,0.00460
1347.35256,0.00454
1345.29239,0.00430
1343.23222,0.00375
1341.17205,0.00280
1339.11188,0.00204
1337.05170,0.00230
1334.99153,0.00318
1332.93136,0.00377
1330.87119,0.00387
1328.81102,0.00382
1326.75084,0.00380
1324.69067,0.00379
1322.63050,0.00378
1320.57033,0.00365
1318.51015,0.00331
1316.44998,0.00309
1314.38981,0.00317
1312.32964,0.00339
1310.26947,0.00369
1308.20929,0.00399
1306.14912,0.00420
1304.08895,0.00436
1302.02878,0.00445
1299.96861,0.00441
1297.90843,0.00425
1295.84826,0.00416
1293.78809,0.00426
1291.72792,0.00431
1289.66775,0.00418
1287.60757,0.00406
1285.54740,0.00408
1283.48723,0.00404
1281.42706,0.00386
1279.36688,0.00377
1277.30671,0.00390
1275.24654,0.00404
1273.18637,0.00404
1271.12620,0.00403
1269.06602,0.00398
1267.00585,0.00390
1264.94568,0.00395
1262.88551,0.00411
1260.82534,0.00419
1258.76516,0.00416
1256.70499,0.00421
1254.64482,0.00431
1252.58465,0.00434
1250.52447,0.00432
1248.46430,0.00436
1246.40413,0.00433
1244.34396,0.00408
1242.28379,0.00385
1240.22361,0.00376
1238.16344,0.00372
1236.10327,0.00369
1234.04310,0.00360
1231.98293,0.00344
1229.92275,0.00322
1227.86258,0.00289
1225.80241,0.00249
1223.74224,0.00222
1221.68207,0.00204
1219.62189,0.00183
1217.56172,0.00171
1215.50155,0.00164
1213.44138,0.00145
1211.38120,0.00118
1209.32103,0.00100
1207.26086,0.00097
1205.20069,0.00100
1203.14052,0.00088
1201.08034,0.00064
1199.02017,0.00036
1196.96000,0.00029
1194.89983,0.00040
1192.83966,0.00061
1190.77948,0.00075
1188.71931,0.00076
1186.65914,0.00081
1184.59897,0.00110
1182.53880,0.00144
1180.47862,0.00173
1178.41845,0.00210
1176.35828,0.00252
1174.29811,0.00287
1172.23793,0.00316
1170.17776,0.00352
1168.11759,0.00409
1166.05742,0.00476
1163.99725,0.00532
1161.93707,0.00575
1159.87690,0.00613
1157.81673,0.00658
1155.75656,0.00717
1153.69639,0.00787
1151.63621,0.00858
1149.57604,0.00928
1147.51587,0.01007
1145.45570,0.01094
1143.39552,0.01187
1141.33535,0.01282
1139.27518,0.01370
1137.21501,0.01453
1135.15484,0.01540
1133.09466,0.01638
1131.03449,0.01751
1128.97432,0.01867
1126.91415,0.01977
1124.85398,0.02089
1122.79380,0.02211
1120.73363,0.02337
1118.67346,0.02459
1116.61329,0.02583
1114.55312,0.02712
1112.49294,0.02843
1110.43277,0.02972
1108.37260,0.03088
1106.31243,0.03193
1104.25225,0.03298
1102.19208,0.03398
1100.13191,0.03495
1098.07174,0.03589
1096.01157,0.03675
1093.95139,0.03776
1091.89122,0.03887
1089.83105,0.03966
1087.77088,0.04011
1085.71071,0.04071
1083.65053,0.04166
1081.59036,0.04260
1079.53019,0.04331
1077.47002,0.04393
1075.40985,0.04460
1073.34967,0.04525
1071.28950,0.04565
1069.22933,0.04579
1067.16916,0.04579
1065.10898,0.04560
1063.04881,0.04536
1060.98864,0.04517
1058.92847,0.04482
1056.86830,0.04411
1054.80812,0.04314
1052.74795,0.04212
1050.68778,0.04105
1048.62761,0.03985
1046.56744,0.03849
1044.50726,0.03692
1042.44709,0.03520
1040.38692,0.03346
1038.32675,0.03180
1036.26657,0.03020
1034.20640,0.02858
1032.14623,0.02696
1030.08606,0.02541
1028.02589,0.02405
1025.96571,0.02290
1023.90554,0.02186
1021.84537,0.02092
1019.78520,0.02015
1017.72503,0.01965
1015.66485,0.01925
1013.60468,0.01879
1011.54451,0.01854
1009.48434,0.01858
1007.42417,0.01884
1005.36399,0.01936
1003.30382,0.02001
1001.24365,0.02075
999.18348,0.02167
997.12330,0.02270
995.06313,0.02382
993.00296,0.02494
990.94279,0.02595
988.88262,0.02673
986.82244,0.02730
984.76227,0.02771
982.70210,0.02800
980.64193,0.02827
978.58176,0.02855
976.52158,0.02857
974.46141,0.02815
972.40124,0.02752
970.34107,0.02683
968.28089,0.02602
966.22072,0.02512
964.16055,0.02415
962.10038,0.02303
960.04021,0.02184
957.98003,0.02073
955.91986,0.01977
953.85969,0.01898
951.79952,0.01811
949.73935,0.01709
947.67917,0.01611
945.61900,0.01513
943.55883,0.01420
941.49866,0.01346
939.43849,0.01288
937.37831,0.01231
935.31814,0.01169
933.25797,0.01107
931.19780,0.01049
929.13762,0.01002
927.07745,0.00957
925.01728,0.00891
922.95711,0.00815
920.89694,0.00764
918.83676,0.00741
916.77659,0.00726
914.71642,0.00718
912.65625,0.00707
910.59608,0.00683
908.53590,0.00653
906.47573,0.00642
904.41556,0.00661
902.35539,0.00698
900.29522,0.00717
898.23504,0.00701
896.17487,0.00694
894.11470,0.00736
892.05453,0.00814
889.99435,0.00868
887.93418,0.00882
885.87401,0.00915
883.81384,0.00979
881.75367,0.01030
879.69349,0.01079
877.63332,0.01132
875.57315,0.01183
873.51298,0.01239
871.45281,0.01295
869.39263,0.01348
867.33246,0.01413
865.27229,0.01484
863.21212,0.01522
861.15194,0.01525
859.09177,0.01542
857.03160,0.01584
854.97143,0.01605
852.91126,0.01586
850.85108,0.01559
848.79091,0.01553
846.73074,0.01531
844.67057,0.01472
842.61040,0.01413
840.55022,0.01380
838.49005,0.01341
836.42988,0.01273
834.36971,0.01226
832.30954,0.01211
830.24936,0.01197
828.18919,0.01158
826.12902,0.01092
824.06885,0.01021
822.00867,0.00959
819.94850,0.00912
817.88833,0.00890
815.82816,0.00878
813.76799,0.00845
811.70781,0.00798
809.64764,0.00763
807.58747,0.00742
805.52730,0.00711
803.46713,0.00662
801.40695,0.00609
799.34678,0.00574
797.28661,0.00590
795.22644,0.00634
793.16627,0.00648
791.10609,0.00661
789.04592,0.00708
786.98575,0.00724
784.92558,0.00692
782.86540,0.00680
780.80523,0.00686
778.74506,0.00652
776.68489,0.00581
774.62472,0.00533
772.56454,0.00526
770.50437,0.00532
768.44420,0.00523
766.38403,0.00509
764.32386,0.00526
762.26368,0.00547
760.20351,0.00504
758.14334,0.00448
756.08317,0.00448
754.02299,0.00464
751.96282,0.00469
749.90265,0.00467
747.84248,0.00457
745.78231,0.00447
743.72213,0.00441
741.66196,0.00461
739.60179,0.00533
737.54162,0.00593
735.48145,0.00563
733.42127,0.00503
731.36110,0.00496
729.30093,0.00512
727.24076,0.00509
725.18059,0.00492
723.12041,0.00477
721.06024,0.00470
719.00007,0.00507
716.93990,0.00536
714.87972,0.00515
712.81955,0.00485
710.75938,0.00467
708.69921,0.00459
706.63904,0.00464
704.57886,0.00472
702.51869,0.00468
700.45852,0.00435
698.39835,0.00392
696.33818,0.00410
694.27800,0.00493
692.21783,0.00541
690.15766,0.00493
688.09749,0.00439
686.03731,0.00486
683.97714,0.00607
681.91697,0.00725
679.85680,0.00790
677.79663,0.00771
675.73645,0.00696
673.67628,0.00598
671.61611,0.00461
669.55594,0.00371
667.49577,0.00473
665.43559,0.00619
663.37542,0.00687
661.31525,0.00705
659.25508,0.00705
657.19491,0.00662
655.13473,0.00585
653.07456,0.00539
651.01439,0.00541
648.95422,0.00586
646.89404,0.00636
644.83387,0.00632
642.77370,0.00622
640.71353,0.00617
638.65336,0.00501
636.59318,0.00292
634.53301,0.00200
632.47284,0.00333
630.41267,0.00549
628.35250,0.00662
626.29232,0.00625
624.23215,0.00557
622.17198,0.00495
620.11181,0.00427
618.05164,0.00425
615.99146,0.00465
613.93129,0.00486
611.87112,0.00364
609.81095,0.00098
607.75077,0.00010
605.69060,0.00197
603.63043,0.00298
601.57026,0.00135
599.51009,0.00000
