3996.73391,0.00113
3994.67373,0.00107
3992.61356,0.00083
3990.55339,0.00038
3988.49322,0.00022
3986.43305,0.00054
3984.37287,0.00081
3982.31270,0.00092
3980.25253,0.00112
3978.19236,0.00128
3976.13219,0.00108
3974.07201,0.00051
3972.01184,0.00004
3969.95167,0.00000
3967.89150,0.00030
3965.83133,0.00076
3963.77115,0.00119
3961.71098,0.00129
3959.65081,0.00082
3957.59064,0.00021
3955.53046,0.00019
3953.47029,0.00075
3951.41012,0.00123
3949.34995,0.00119
3947.28978,0.00074
3945.22960,0.00029
3943.16943,0.00023
3941.10926,0.00075
3939.04909,0.00128
3936.98892,0.00137
3934.92874,0.00140
3932.86857,0.00153
3930.80840,0.00135
3928.74823,0.00087
3926.68805,0.00037
3924.62788,0.00000
3922.56771,0.00010
3920.50754,0.00083
3918.44737,0.00151
3916.38719,0.00140
3914.32702,0.00090
3912.26685,0.00058
3910.20668,0.00047
3908.14651,0.00066
3906.08633,0.00100
3904.02616,0.00087
3901.96599,0.00042
3899.90582,0.00042
3897.84565,0.00081
3895.78547,0.00109
3893.72530,0.00097
3891.66513,0.00055
3889.60496,0.00048
3887.54478,0.00099
3885.48461,0.00136
3883.42444,0.00111
3881.36427,0.00063
3879.30410,0.00048
3877.24392,0.00087
3875.18375,0.00140
3873.12358,0.00137
3871.06341,0.00066
3869.00324,0.00012
3866.94306,0.00040
3864.88289,0.00096
3862.82272,0.00127
3860.76255,0.00149
3858.70237,0.00180
3856.64220,0.00190
3854.58203,0.00164
3852.52186,0.00141
3850.46169,0.00130
3848.40151,0.00115
3846.34134,0.00133
3844.28117,0.00193
3842.22100,0.00242
3840.16083,0.00242
3838.10065,0.00204
3836.04048,0.00146
3833.98031,0.00101
3831.92014,0.00095
3829.85997,0.00111
3827.79979,0.00126
3825.73962,0.00135
3823.67945,0.00136
3821.61928,0.00113
3819.55910,0.00094
3817.49893,0.00107
3815.43876,0.00101
3813.37859,0.00059
3811.31842,0.00029
3809.25824,0.00024
3807.19807,0.00048
3805.13790,0.00100
3803.07773,0.00123
3801.01756,0.00101
3798.95738,0.00106
3796.89721,0.00154
3794.83704,0.00201
3792.77687,0.00208
3790.71670,0.00175
3788.65652,0.00156
3786.59635,0.00173
3784.53618,0.00173
3782.47601,0.00135
3780.41583,0.00093
3778.35566,0.00079
3776.29549,0.00092
3774.23532,0.00135
3772.17515,0.00204
3770.11497,0.00234
3768.05480,0.00190
3765.99463,0.00128
3763.93446,0.00100
3761.87429,0.00109
3759.81411,0.00114
3757.75394,0.00095
3755.69377,0.00091
3753.63360,0.00156
3751.57342,0.00274
3749.51325,0.00299
3747.45308,0.00234
3745.39291,0.00206
3743.33274,0.00161
3741.27256,0.00088
3739.21239,0.00099
3737.15222,0.00199
3735.09205,0.00279
3733.03188,0.00254
3730.97170,0.00175
3728.91153,0.00102
3726.85136,0.00029
3724.79119,0.00000
3722.73102,0.00051
3720.67084,0.00114
3718.61067,0.00140
3716.55050,0.00148
3714.49033,0.00173
3712.43015,0.00214
3710.36998,0.00196
3708.30981,0.00121
3706.24964,0.00077
3704.18947,0.00085
3702.12929,0.00107
3700.06912,0.00125
3698.00895,0.00134
3695.94878,0.00122
3693.88861,0.00111
3691.82843,0.00138
3689.76826,0.00163
3687.70809,0.00135
3685.64792,0.00104
3683.58775,0.00118
3681.52757,0.00166
3679.46740,0.00231
3677.40723,0.00299
3675.34706,0.00338
3673.28688,0.00305
3671.22671,0.00182
3669.16654,0.00037
3667.10637,0.00001
3665.04620,0.00076
3662.98602,0.00159
3660.92585,0.00175
3658.86568,0.00142
3656.80551,0.00129
3654.74534,0.00147
3652.68516,0.00165
3650.62499,0.00180
3648.56482,0.00209
3646.50465,0.00256
3644.44447,0.00285
3642.38430,0.00283
3640.32413,0.00290
3638.26396,0.00315
3636.20379,0.00326
3634.14361,0.00311
3632.08344,0.00275
3630.02327,0.00231
3627.96310,0.00217
3625.90293,0.00261
3623.84275,0.00327
3621.78258,0.00362
3619.72241,0.00359
3617.66224,0.00363
3615.60207,0.00410
3613.54189,0.00470
3611.48172,0.00491
3609.42155,0.00457
3607.36138,0.00418
3605.30120,0.00426
3603.24103,0.00421
3601.18086,0.00356
3599.12069,0.00311
3597.06052,0.00355
3595.00034,0.00449
3592.94017,0.00541
3590.88000,0.00589
3588.81983,0.00560
3586.75966,0.00524
3584.69948,0.00578
3582.63931,0.00663
3580.57914,0.00698
3578.51897,0.00710
3576.45879,0.00725
3574.39862,0.00700
3572.33845,0.00659
3570.27828,0.00671
3568.21811,0.00722
3566.15793,0.00756
3564.09776,0.00763
3562.03759,0.00756
3559.97742,0.00751
3557.91725,0.00759
3555.85707,0.00777
3553.79690,0.00792
3551.73673,0.00807
3549.67656,0.00824
3547.61639,0.00813
3545.55621,0.00784
3543.49604,0.00816
3541.43587,0.00908
3539.37570,0.00978
3537.31552,0.00989
3535.25535,0.00975
3533.19518,0.00954
3531.13501,0.00936
3529.07484,0.00933
3527.01466,0.00934
3524.95449,0.00932
3522.89432,0.00950
3520.83415,0.01006
3518.77398,0.01068
3516.71380,0.01084
3514.65363,0.01076
3512.59346,0.01093
3510.53329,0.01118
3508.47312,0.01120
3506.41294,0.01102
3504.35277,0.01081
3502.29260,0.01078
3500.23243,0.01091
3498.17225,0.01103
3496.11208,0.01114
3494.05191,0.01135
3491.99174,0.01168
3489.93157,0.01202
3487.87139,0.01246
3485.81122,0.01301
3483.75105,0.01327
3481.69088,0.01315
3479.63071,0.01293
3477.57053,0.01272
3475.51036,0.01253
3473.45019,0.01258
3471.39002,0.01265
3469.32984,0.01239
3467.26967,0.01223
3465.20950,0.01265
3463.14933,0.01348
3461.08916,0.01421
3459.02898,0.01417
3456.96881,0.01348
3454.90864,0.01308
3452.84847,0.01334
3450.78830,0.01405
3448.72812,0.01472
3446.66795,0.01480
3444.60778,0.01471
3442.54761,0.01500
3440.48744,0.01523
3438.42726,0.01500
3436.36709,0.01463
3434.30692,0.01471
3432.24675,0.01505
3430.18657,0.01483
3428.12640,0.01423
3426.06623,0.01408
3424.00606,0.01432
3421.94589,0.01467
3419.88571,0.01515
3417.82554,0.01567
3415.76537,0.01592
3413.70520,0.01588
3411.64503,0.01580
3409.58485,0.01608
3407.52468,0.01679
3405.46451,0.01720
3403.40434,0.01682
3401.34416,0.01617
3399.28399,0.01586
3397.22382,0.01574
3395.16365,0.01573
3393.10348,0.01611
3391.04330,0.01632
3388.98313,0.01618
3386.92296,0.01630
3384.86279,0.01663
3382.80262,0.01674
3380.74244,0.01669
3378.68227,0.01642
3376.62210,0.01603
3374.56193,0.01595
3372.50176,0.01615
3370.44158,0.01639
3368.38141,0.01659
3366.32124,0.01688
3364.26107,0.01725
3362.20089,0.01733
3360.14072,0.01701
3358.08055,0.01667
3356.02038,0.01673
3353.96021,0.01708
3351.90003,0.01716
3349.83986,0.01689
3347.77969,0.01676
3345.71952,0.01692
3343.65935,0.01715
3341.59917,0.01732
3339.53900,0.01734
3337.47883,0.01711
3335.41866,0.01691
3333.35849,0.01705
3331.29831,0.01731
3329.23814,0.01753
3327.17797,0.01755
3325.11780,0.01742
3323.05762,0.01756
3320.99745,0.01769
3318.93728,0.01753
3316.87711,0.01737
3314.81694,0.01734
3312.75676,0.01738
3310.69659,0.01739
3308.63642,0.01728
3306.57625,0.01722
3304.51608,0.01747
3302.45590,0.01787
3300.39573,0.01797
3298.33556,0.01773
3296.27539,0.01748
3294.21521,0.01742
3292.15504,0.01756
3290.09487,0.01769
3288.03470,0.01768
3285.97453,0.01759
3283.91435,0.01759
3281.85418,0.01771
3279.79401,0.01788
3277.73384,0.01811
3275.67367,0.01823
3273.61349,0.01801
3271.55332,0.01761
3269.49315,0.01738
3267.43298,0.01744
3265.37281,0.01773
3263.31263,0.01793
3261.25246,0.01790
3259.19229,0.01780
3257.13212,0.01781
3255.07194,0.01786
3253.01177,0.01783
3250.95160,0.01777
3248.89143,0.01776
3246.83126,0.01789
3244.77108,0.01791
3242.71091,0.01777
3240.65074,0.01760
3238.59057,0.01755
3236.53040,0.01784
3234.47022,0.01823
3232.41005,0.01803
3230.34988,0.01741
3228.28971,0.01716
3226.22954,0.01727
3224.16936,0.01717
3222.10919,0.01709
3220.04902,0.01743
3217.98885,0.01761
3215.92867,0.01738
3213.86850,0.01727
3211.80833,0.01743
3209.74816,0.01772
3207.68799,0.01775
3205.62781,0.01762
3203.56764,0.01765
3201.50747,0.01744
3199.44730,0.01703
3197.38713,0.01697
3195.32695,0.01720
3193.26678,0.01721
3191.20661,0.01691
3189.14644,0.01664
3187.08626,0.01664
3185.02609,0.01684
3182.96592,0.01716
3180.90575,0.01748
3178.84558,0.01751
3176.78540,0.01713
3174.72523,0.01689
3172.66506,0.01710
3170.60489,0.01733
3168.54472,0.01722
3166.48454,0.01681
3164.42437,0.01645
3162.36420,0.01646
3160.30403,0.01676
3158.24386,0.01694
3156.18368,0.01691
3154.12351,0.01702
3152.06334,0.01732
3150.00317,0.01722
3147.94299,0.01659
3145.88282,0.01604
3143.82265,0.01599
3141.76248,0.01614
3139.70231,0.01627
3137.64213,0.01650
3135.58196,0.01660
3133.52179,0.01663
3131.46162,0.01650
3129.40145,0.01575
3127.34127,0.01498
3125.28110,0.01489
3123.22093,0.01515
3121.16076,0.01543
3119.10058,0.01582
3117.04041,0.01590
3114.98024,0.01538
3112.92007,0.01486
3110.85990,0.01480
3108.79972,0.01501
3106.73955,0.01507
3104.67938,0.01496
3102.61921,0.01491
3100.55904,0.01492
3098.49886,0.01496
3096.43869,0.01507
3094.37852,0.01511
3092.31835,0.01495
3090.25818,0.01469
3088.19800,0.01454
3086.13783,0.01491
3084.07766,0.01545
3082.01749,0.01547
3079.95731,0.01516
3077.89714,0.01493
3075.83697,0.01470
3073.77680,0.01452
3071.71663,0.01451
3069.65645,0.01454
3067.59628,0.01431
3065.53611,0.01393
3063.47594,0.01389
3061.41577,0.01393
3059.35559,0.01372
3057.29542,0.01362
3055.23525,0.01368
3053.17508,0.01359
3051.11491,0.01361
3049.05473,0.01383
3046.99456,0.01401
3044.93439,0.01410
3042.87422,0.01390
3040.81404,0.01346
3038.75387,0.01314
3036.69370,0.01295
3034.63353,0.01271
3032.57336,0.01281
3030.51318,0.01330
3028.45301,0.01350
3026.39284,0.01343
3024.33267,0.01343
3022.27250,0.01335
3020.21232,0.01303
3018.15215,0.01256
3016.09198,0.01223
3014.03181,0.01226
3011.97163,0.01233
3009.91146,0.01230
3007.85129,0.01239
3005.79112,0.01248
3003.73095,0.01248
3001.67077,0.01239
2999.61060,0.01236
2997.55043,0.01250
2995.49026,0.01244
2993.43009,0.01234
2991.36991,0.01257
2989.30974,0.01266
2987.24957,0.01254
2985.18940,0.01240
2983.12923,0.01196
2981.06905,0.01140
2979.00888,0.01126
2976.94871,0.01152
2974.88854,0.01174
2972.82836,0.01171
2970.76819,0.01162
2968.70802,0.01181
2966.64785,0.01213
2964.58768,0.01216
2962.52750,0.01216
2960.46733,0.01234
2958.40716,0.01234
2956.34699,0.01212
2954.28682,0.01206
2952.22664,0.01216
2950.16647,0.01213
2948.10630,0.01190
2946.04613,0.01179
2943.98596,0.01190
2941.92578,0.01207
2939.86561,0.01222
2937.80544,0.01219
2935.74527,0.01197
2933.68509,0.01182
2931.62492,0.01168
2929.56475,0.01155
2927.50458,0.01154
2925.44441,0.01158
2923.38423,0.01143
2921.32406,0.01122
2919.26389,0.01130
2917.20372,0.01133
2915.14355,0.01113
2913.08337,0.01102
2911.02320,0.01107
2908.96303,0.01110
2906.90286,0.01112
2904.84268,0.01130
2902.78251,0.01147
2900.72234,0.01146
2898.66217,0.01147
2896.60200,0.01155
2894.54182,0.01143
2892.48165,0.01111
2890.42148,0.01088
2888.36131,0.01074
2886.30114,0.01070
2884.24096,0.01082
2882.18079,0.01081
2880.12062,0.01048
2878.06045,0.01018
2876.00028,0.01004
2873.94010,0.00999
2871.87993,0.01034
2869.81976,0.01087
2867.75959,0.01074
2865.69941,0.01013
2863.63924,0.00987
2861.57907,0.00996
2859.51890,0.01006
2857.45873,0.01005
2855.39855,0.01000
2853.33838,0.01000
2851.27821,0.00999
2849.21804,0.00991
2847.15787,0.00986
2845.09769,0.00983
2843.03752,0.00989
2840.97735,0.01007
2838.91718,0.00994
2836.85700,0.00960
2834.79683,0.00965
2832.73666,0.00982
2830.67649,0.00969
2828.61632,0.00945
2826.55614,0.00924
2824.49597,0.00890
2822.43580,0.00871
2820.37563,0.00880
2818.31546,0.00886
2816.25528,0.00895
2814.19511,0.00909
2812.13494,0.00891
2810.07477,0.00861
2808.01460,0.00870
2805.95442,0.00893
2803.89425,0.00883
2801.83408,0.00867
2799.77391,0.00858
2797.71373,0.00835
2795.65356,0.00814
2793.59339,0.00817
2791.53322,0.00826
2789.47305,0.00824
2787.41287,0.00827
2785.35270,0.00829
2783.29253,0.00807
2781.23236,0.00783
2779.17219,0.00779
2777.11201,0.00802
2775.05184,0.00838
2772.99167,0.00847
2770.93150,0.00816
2768.87133,0.00780
2766.81115,0.00763
2764.75098,0.00755
2762.69081,0.00758
2760.63064,0.00763
2758.57046,0.00736
2756.51029,0.00703
2754.45012,0.00719
2752.38995,0.00761
2750.32978,0.00791
2748.26960,0.00792
2746.20943,0.00776
2744.14926,0.00776
2742.08909,0.00780
2740.02892,0.00763
2737.96874,0.00730
2735.90857,0.00706
2733.84840,0.00712
2731.78823,0.00724
2729.72805,0.00725
2727.66788,0.00729
2725.60771,0.00722
2723.54754,0.00694
2721.48737,0.00698
2719.42719,0.00729
2717.36702,0.00728
2715.30685,0.00707
2713.24668,0.00695
2711.18651,0.00681
2709.12633,0.00666
2707.06616,0.00678
2705.00599,0.00712
2702.94582,0.00715
2700.88565,0.00676
2698.82547,0.00643
2696.76530,0.00638
2694.70513,0.00658
2692.64496,0.00676
2690.58478,0.00669
2688.52461,0.00652
2686.46444,0.00642
2684.40427,0.00640
2682.34410,0.00664
2680.28392,0.00690
2678.22375,0.00679
2676.16358,0.00648
2674.10341,0.00642
2672.04324,0.00655
2669.98306,0.00651
2667.92289,0.00636
2665.86272,0.00644
2663.80255,0.00669
2661.74238,0.00674
2659.68220,0.00658
2657.62203,0.00664
2655.56186,0.00679
2653.50169,0.00663
2651.44151,0.00638
2649.38134,0.00654
2647.32117,0.00687
2645.26100,0.00695
2643.20083,0.00675
2641.14065,0.00663
2639.08048,0.00665
2637.02031,0.00641
2634.96014,0.00611
2632.89997,0.00618
2630.83979,0.00644
2628.77962,0.00665
2626.71945,0.00670
2624.65928,0.00660
2622.59910,0.00664
2620.53893,0.00665
2618.47876,0.00628
2616.41859,0.00595
2614.35842,0.00590
2612.29824,0.00592
2610.23807,0.00585
2608.17790,0.00595
2606.11773,0.00633
2604.05756,0.00634
2601.99738,0.00580
2599.93721,0.00518
2597.87704,0.00491
2595.81687,0.00528
2593.75670,0.00594
2591.69652,0.00625
2589.63635,0.00617
2587.57618,0.00611
2585.51601,0.00609
2583.45583,0.00592
2581.39566,0.00569
2579.33549,0.00549
2577.27532,0.00530
2575.21515,0.00532
2573.15497,0.00562
2571.09480,0.00562
2569.03463,0.00526
2566.97446,0.00526
2564.91429,0.00554
2562.85411,0.00569
2560.79394,0.00587
2558.73377,0.00619
2556.67360,0.00624
2554.61342,0.00582
2552.55325,0.00558
2550.49308,0.00572
2548.43291,0.00584
2546.37274,0.00604
2544.31256,0.00614
2542.25239,0.00587
2540.19222,0.00560
2538.13205,0.00570
2536.07188,0.00606
2534.01170,0.00602
2531.95153,0.00562
2529.89136,0.00544
2527.83119,0.00561
2525.77102,0.00592
2523.71084,0.00606
2521.65067,0.00592
2519.59050,0.00574
2517.53033,0.00546
2515.47015,0.00498
2513.40998,0.00484
2511.34981,0.00531
2509.28964,0.00573
2507.22947,0.00547
2505.16929,0.00522
2503.10912,0.00572
2501.04895,0.00652
2498.98878,0.00666
2496.92861,0.00619
2494.86843,0.00589
2492.80826,0.00594
2490.74809,0.00612
2488.68792,0.00620
2486.62775,0.00611
2484.56757,0.00595
2482.50740,0.00584
2480.44723,0.00568
2478.38706,0.00543
2476.32688,0.00554
2474.26671,0.00581
2472.20654,0.00579
2470.14637,0.00602
2468.08620,0.00651
2466.02602,0.00633
2463.96585,0.00584
2461.90568,0.00599
2459.84551,0.00640
2457.78534,0.00659
2455.72516,0.00653
2453.66499,0.00620
2451.60482,0.00607
2449.54465,0.00614
2447.48447,0.00590
2445.42430,0.00574
2443.36413,0.00604
2441.30396,0.00623
2439.24379,0.00603
2437.18361,0.00593
2435.12344,0.00606
2433.06327,0.00589
2431.00310,0.00540
2428.94293,0.00499
2426.88275,0.00477
2424.82258,0.00487
2422.76241,0.00531
2420.70224,0.00564
2418.64207,0.00556
2416.58189,0.00537
2414.52172,0.00548
2412.46155,0.00588
2410.40138,0.00617
2408.34120,0.00605
2406.28103,0.00576
2404.22086,0.00573
2402.16069,0.00594
2400.10052,0.00601
2398.04034,0.00590
2395.98017,0.00598
2393.92000,0.00623
2391.85983,0.00623
2389.79966,0.00598
2387.73948,0.00577
2385.67931,0.00557
2383.61914,0.00522
2381.55897,0.00513
2379.49880,0.00557
2377.43862,0.00581
2375.37845,0.00560
2373.31828,0.00588
2371.25811,0.00683
2369.19793,0.00780
2367.13776,0.00869
2365.07759,0.00866
2363.01742,0.00739
2360.95725,0.00683
2358.89707,0.00776
2356.83690,0.00826
2354.77673,0.00717
2352.71656,0.00601
2350.65639,0.00617
2348.59621,0.00711
2346.53604,0.00801
2344.47587,0.00860
2342.41570,0.00880
2340.35552,0.00870
2338.29535,0.00846
2336.23518,0.00848
2334.17501,0.00907
2332.11484,0.00950
2330.05466,0.00898
2327.99449,0.00780
2325.93432,0.00661
2323.87415,0.00599
2321.81398,0.00619
2319.75380,0.00626
2317.69363,0.00573
2315.63346,0.00561
2313.57329,0.00597
2311.51312,0.00580
2309.45294,0.00529
2307.39277,0.00531
2305.33260,0.00555
2303.27243,0.00537
2301.21225,0.00511
2299.15208,0.00522
2297.09191,0.00561
2295.03174,0.00613
2292.97157,0.00675
2290.91139,0.00730
2288.85122,0.00769
2286.79105,0.00783
2284.73088,0.00758
2282.67071,0.00691
2280.61053,0.00624
2278.55036,0.00580
2276.49019,0.00548
2274.43002,0.00540
2272.36984,0.00575
2270.30967,0.00607
2268.24950,0.00590
2266.18933,0.00562
2264.12916,0.00550
2262.06898,0.00543
2260.00881,0.00545
2257.94864,0.00557
2255.88847,0.00609
2253.82830,0.00693
2251.76812,0.00712
2249.70795,0.00619
2247.64778,0.00508
2245.58761,0.00476
2243.52744,0.00503
2241.46726,0.00550
2239.40709,0.00584
2237.34692,0.00577
2235.28675,0.00580
2233.22657,0.00662
2231.16640,0.00727
2229.10623,0.00663
2227.04606,0.00543
2224.98589,0.00478
2222.92571,0.00479
2220.86554,0.00524
2218.80537,0.00608
2216.74520,0.00630
2214.68503,0.00584
2212.62485,0.00574
2210.56468,0.00511
2208.50451,0.00461
2206.44434,0.00573
2204.38417,0.00617
2202.32399,0.00508
2200.26382,0.00398
2198.20365,0.00310
2196.14348,0.00339
2194.08330,0.00520
2192.02313,0.00589
2189.96296,0.00480
2187.90279,0.00410
2185.84262,0.00411
2183.78244,0.00425
2181.72227,0.00347
2179.66210,0.00189
2177.60193,0.00217
2175.54176,0.00378
2173.48158,0.00488
2171.42141,0.00626
2169.36124,0.00719
2167.30107,0.00590
2165.24089,0.00432
2163.18072,0.00478
2161.12055,0.00528
2159.06038,0.00402
2157.00021,0.00290
2154.94003,0.00199
2152.87986,0.00114
2150.81969,0.00244
2148.75952,0.00472
2146.69935,0.00547
2144.63917,0.00461
2142.57900,0.00319
2140.51883,0.00250
2138.45866,0.00295
2136.39849,0.00364
2134.33831,0.00345
2132.27814,0.00285
2130.21797,0.00304
2128.15780,0.00332
2126.09762,0.00284
2124.03745,0.00271
2121.97728,0.00320
2119.91711,0.00315
2117.85694,0.00299
2115.79676,0.00338
2113.73659,0.00339
2111.67642,0.00292
2109.61625,0.00284
2107.55608,0.00350
2105.49590,0.00469
2103.43573,0.00556
2101.37556,0.00538
2099.31539,0.00474
2097.25521,0.00427
2095.19504,0.00384
2093.13487,0.00363
2091.07470,0.00388
2089.01453,0.00418
2086.95435,0.00447
2084.89418,0.00487
2082.83401,0.00526
2080.77384,0.00567
2078.71367,0.00590
2076.65349,0.00556
2074.59332,0.00465
2072.53315,0.00356
2070.47298,0.00276
2068.41281,0.00317
2066.35263,0.00437
2064.29246,0.00453
2062.23229,0.00418
2060.17212,0.00469
2058.11194,0.00478
2056.05177,0.00335
2053.99160,0.00192
2051.93143,0.00206
2049.87126,0.00324
2047.81108,0.00425
2045.75091,0.00457
2043.69074,0.00418
2041.63057,0.00377
2039.57040,0.00374
2037.51022,0.00423
2035.45005,0.00596
2033.38988,0.00738
2031.32971,0.00667
2029.26954,0.00553
2027.20936,0.00516
2025.14919,0.00460
2023.08902,0.00336
2021.02885,0.00164
2018.96867,0.00053
2016.90850,0.00186
2014.84833,0.00540
2012.78816,0.00817
2010.72799,0.00740
2008.66781,0.00459
2006.60764,0.00312
2004.54747,0.00311
2002.48730,0.00301
2000.42713,0.00189
1998.36695,0.00047
1996.30678,0.00000
1994.24661,0.00050
1992.18644,0.00137
1990.12626,0.00144
1988.06609,0.00094
1986.00592,0.00216
1983.94575,0.00470
1981.88558,0.00647
1979.82540,0.00686
1977.76523,0.00585
1975.70506,0.00444
1973.64489,0.00367
1971.58472,0.00288
1969.52454,0.00187
1967.46437,0.00205
1965.40420,0.00328
1963.34403,0.00357
1961.28386,0.00286
1959.22368,0.00245
1957.16351,0.00259
1955.10334,0.00257
1953.04317,0.00226
1950.98299,0.00198
1948.92282,0.00165
1946.86265,0.00155
1944.80248,0.00244
1942.74231,0.00381
1940.68213,0.00410
1938.62196,0.00332
1936.56179,0.00269
1934.50162,0.00288
1932.44145,0.00317
1930.38127,0.00288
1928.32110,0.00255
1926.26093,0.00253
1924.20076,0.00300
1922.14059,0.00353
1920.08041,0.00346
1918.02024,0.00354
1915.96007,0.00416
1913.89990,0.00473
1911.83972,0.00491
1909.77955,0.00445
1907.71938,0.00369
1905.65921,0.00332
1903.59904,0.00319
1901.53886,0.00309
1899.47869,0.00356
1897.41852,0.00465
1895.35835,0.00527
1893.29818,0.00487
1891.23800,0.00415
1889.17783,0.00368
1887.11766,0.00341
1885.05749,0.00329
1882.99731,0.00330
1880.93714,0.00328
1878.87697,0.00337
1876.81680,0.00343
1874.75663,0.00299
1872.69645,0.00246
1870.63628,0.00263
1868.57611,0.00337
1866.51594,0.00393
1864.45577,0.00405
1862.39559,0.00412
1860.33542,0.00425
1858.27525,0.00421
1856.21508,0.00423
1854.15491,0.00443
1852.09473,0.00444
1850.03456,0.00431
1847.97439,0.00430
1845.91422,0.00423
1843.85404,0.00396
1841.79387,0.00367
1839.73370,0.00346
1837.67353,0.00345
1835.61336,0.00355
1833.55318,0.00358
1831.49301,0.00370
1829.43284,0.00397
1827.37267,0.00417
1825.31250,0.00425
1823.25232,0.00418
1821.19215,0.00404
1819.13198,0.00393
1817.07181,0.00376
1815.01163,0.00349
1812.95146,0.00324
1810.89129,0.00327
1808.83112,0.00366
1806.77095,0.00405
1804.71077,0.00416
1802.65060,0.00405
1800.59043,0.00402
1798.53026,0.00419
1796.47009,0.00423
1794.40991,0.00402
1792.34974,0.00384
1790.28957,0.00377
1788.22940,0.00375
1786.16923,0.00379
1784.10905,0.00401
1782.04888,0.00426
1779.98871,0.00424
1777.92854,0.00402
1775.86836,0.00398
1773.80819,0.00415
1771.74802,0.00433
1769.68785,0.00445
1767.62768,0.00455
1765.56750,0.00449
1763.50733,0.00421
1761.44716,0.00409
1759.38699,0.00435
1757.32682,0.00460
1755.26664,0.00467
1753.20647,0.00470
1751.14630,0.00481
1749.08613,0.00508
1747.02596,0.00533
1744.96578,0.00539
1742.90561,0.00543
1740.84544,0.00542
1738.78527,0.00528
1736.72509,0.00519
1734.66492,0.00521
1732.60475,0.00533
1730.54458,0.00557
1728.48441,0.00573
1726.42423,0.00571
1724.36406,0.00573
1722.30389,0.00595
1720.24372,0.00621
1718.18355,0.00608
1716.12337,0.00562
1714.06320,0.00552
1712.00303,0.00575
1709.94286,0.00606
1707.88268,0.00635
1705.82251,0.00647
1703.76234,0.00655
1701.70217,0.00675
1699.64200,0.00679
1697.58182,0.00657
1695.52165,0.00669
1693.46148,0.00719
1691.40131,0.00752
1689.34114,0.00770
1687.28096,0.00798
1685.22079,0.00819
1683.16062,0.00824
1681.10045,0.00852
1679.04028,0.00898
1676.98010,0.00926
1674.91993,0.00944
1672.85976,0.00975
1670.79959,0.01019
1668.73941,0.01072
1666.67924,0.01130
1664.61907,0.01176
1662.55890,0.01183
1660.49873,0.01153
1658.43855,0.01120
1656.37838,0.01102
1654.31821,0.01110
1652.25804,0.01137
1650.19787,0.01136
1648.13769,0.01120
1646.07752,0.01131
1644.01735,0.01144
1641.95718,0.01126
1639.89701,0.01087
1637.83683,0.01052
1635.77666,0.01030
1633.71649,0.01020
1631.65632,0.01024
1629.59614,0.01041
1627.53597,0.01054
1625.47580,0.01040
1623.41563,0.01000
1621.35546,0.00963
1619.29528,0.00958
1617.23511,0.00969
1615.17494,0.00975
1613.11477,0.00971
1611.05460,0.00946
1608.99442,0.00902
1606.93425,0.00873
1604.87408,0.00867
1602.81391,0.00865
1600.75373,0.00856
1598.69356,0.00846
1596.63339,0.00836
1594.57322,0.00817
1592.51305,0.00796
1590.45287,0.00785
1588.39270,0.00783
1586.33253,0.00774
1584.27236,0.00754
1582.21219,0.00725
1580.15201,0.00696
1578.09184,0.00680
1576.03167,0.00681
1573.97150,0.00690
1571.91133,0.00700
1569.85115,0.00711
1567.79098,0.00721
1565.73081,0.00734
1563.67064,0.00742
1561.61046,0.00734
1559.55029,0.00685
1557.49012,0.00618
1555.42995,0.00601
1553.36978,0.00610
1551.30960,0.00606
1549.24943,0.00591
1547.18926,0.00577
1545.12909,0.00564
1543.06892,0.00554
1541.00874,0.00558
1538.94857,0.00589
1536.88840,0.00617
1534.82823,0.00611
1532.76805,0.00577
1530.70788,0.00549
1528.64771,0.00544
1526.58754,0.00548
1524.52737,0.00553
1522.46719,0.00540
1520.40702,0.00492
1518.34685,0.00446
1516.28668,0.00439
1514.22651,0.00441
1512.16633,0.00428
1510.10616,0.00426
1508.04599,0.00450
1505.98582,0.00479
1503.92565,0.00484
1501.86547,0.00474
1499.80530,0.00466
1497.74513,0.00461
1495.68496,0.00448
1493.62478,0.00424
1491.56461,0.00402
1489.50444,0.00395
1487.44427,0.00411
1485.38410,0.00436
1483.32392,0.00461
1481.26375,0.00473
1479.20358,0.00461
1477.14341,0.00443
1475.08324,0.00439
1473.02306,0.00442
1470.96289,0.00445
1468.90272,0.00444
1466.84255,0.00446
1464.78238,0.00456
1462.72220,0.00457
1460.66203,0.00437
1458.60186,0.00411
1456.54169,0.00400
1454.48151,0.00410
1452.42134,0.00435
1450.36117,0.00477
1448.30100,0.00524
1446.24083,0.00541
1444.18065,0.00522
1442.12048,0.00502
1440.06031,0.00499
1438.00014,0.00505
1435.93997,0.00512
1433.87979,0.00523
1431.81962,0.00539
1429.75945,0.00558
1427.69928,0.00566
1425.63910,0.00557
1423.57893,0.00554
1421.51876,0.00560
1419.45859,0.00555
1417.39842,0.00541
1415.33824,0.00537
1413.27807,0.00537
1411.21790,0.00538
1409.15773,0.00544
1407.09756,0.00548
1405.03738,0.00538
1402.97721,0.00527
1400.91704,0.00530
1398.85687,0.00534
1396.79670,0.00531
1394.73652,0.00530
1392.67635,0.00536
1390.61618,0.00539
1388.55601,0.00533
1386.49583,0.00526
1384.43566,0.00528
1382.37549,0.00536
1380.31532,0.00537
1378.25515,0.00530
1376.19497,0.00529
1374.13480,0.00550
1372.07463,0.00575
1370.01446,0.00575
1367.95429,0.00555
1365.89411,0.00538
1363.83394,0.00523
1361.77377,0.00506
1359.71360,0.00508
1357.65343,0.00524
1355.59325,0.00528
1353.53308,0.00521
1351.47291,0.00515
1349.41274,0.00507
1347.35256,0.00491
1345.29239,0.00476
1343.23222,0.00467
1341.17205,0.00464
1339.11188,0.00464
1337.05170,0.00466
1334.99153,0.00465
1332.93136,0.00455
1330.87119,0.00436
1328.81102,0.00423
1326.75084,0.00438
1324.69067,0.00474
1322.63050,0.00504
1320.57033,0.00522
1318.51015,0.00527
1316.44998,0.00522
1314.38981,0.00513
1312.32964,0.00498
1310.26947,0.00484
1308.20929,0.00487
1306.14912,0.00502
1304.08895,0.00498
1302.02878,0.00470
1299.96861,0.00441
1297.90843,0.00436
1295.84826,0.00454
1293.78809,0.00479
1291.72792,0.00510
1289.66775,0.00530
1287.60757,0.00534
1285.54740,0.00531
1283.48723,0.00518
1281.42706,0.00508
1279.36688,0.00518
1277.30671,0.00534
1275.24654,0.00531
1273.18637,0.00515
1271.12620,0.00506
1269.06602,0.00513
1267.00585,0.00525
1264.94568,0.00523
1262.88551,0.00522
1260.82534,0.00518
1258.76516,0.00500
1256.70499,0.00499
1254.64482,0.00517
1252.58465,0.00516
1250.52447,0.00504
1248.46430,0.00509
1246.40413,0.00524
1244.34396,0.00523
1242.28379,0.00497
1240.22361,0.00472
1238.16344,0.00465
1236.10327,0.00455
1234.04310,0.00438
1231.98293,0.00439
1229.92275,0.00445
1227.86258,0.00430
1225.80241,0.00418
1223.74224,0.00433
1221.68207,0.00450
1219.62189,0.00447
1217.56172,0.00421
1215.50155,0.00381
1213.44138,0.00350
1211.38120,0.00336
1209.32103,0.00332
1207.26086,0.00338
1205.20069,0.00362
1203.14052,0.00388
1201.08034,0.00396
1199.02017,0.00390
1196.96000,0.00385
1194.89983,0.00391
1192.83966,0.00404
1190.77948,0.00411
1188.71931,0.00403
1186.65914,0.00391
1184.59897,0.00413
1182.53880,0.00457
1180.47862,0.00487
1178.41845,0.00515
1176.35828,0.00567
1174.29811,0.00624
1172.23793,0.00662
1170.17776,0.00668
1168.11759,0.00673
1166.05742,0.00725
1163.99725,0.00801
1161.93707,0.00853
1159.87690,0.00866
1157.81673,0.00876
1155.75656,0.00917
1153.69639,0.00975
1151.63621,0.01022
1149.57604,0.01062
1147.51587,0.01104
1145.45570,0.01151
1143.39552,0.01204
1141.33535,0.01249
1139.27518,0.01272
1137.21501,0.01297
1135.15484,0.01353
1133.09466,0.01430
1131.03449,0.01503
1128.97432,0.01556
1126.91415,0.01603
1124.85398,0.01651
1122.79380,0.01704
1120.73363,0.01780
1118.67346,0.01856
1116.61329,0.01899
1114.55312,0.01930
1112.49294,0.01968
1110.43277,0.02021
1108.37260,0.02089
1106.31243,0.02149
1104.25225,0.02200
1102.19208,0.02265
1100.13191,0.02328
1098.07174,0.02368
1096.01157,0.02404
1093.95139,0.02442
1091.89122,0.02450
1089.83105,0.02444
1087.77088,0.02481
1085.71071,0.02550
1083.65053,0.02602
1081.59036,0.02636
1079.53019,0.02666
1077.47002,0.02676
1075.40985,0.02676
1073.34967,0.02682
1071.28950,0.02686
1069.22933,0.02683
1067.16916,0.02679
1065.10898,0.02664
1063.04881,0.02646
1060.98864,0.02638
1058.92847,0.02620
1056.86830,0.02582
1054.80812,0.02540
1052.74795,0.02492
1050.68778,0.02398
1048.62761,0.02273
1046.56744,0.02187
1044.50726,0.02141
1042.44709,0.02089
1040.38692,0.02024
1038.32675,0.01941
1036.26657,0.01848
1034.20640,0.01761
1032.14623,0.01686
1030.08606,0.01621
1028.02589,0.01565
1025.96571,0.01520
1023.90554,0.01496
1021.84537,0.01462
1019.78520,0.01400
1017.72503,0.01357
1015.66485,0.01339
1013.60468,0.01319
1011.54451,0.01299
1009.48434,0.01289
1007.42417,0.01298
1005.36399,0.01360
1003.30382,0.01480
1001.24365,0.01589
999.18348,0.01614
997.12330,0.01588
995.06313,0.01588
993.00296,0.01639
990.94279,0.01704
988.88262,0.01740
986.82244,0.01745
984.76227,0.01752
982.70210,0.01766
980.64193,0.01779
978.58176,0.01812
976.52158,0.01831
974.46141,0.01763
972.40124,0.01678
970.34107,0.01659
968.28089,0.01636
966.22072,0.01559
964.16055,0.01499
962.10038,0.01477
960.04021,0.01440
957.98003,0.01400
955.91986,0.01372
953.85969,0.01346
951.79952,0.01315
949.73935,0.01265
947.67917,0.01213
945.61900,0.01149
943.55883,0.01067
941.49866,0.01015
939.43849,0.00989
937.37831,0.00937
935.31814,0.00875
933.25797,0.00857
931.19780,0.00869
929.13762,0.00864
927.07745,0.00840
925.01728,0.00814
922.95711,0.00804
920.89694,0.00816
918.83676,0.00830
916.77659,0.00802
914.71642,0.00732
912.65625,0.00679
910.59608,0.00696
908.53590,0.00748
906.47573,0.00745
904.41556,0.00726
902.35539,0.00737
900.29522,0.00702
898.23504,0.00648
896.17487,0.00672
894.11470,0.00756
892.05453,0.00799
889.99435,0.00776
887.93418,0.00763
885.87401,0.00792
883.81384,0.00832
881.75367,0.00871
879.69349,0.00926
877.63332,0.01006
875.57315,0.01086
873.51298,0.01138
871.45281,0.01172
869.39263,0.01188
867.33246,0.01188
865.27229,0.01214
863.21212,0.01249
861.15194,0.01253
859.09177,0.01228
857.03160,0.01175
854.97143,0.01128
852.91126,0.01123
850.85108,0.01140
848.79091,0.01141
846.73074,0.01138
844.67057,0.01146
842.61040,0.01140
840.55022,0.01108
838.49005,0.01062
836.42988,0.01000
834.36971,0.00927
832.30954,0.00907
830.24936,0.00923
828.18919,0.00895
826.12902,0.00879
824.06885,0.00907
822.00867,0.00889
819.94850,0.00857
817.88833,0.00902
815.82816,0.00935
813.76799,0.00869
811.70781,0.00790
809.64764,0.00727
807.58747,0.00646
805.52730,0.00633
803.46713,0.00684
801.40695,0.00665
799.34678,0.00599
797.28661,0.00577
795.22644,0.00604
793.16627,0.00624
791.10609,0.00576
789.04592,0.00533
786.98575,0.00590
784.92558,0.00657
782.86540,0.00663
780.80523,0.00616
778.74506,0.00513
776.68489,0.00426
774.62472,0.00402
772.56454,0.00418
770.50437,0.00461
768.44420,0.00488
766.38403,0.00491
764.32386,0.00508
762.26368,0.00530
760.20351,0.00562
758.14334,0.00570
756.08317,0.00509
754.02299,0.00451
751.96282,0.00442
749.90265,0.00472
747.84248,0.00525
745.78231,0.00517
743.72213,0.00425
741.66196,0.00355
739.60179,0.00366
737.54162,0.00394
735.48145,0.00379
733.42127,0.00377
731.36110,0.00460
729.30093,0.00569
727.24076,0.00638
725.18059,0.00685
723.12041,0.00733
721.06024,0.00743
719.00007,0.00669
716.93990,0.00535
714.87972,0.00466
712.81955,0.00550
710.75938,0.00678
708.69921,0.00684
706.63904,0.00588
704.57886,0.00519
702.51869,0.00535
700.45852,0.00570
698.39835,0.00560
696.33818,0.00560
694.27800,0.00618
692.21783,0.00678
690.15766,0.00680
688.09749,0.00621
686.03731,0.00553
683.97714,0.00499
681.91697,0.00456
679.85680,0.00483
677.79663,0.00590
675.73645,0.00693
673.67628,0.00734
671.61611,0.00729
669.55594,0.00703
667.49577,0.00649
665.43559,0.00614
663.37542,0.00646
661.31525,0.00710
659.25508,0.00784
657.19491,0.00826
655.13473,0.00760
653.07456,0.00681
651.01439,0.00736
648.95422,0.00850
646.89404,0.00861
644.83387,0.00799
642.77370,0.00835
640.71353,0.00919
638.65336,0.00818
636.59318,0.00561
634.53301,0.00456
632.47284,0.00664
630.41267,0.01019
628.35250,0.01209
626.29232,0.01065
624.23215,0.00760
622.17198,0.00405
620.11181,0.00154
618.05164,0.00136
615.99146,0.00090
613.93129,0.00000
611.87112,-0.00007
609.81095,0.00072
607.75077,0.00010
605.69060,-0.00135
603.63043,-0.00139
601.57026,-0.00046
599.51009,0.00000
