3996.73391,-0.00077
3994.67373,-0.00077
3992.61356,-0.00070
3990.55339,-0.00045
3988.49322,-0.00018
3986.43305,0.00000
3984.37287,0.00006
3982.31270,-0.00000
3980.25253,-0.00010
3978.19236,-0.00015
3976.13219,-0.00014
3974.07201,-0.00007
3972.01184,-0.00004
3969.95167,0.00003
3967.89150,0.00026
3965.83133,0.00046
3963.77115,0.00043
3961.71098,0.00019
3959.65081,-0.00001
3957.59064,0.00004
3955.53046,0.00037
3953.47029,0.00068
3951.41012,0.00057
3949.34995,0.00014
3947.28978,0.00000
3945.22960,0.00026
3943.16943,0.00038
3941.10926,0.00030
3939.04909,0.00036
3936.98892,0.00043
3934.92874,0.00029
3932.86857,0.00027
3930.80840,0.00066
3928.74823,0.00107
3926.68805,0.00122
3924.62788,0.00113
3922.56771,0.00076
3920.50754,0.00040
3918.44737,0.00039
3916.38719,0.00094
3914.32702,0.00157
3912.26685,0.00165
3910.20668,0.00137
3908.14651,0.00108
3906.08633,0.00081
3904.02616,0.00048
3901.96599,0.00056
3899.90582,0.00129
3897.84565,0.00175
3895.78547,0.00151
3893.72530,0.00111
3891.66513,0.00100
3889.60496,0.00100
3887.54478,0.00092
3885.48461,0.00083
3883.42444,0.00071
3881.36427,0.00076
3879.30410,0.00103
3877.24392,0.00107
3875.18375,0.00087
3873.12358,0.00069
3871.06341,0.00070
3869.00324,0.00099
3866.94306,0.00123
3864.88289,0.00134
3862.82272,0.00144
3860.76255,0.00128
3858.70237,0.00072
3856.64220,0.00000
3854.58203,0.00023
3852.52186,0.00161
3850.46169,0.00234
3848.40151,0.00183
3846.34134,0.00130
3844.28117,0.00132
3842.22100,0.00143
3840.16083,0.00130
3838.10065,0.00129
3836.04048,0.00163
3833.98031,0.00196
3831.92014,0.00221
3829.85997,0.00245
3827.79979,0.00245
3825.73962,0.00210
3823.67945,0.00189
3821.61928,0.00230
3819.55910,0.00264
3817.49893,0.00256
3815.43876,0.00265
3813.37859,0.00268
3811.31842,0.00232
3809.25824,0.00210
3807.19807,0.00220
3805.13790,0.00217
3803.07773,0.00210
3801.01756,0.00239
3798.95738,0.00269
3796.89721,0.00280
3794.83704,0.00299
3792.77687,0.00314
3790.71670,0.00310
3788.65652,0.00304
3786.59635,0.00318
3784.53618,0.00339
3782.47601,0.00346
3780.41583,0.00361
3778.35566,0.00390
3776.29549,0.00397
3774.23532,0.00371
3772.17515,0.00336
3770.11497,0.00314
3768.05480,0.00299
3765.99463,0.00282
3763.93446,0.00259
3761.87429,0.00228
3759.81411,0.00198
3757.75394,0.00158
3755.69377,0.00096
3753.63360,0.00047
3751.57342,0.00051
3749.51325,0.00068
3747.45308,0.00044
3745.39291,0.00000
3743.33274,0.00028
3741.27256,0.00060
3739.21239,0.00030
3737.15222,0.00020
3735.09205,0.00060
3733.03188,0.00114
3730.97170,0.00141
3728.91153,0.00140
3726.85136,0.00149
3724.79119,0.00188
3722.73102,0.00229
3720.67084,0.00248
3718.61067,0.00237
3716.55050,0.00206
3714.49033,0.00203
3712.43015,0.00265
3710.36998,0.00323
3708.30981,0.00340
3706.24964,0.00348
3704.18947,0.00353
3702.12929,0.00357
3700.06912,0.00354
3698.00895,0.00348
3695.94878,0.00349
3693.88861,0.00355
3691.82843,0.00380
3689.76826,0.00414
3687.70809,0.00411
3685.64792,0.00383
3683.58775,0.00364
3681.52757,0.00363
3679.46740,0.00363
3677.40723,0.00378
3675.34706,0.00432
3673.28688,0.00458
3671.22671,0.00448
3669.16654,0.00461
3667.10637,0.00465
3665.04620,0.00435
3662.98602,0.00402
3660.92585,0.00379
3658.86568,0.00366
3656.80551,0.00376
3654.74534,0.00404
3652.68516,0.00435
3650.62499,0.00484
3648.56482,0.00542
3646.50465,0.00587
3644.44447,0.00577
3642.38430,0.00551
3640.32413,0.00539
3638.26396,0.00522
3636.20379,0.00501
3634.14361,0.00504
3632.08344,0.00533
3630.02327,0.00593
3627.96310,0.00676
3625.90293,0.00721
3623.84275,0.00707
3621.78258,0.00689
3619.72241,0.00699
3617.66224,0.00704
3615.60207,0.00682
3613.54189,0.00659
3611.48172,0.00669
3609.42155,0.00725
3607.36138,0.00794
3605.30120,0.00824
3603.24103,0.00835
3601.18086,0.00871
3599.12069,0.00919
3597.06052,0.00953
3595.00034,0.00969
3592.94017,0.00972
3590.88000,0.00981
3588.81983,0.01006
3586.75966,0.01033
3584.69948,0.01061
3582.63931,0.01098
3580.57914,0.01145
3578.51897,0.01188
3576.45879,0.01209
3574.39862,0.01217
3572.33845,0.01222
3570.27828,0.01217
3568.21811,0.01212
3566.15793,0.01241
3564.09776,0.01295
3562.03759,0.01329
3559.97742,0.01343
3557.91725,0.01356
3555.85707,0.01377
3553.79690,0.01405
3551.73673,0.01422
3549.67656,0.01413
3547.61639,0.01389
3545.55621,0.01387
3543.49604,0.01431
3541.43587,0.01501
3539.37570,0.01565
3537.31552,0.01605
3535.25535,0.01625
3533.19518,0.01642
3531.13501,0.01664
3529.07484,0.01679
3527.01466,0.01676
3524.95449,0.01677
3522.89432,0.01712
3520.83415,0.01769
3518.77398,0.01810
3516.71380,0.01821
3514.65363,0.01822
3512.59346,0.01836
3510.53329,0.01854
3508.47312,0.01861
3506.41294,0.01857
3504.35277,0.01850
3502.29260,0.01852
3500.23243,0.01887
3498.17225,0.01951
3496.11208,0.02007
3494.05191,0.02034
3491.99174,0.02048
3489.93157,0.02074
3487.87139,0.02108
3485.81122,0.02118
3483.75105,0.02114
3481.69088,0.02125
3479.63071,0.02145
3477.57053,0.02168
3475.51036,0.02191
3473.45019,0.02200
3471.39002,0.02203
3469.32984,0.02227
3467.26967,0.02266
3465.20950,0.02285
3463.14933,0.02280
3461.08916,0.02275
3459.02898,0.02292
3456.96881,0.02318
3454.90864,0.02342
3452.84847,0.02373
3450.78830,0.02395
3448.72812,0.02398
3446.66795,0.02394
3444.60778,0.02390
3442.54761,0.02392
3440.48744,0.02403
3438.42726,0.02423
3436.36709,0.02446
3434.30692,0.02473
3432.24675,0.02507
3430.18657,0.02529
3428.12640,0.02529
3426.06623,0.02518
3424.00606,0.02519
3421.94589,0.02542
3419.88571,0.02568
3417.82554,0.02590
3415.76537,0.02615
3413.70520,0.02641
3411.64503,0.02653
3409.58485,0.02650
3407.52468,0.02651
3405.46451,0.02655
3403.40434,0.02653
3401.34416,0.02664
3399.28399,0.02623
3397.22382,0.02620
3395.16365,0.02624
3393.10348,0.02654
3391.04330,0.02707
3388.98313,0.02746
3386.92296,0.02752
3384.86279,0.02753
3382.80262,0.02771
3380.74244,0.02798
3378.68227,0.02826
3376.62210,0.02844
3374.56193,0.02846
3372.50176,0.02837
3370.44158,0.02836
3368.38141,0.02845
3366.32124,0.02857
3364.26107,0.02874
3362.20089,0.02890
3360.14072,0.02906
3358.08055,0.02922
3356.02038,0.02926
3353.96021,0.02919
3351.90003,0.02916
3349.83986,0.02927
3347.77969,0.02950
3345.71952,0.02967
3343.65935,0.02965
3341.59917,0.02952
3339.53900,0.02930
3337.47883,0.02919
3335.41866,0.02942
3333.35849,0.02978
3331.29831,0.03014
3329.23814,0.03045
3327.17797,0.03052
3325.11780,0.03035
3323.05762,0.03028
3320.99745,0.03031
3318.93728,0.03019
3316.87711,0.03012
3314.81694,0.03019
3312.75676,0.03007
3310.69659,0.02981
3308.63642,0.02982
3306.57625,0.03008
3304.51608,0.03037
3302.45590,0.03068
3300.39573,0.03084
3298.33556,0.03072
3296.27539,0.03059
3294.21521,0.03058
3292.15504,0.03063
3290.09487,0.03073
3288.03470,0.03087
3285.97453,0.03101
3283.91435,0.03112
3281.85418,0.03116
3279.79401,0.03105
3277.73384,0.03088
3275.67367,0.03092
3273.61349,0.03128
3271.55332,0.03166
3269.49315,0.03178
3267.43298,0.03177
3265.37281,0.03168
3263.31263,0.03157
3261.25246,0.03158
3259.19229,0.03172
3257.13212,0.03174
3255.07194,0.03168
3253.01177,0.03171
3250.95160,0.03185
3248.89143,0.03202
3246.83126,0.03215
3244.77108,0.03219
3242.71091,0.03217
3240.65074,0.03212
3238.59057,0.03206
3236.53040,0.03200
3234.47022,0.03202
3232.41005,0.03223
3230.34988,0.03234
3228.28971,0.03225
3226.22954,0.03225
3224.16936,0.03236
3222.10919,0.03233
3220.04902,0.03220
3217.98885,0.03223
3215.92867,0.03239
3213.86850,0.03251
3211.80833,0.03255
3209.74816,0.03258
3207.68799,0.03264
3205.62781,0.03276
3203.56764,0.03278
3201.50747,0.03256
3199.44730,0.03240
3197.38713,0.03255
3195.32695,0.03271
3193.26678,0.03267
3191.20661,0.03260
3189.14644,0.03257
3187.08626,0.03256
3185.02609,0.03253
3182.96592,0.03254
3180.90575,0.03253
3178.84558,0.03249
3176.78540,0.03257
3174.72523,0.03274
3172.66506,0.03277
3170.60489,0.03275
3168.54472,0.03279
3166.48454,0.03272
3164.42437,0.03265
3162.36420,0.03276
3160.30403,0.03292
3158.24386,0.03291
3156.18368,0.03268
3154.12351,0.03227
3152.06334,0.03202
3150.00317,0.03211
3147.94299,0.03229
3145.88282,0.03239
3143.82265,0.03246
3141.76248,0.03255
3139.70231,0.03260
3137.64213,0.03250
3135.58196,0.03226
3133.52179,0.03204
3131.46162,0.03212
3129.40145,0.03237
3127.34127,0.03237
3125.28110,0.03216
3123.22093,0.03195
3121.16076,0.03179
3119.10058,0.03172
3117.04041,0.03166
3114.98024,0.03163
3112.92007,0.03171
3110.85990,0.03175
3108.79972,0.03160
3106.73955,0.03130
3104.67938,0.03100
3102.61921,0.03088
3100.55904,0.03098
3098.49886,0.03111
3096.43869,0.03105
3094.37852,0.03090
3092.31835,0.03091
3090.25818,0.03104
3088.19800,0.03110
3086.13783,0.03109
3084.07766,0.03104
3082.01749,0.03095
3079.95731,0.03087
3077.89714,0.03075
3075.83697,0.03051
3073.77680,0.03034
3071.71663,0.03042
3069.65645,0.03050
3067.59628,0.03038
3065.53611,0.03027
3063.47594,0.03030
3061.41577,0.03027
3059.35559,0.03013
3057.29542,0.03000
3055.23525,0.02991
3053.17508,0.02983
3051.11491,0.02974
3049.05473,0.02964
3046.99456,0.02956
3044.93439,0.02951
3042.87422,0.02945
3040.81404,0.02931
3038.75387,0.02917
3036.69370,0.02910
3034.63353,0.02906
3032.57336,0.02900
3030.51318,0.02883
3028.45301,0.02863
3026.39284,0.02861
3024.33267,0.02874
3022.27250,0.02872
3020.21232,0.02853
3018.15215,0.02834
3016.09198,0.02804
3014.03181,0.02769
3011.97163,0.02751
3009.91146,0.02754
3007.85129,0.02756
3005.79112,0.02743
3003.73095,0.02723
3001.67077,0.02705
2999.61060,0.02704
2997.55043,0.02708
2995.49026,0.02711
2993.43009,0.02703
2991.36991,0.02695
2989.30974,0.02676
2987.24957,0.02655
2985.18940,0.02656
2983.12923,0.02666
2981.06905,0.02663
2979.00888,0.02647
2976.94871,0.02635
2974.88854,0.02633
2972.82836,0.02634
2970.76819,0.02635
2968.70802,0.02636
2966.64785,0.02627
2964.58768,0.02609
2962.52750,0.02603
2960.46733,0.02604
2958.40716,0.02612
2956.34699,0.02625
2954.28682,0.02620
2952.22664,0.02597
2950.16647,0.02576
2948.10630,0.02560
2946.04613,0.02553
2943.98596,0.02547
2941.92578,0.02533
2939.86561,0.02521
2937.80544,0.02515
2935.74527,0.02512
2933.68509,0.02518
2931.62492,0.02528
2929.56475,0.02520
2927.50458,0.02488
2925.44441,0.02458
2923.38423,0.02455
2921.32406,0.02477
2919.26389,0.02504
2917.20372,0.02514
2915.14355,0.02503
2913.08337,0.02481
2911.02320,0.02458
2908.96303,0.02438
2906.90286,0.02424
2904.84268,0.02416
2902.78251,0.02414
2900.72234,0.02413
2898.66217,0.02409
2896.60200,0.02398
2894.54182,0.02382
2892.48165,0.02376
2890.42148,0.02383
2888.36131,0.02396
2886.30114,0.02400
2884.24096,0.02396
2882.18079,0.02392
2880.12062,0.02376
2878.06045,0.02350
2876.00028,0.02332
2873.94010,0.02324
2871.87993,0.02322
2869.81976,0.02317
2867.75959,0.02311
2865.69941,0.02300
2863.63924,0.02281
2861.57907,0.02276
2859.51890,0.02282
2857.45873,0.02282
2855.39855,0.02284
2853.33838,0.02291
2851.27821,0.02290
2849.21804,0.02279
2847.15787,0.02273
2845.09769,0.02271
2843.03752,0.02260
2840.97735,0.02246
2838.91718,0.02226
2836.85700,0.02207
2834.79683,0.02206
2832.73666,0.02212
2830.67649,0.02207
2828.61632,0.02193
2826.55614,0.02184
2824.49597,0.02185
2822.43580,0.02173
2820.37563,0.02145
2818.31546,0.02133
2816.25528,0.02148
2814.19511,0.02169
2812.13494,0.02180
2810.07477,0.02169
2808.01460,0.02141
2805.95442,0.02114
2803.89425,0.02097
2801.83408,0.02097
2799.77391,0.02099
2797.71373,0.02094
2795.65356,0.02086
2793.59339,0.02079
2791.53322,0.02078
2789.47305,0.02083
2787.41287,0.02081
2785.35270,0.02066
2783.29253,0.02057
2781.23236,0.02060
2779.17219,0.02063
2777.11201,0.02063
2775.05184,0.02058
2772.99167,0.02043
2770.93150,0.02021
2768.87133,0.02010
2766.81115,0.02018
2764.75098,0.02023
2762.69081,0.02014
2760.63064,0.01999
2758.57046,0.01993
2756.51029,0.02002
2754.45012,0.02008
2752.38995,0.02005
2750.32978,0.01993
2748.26960,0.01970
2746.20943,0.01951
2744.14926,0.01946
2742.08909,0.01950
2740.02892,0.01945
2737.96874,0.01929
2735.90857,0.01912
2733.84840,0.01903
2731.78823,0.01906
2729.72805,0.01914
2727.66788,0.01912
2725.60771,0.01897
2723.54754,0.01885
2721.48737,0.01885
2719.42719,0.01886
2717.36702,0.01877
2715.30685,0.01868
2713.24668,0.01863
2711.18651,0.01862
2709.12633,0.01856
2707.06616,0.01838
2705.00599,0.01822
2702.94582,0.01816
2700.88565,0.01814
2698.82547,0.01813
2696.76530,0.01808
2694.70513,0.01802
2692.64496,0.01791
2690.58478,0.01782
2688.52461,0.01782
2686.46444,0.01785
2684.40427,0.01783
2682.34410,0.01776
2680.28392,0.01773
2678.22375,0.01774
2676.16358,0.01761
2674.10341,0.01739
2672.04324,0.01721
2669.98306,0.01702
2667.92289,0.01683
2665.86272,0.01680
2663.80255,0.01687
2661.74238,0.01688
2659.68220,0.01693
2657.62203,0.01700
2655.56186,0.01697
2653.50169,0.01683
2651.44151,0.01663
2649.38134,0.01637
2647.32117,0.01619
2645.26100,0.01628
2643.20083,0.01640
2641.14065,0.01628
2639.08048,0.01612
2637.02031,0.01612
2634.96014,0.01613
2632.89997,0.01605
2630.83979,0.01602
2628.77962,0.01598
2626.71945,0.01583
2624.65928,0.01575
2622.59910,0.01580
2620.53893,0.01578
2618.47876,0.01560
2616.41859,0.01551
2614.35842,0.01565
2612.29824,0.01578
2610.23807,0.01574
2608.17790,0.01564
2606.11773,0.01556
2604.05756,0.01545
2601.99738,0.01538
2599.93721,0.01539
2597.87704,0.01534
2595.81687,0.01519
2593.75670,0.01523
2591.69652,0.01547
2589.63635,0.01554
2587.57618,0.01542
2585.51601,0.01524
2583.45583,0.01507
2581.39566,0.01511
2579.33549,0.01528
2577.27532,0.01527
2575.21515,0.01516
2573.15497,0.01518
2571.09480,0.01514
2569.03463,0.01508
2566.97446,0.01517
2564.91429,0.01513
2562.85411,0.01490
2560.79394,0.01487
2558.73377,0.01507
2556.67360,0.01516
2554.61342,0.01515
2552.55325,0.01513
2550.49308,0.01509
2548.43291,0.01504
2546.37274,0.01495
2544.31256,0.01494
2542.25239,0.01511
2540.19222,0.01519
2538.13205,0.01506
2536.07188,0.01491
2534.01170,0.01489
2531.95153,0.01506
2529.89136,0.01520
2527.83119,0.01516
2525.77102,0.01506
2523.71084,0.01504
2521.65067,0.01509
2519.59050,0.01520
2517.53033,0.01521
2515.47015,0.01514
2513.40998,0.01519
2511.34981,0.01536
2509.28964,0.01548
2507.22947,0.01549
2505.16929,0.01553
2503.10912,0.01572
2501.04895,0.01583
2498.98878,0.01555
2496.92861,0.01523
2494.86843,0.01534
2492.80826,0.01564
2490.74809,0.01577
2488.68792,0.01575
2486.62775,0.01578
2484.56757,0.01593
2482.50740,0.01604
2480.44723,0.01596
2478.38706,0.01587
2476.32688,0.01596
2474.26671,0.01628
2472.20654,0.01657
2470.14637,0.01652
2468.08620,0.01619
2466.02602,0.01590
2463.96585,0.01592
2461.90568,0.01616
2459.84551,0.01633
2457.78534,0.01632
2455.72516,0.01620
2453.66499,0.01612
2451.60482,0.01607
2449.54465,0.01607
2447.48447,0.01623
2445.42430,0.01635
2443.36413,0.01631
2441.30396,0.01645
2439.24379,0.01679
2437.18361,0.01686
2435.12344,0.01665
2433.06327,0.01654
2431.00310,0.01656
2428.94293,0.01671
2426.88275,0.01689
2424.82258,0.01679
2422.76241,0.01646
2420.70224,0.01620
2418.64207,0.01613
2416.58189,0.01619
2414.52172,0.01624
2412.46155,0.01607
2410.40138,0.01578
2408.34120,0.01566
2406.28103,0.01573
2404.22086,0.01578
2402.16069,0.01582
2400.10052,0.01596
2398.04034,0.01635
2395.98017,0.01644
2393.92000,0.01633
2391.85983,0.01620
2389.79966,0.01605
2387.73948,0.01587
2385.67931,0.01563
2383.61914,0.01534
2381.55897,0.01516
2379.49880,0.01515
2377.43862,0.01525
2375.37845,0.01550
2373.31828,0.01592
2371.25811,0.01647
2369.19793,0.01716
2367.13776,0.01774
2365.07759,0.01786
2363.01742,0.01778
2360.95725,0.01792
2358.89707,0.01798
2356.83690,0.01757
2354.77673,0.01700
2352.71656,0.01647
2350.65639,0.01596
2348.59621,0.01575
2346.53604,0.01592
2344.47587,0.01618
2342.41570,0.01658
2340.35552,0.01703
2338.29535,0.01689
2336.23518,0.01635
2334.17501,0.01619
2332.11484,0.01636
2330.05466,0.01613
2327.99449,0.01542
2325.93432,0.01483
2323.87415,0.01481
2321.81398,0.01514
2319.75380,0.01524
2317.69363,0.01491
2315.63346,0.01441
2313.57329,0.01414
2311.51312,0.01421
2309.45294,0.01432
2307.39277,0.01427
2305.33260,0.01426
2303.27243,0.01441
2301.21225,0.01450
2299.15208,0.01442
2297.09191,0.01431
2295.03174,0.01432
2292.97157,0.01441
2290.91139,0.01458
2288.85122,0.01484
2286.79105,0.01502
2284.73088,0.01512
2282.67071,0.01531
2280.61053,0.01563
2278.55036,0.01579
2276.49019,0.01555
2274.43002,0.01516
2272.36984,0.01484
2270.30967,0.01474
2268.24950,0.01500
2266.18933,0.01507
2264.12916,0.01465
2262.06898,0.01436
2260.00881,0.01450
2257.94864,0.01464
2255.88847,0.01453
2253.82830,0.01416
2251.76812,0.01385
2249.70795,0.01401
2247.64778,0.01419
2245.58761,0.01416
2243.52744,0.01401
2241.46726,0.01391
2239.40709,0.01411
2237.34692,0.01435
2235.28675,0.01425
2233.22657,0.01427
2231.16640,0.01473
2229.10623,0.01514
2227.04606,0.01516
2224.98589,0.01506
2222.92571,0.01484
2220.86554,0.01432
2218.80537,0.01385
2216.74520,0.01381
2214.68503,0.01410
2212.62485,0.01418
2210.56468,0.01392
2208.50451,0.01369
2206.44434,0.01346
2204.38417,0.01335
2202.32399,0.01364
2200.26382,0.01369
2198.20365,0.01331
2196.14348,0.01316
2194.08330,0.01276
2192.02313,0.01225
2189.96296,0.01258
2187.90279,0.01282
2185.84262,0.01246
2183.78244,0.01280
2181.72227,0.01385
2179.66210,0.01440
2177.60193,0.01439
2175.54176,0.01424
2173.48158,0.01374
2171.42141,0.01316
2169.36124,0.01329
2167.30107,0.01363
2165.24089,0.01309
2163.18072,0.01193
2161.12055,0.01084
2159.06038,0.01038
2157.00021,0.01099
2154.94003,0.01205
2152.87986,0.01299
2150.81969,0.01399
2148.75952,0.01428
2146.69935,0.01336
2144.63917,0.01259
2142.57900,0.01267
2140.51883,0.01298
2138.45866,0.01312
2136.39849,0.01313
2134.33831,0.01318
2132.27814,0.01328
2130.21797,0.01330
2128.15780,0.01336
2126.09762,0.01330
2124.03745,0.01305
2121.97728,0.01310
2119.91711,0.01334
2117.85694,0.01303
2115.79676,0.01249
2113.73659,0.01244
2111.67642,0.01273
2109.61625,0.01288
2107.55608,0.01270
2105.49590,0.01224
2103.43573,0.01191
2101.37556,0.01216
2099.31539,0.01301
2097.25521,0.01320
2095.19504,0.01273
2093.13487,0.01208
2091.07470,0.01177
2089.01453,0.01197
2086.95435,0.01227
2084.89418,0.01237
2082.83401,0.01256
2080.77384,0.01307
2078.71367,0.01347
2076.65349,0.01363
2074.59332,0.01368
2072.53315,0.01349
2070.47298,0.01305
2068.41281,0.01299
2066.35263,0.01317
2064.29246,0.01269
2062.23229,0.01196
2060.17212,0.01176
2058.11194,0.01182
2056.05177,0.01180
2053.99160,0.01200
2051.93143,0.01258
2049.87126,0.01330
2047.81108,0.01386
2045.75091,0.01431
2043.69074,0.01471
2041.63057,0.01489
2039.57040,0.01477
2037.51022,0.01437
2035.45005,0.01380
2033.38988,0.01317
2031.32971,0.01259
2029.26954,0.01199
2027.20936,0.01179
2025.14919,0.01258
2023.08902,0.01370
2021.02885,0.01365
2018.96867,0.01260
2016.90850,0.01221
2014.84833,0.01262
2012.78816,0.01276
2010.72799,0.01292
2008.66781,0.01354
2006.60764,0.01353
2004.54747,0.01257
2002.48730,0.01195
2000.42713,0.01214
1998.36695,0.01245
1996.30678,0.01228
1994.24661,0.01201
1992.18644,0.01189
1990.12626,0.01179
1988.06609,0.01204
1986.00592,0.01248
1983.94575,0.01281
1981.88558,0.01324
1979.82540,0.01358
1977.76523,0.01343
1975.70506,0.01306
1973.64489,0.01303
1971.58472,0.01336
1969.52454,0.01344
1967.46437,0.01323
1965.40420,0.01307
1963.34403,0.01279
1961.28386,0.01233
1959.22368,0.01198
1957.16351,0.01191
1955.10334,0.01201
1953.04317,0.01207
1950.98299,0.01212
1948.92282,0.01226
1946.86265,0.01248
1944.80248,0.01279
1942.74231,0.01304
1940.68213,0.01287
1938.62196,0.01238
1936.56179,0.01209
1934.50162,0.01211
1932.44145,0.01205
1930.38127,0.01184
1928.32110,0.01181
1926.26093,0.01187
1924.20076,0.01182
1922.14059,0.01165
1920.08041,0.01147
1918.02024,0.01156
1915.96007,0.01194
1913.89990,0.01233
1911.83972,0.01247
1909.77955,0.01228
1907.71938,0.01205
1905.65921,0.01204
1903.59904,0.01214
1901.53886,0.01215
1899.47869,0.01201
1897.41852,0.01179
1895.35835,0.01157
1893.29818,0.01146
1891.23800,0.01160
1889.17783,0.01183
1887.11766,0.01189
1885.05749,0.01179
1882.99731,0.01164
1880.93714,0.01155
1878.87697,0.01151
1876.81680,0.01162
1874.75663,0.01190
1872.69645,0.01229
1870.63628,0.01261
1868.57611,0.01272
1866.51594,0.01254
1864.45577,0.01226
1862.39559,0.01201
1860.33542,0.01181
1858.27525,0.01177
1856.21508,0.01193
1854.15491,0.01203
1852.09473,0.01202
1850.03456,0.01200
1847.97439,0.01186
1845.91422,0.01149
1843.85404,0.01115
1841.79387,0.01115
1839.73370,0.01144
1837.67353,0.01169
1835.61336,0.01164
1833.55318,0.01166
1831.49301,0.01210
1829.43284,0.01243
1827.37267,0.01224
1825.31250,0.01205
1823.25232,0.01217
1821.19215,0.01234
1819.13198,0.01223
1817.07181,0.01202
1815.01163,0.01196
1812.95146,0.01185
1810.89129,0.01148
1808.83112,0.01112
1806.77095,0.01108
1804.71077,0.01117
1802.65060,0.01124
1800.59043,0.01144
1798.53026,0.01163
1796.47009,0.01159
1794.40991,0.01150
1792.34974,0.01142
1790.28957,0.01126
1788.22940,0.01107
1786.16923,0.01092
1784.10905,0.01097
1782.04888,0.01121
1779.98871,0.01132
1777.92854,0.01131
1775.86836,0.01148
1773.80819,0.01179
1771.74802,0.01177
1769.68785,0.01133
1767.62768,0.01102
1765.56750,0.01100
1763.50733,0.01107
1761.44716,0.01101
1759.38699,0.01090
1757.32682,0.01100
1755.26664,0.01115
1753.20647,0.01120
1751.14630,0.01131
1749.08613,0.01143
1747.02596,0.01134
1744.96578,0.01123
1742.90561,0.01145
1740.84544,0.01181
1738.78527,0.01200
1736.72509,0.01207
1734.66492,0.01214
1732.60475,0.01214
1730.54458,0.01219
1728.48441,0.01217
1726.42423,0.01205
1724.36406,0.01194
1722.30389,0.01210
1720.24372,0.01270
1718.18355,0.01321
1716.12337,0.01282
1714.06320,0.01225
1712.00303,0.01207
1709.94286,0.01227
1707.88268,0.01263
1705.82251,0.01273
1703.76234,0.01267
1701.70217,0.01302
1699.64200,0.01346
1697.58182,0.01342
1695.52165,0.01320
1693.46148,0.01313
1691.40131,0.01329
1689.34114,0.01376
1687.28096,0.01460
1685.22079,0.01566
1683.16062,0.01594
1681.10045,0.01552
1679.04028,0.01545
1676.98010,0.01603
1674.91993,0.01685
1672.85976,0.01751
1670.79959,0.01794
1668.73941,0.01794
1666.67924,0.01771
1664.61907,0.01782
1662.55890,0.01803
1660.49873,0.01777
1658.43855,0.01746
1656.37838,0.01775
1654.31821,0.01843
1652.25804,0.01852
1650.19787,0.01846
1648.13769,0.01869
1646.07752,0.01869
1644.01735,0.01805
1641.95718,0.01757
1639.89701,0.01783
1637.83683,0.01851
1635.77666,0.01867
1633.71649,0.01815
1631.65632,0.01780
1629.59614,0.01783
1627.53597,0.01794
1625.47580,0.01802
1623.41563,0.01799
1621.35546,0.01774
1619.29528,0.01780
1617.23511,0.01816
1615.17494,0.01798
1613.11477,0.01745
1611.05460,0.01722
1608.99442,0.01725
1606.93425,0.01727
1604.87408,0.01732
1602.81391,0.01735
1600.75373,0.01726
1598.69356,0.01715
1596.63339,0.01708
1594.57322,0.01693
1592.51305,0.01668
1590.45287,0.01646
1588.39270,0.01629
1586.33253,0.01610
1584.27236,0.01585
1582.21219,0.01563
1580.15201,0.01572
1578.09184,0.01607
1576.03167,0.01590
1573.97150,0.01509
1571.91133,0.01461
1569.85115,0.01448
1567.79098,0.01404
1565.73081,0.01348
1563.67064,0.01337
1561.61046,0.01404
1559.55029,0.01459
1557.49012,0.01337
1555.42995,0.01195
1553.36978,0.01136
1551.30960,0.01126
1549.24943,0.01117
1547.18926,0.01106
1545.12909,0.01128
1543.06892,0.01195
1541.00874,0.01264
1538.94857,0.01223
1536.88840,0.01117
1534.82823,0.01061
1532.76805,0.01050
1530.70788,0.01032
1528.64771,0.01022
1526.58754,0.01017
1524.52737,0.01010
1522.46719,0.01006
1520.40702,0.00973
1518.34685,0.00934
1516.28668,0.00896
1514.22651,0.00850
1512.16633,0.00832
1510.10616,0.00885
1508.04599,0.00972
1505.98582,0.00987
1503.92565,0.00925
1501.86547,0.00877
1499.80530,0.00895
1497.74513,0.00942
1495.68496,0.00968
1493.62478,0.00990
1491.56461,0.01022
1489.50444,0.01026
1487.44427,0.00996
1485.38410,0.00975
1483.32392,0.00970
1481.26375,0.00971
1479.20358,0.00982
1477.14341,0.01012
1475.08324,0.01056
1473.02306,0.01077
1470.96289,0.01044
1468.90272,0.00997
1466.84255,0.00993
1464.78238,0.01014
1462.72220,0.01017
1460.66203,0.01041
1458.60186,0.01078
1456.54169,0.01041
1454.48151,0.00979
1452.42134,0.00961
1450.36117,0.00991
1448.30100,0.01033
1446.24083,0.01050
1444.18065,0.01051
1442.12048,0.01055
1440.06031,0.01070
1438.00014,0.01080
1435.93997,0.01072
1433.87979,0.01065
1431.81962,0.01077
1429.75945,0.01097
1427.69928,0.01101
1425.63910,0.01103
1423.57893,0.01107
1421.51876,0.01105
1419.45859,0.01089
1417.39842,0.01078
1415.33824,0.01100
1413.27807,0.01137
1411.21790,0.01161
1409.15773,0.01169
1407.09756,0.01174
1405.03738,0.01174
1402.97721,0.01166
1400.91704,0.01157
1398.85687,0.01137
1396.79670,0.01115
1394.73652,0.01110
1392.67635,0.01105
1390.61618,0.01100
1388.55601,0.01106
1386.49583,0.01120
1384.43566,0.01130
1382.37549,0.01134
1380.31532,0.01132
1378.25515,0.01139
1376.19497,0.01151
1374.13480,0.01139
1372.07463,0.01112
1370.01446,0.01106
1367.95429,0.01121
1365.89411,0.01131
1363.83394,0.01121
1361.77377,0.01096
1359.71360,0.01085
1357.65343,0.01092
1355.59325,0.01102
1353.53308,0.01105
1351.47291,0.01101
1349.41274,0.01092
1347.35256,0.01078
1345.29239,0.01060
1343.23222,0.01044
1341.17205,0.01028
1339.11188,0.01012
1337.05170,0.01016
1334.99153,0.01040
1332.93136,0.01053
1330.87119,0.01045
1328.81102,0.01038
1326.75084,0.01043
1324.69067,0.01047
1322.63050,0.01047
1320.57033,0.01049
1318.51015,0.01045
1316.44998,0.01037
1314.38981,0.01032
1312.32964,0.01034
1310.26947,0.01043
1308.20929,0.01050
1306.14912,0.01052
1304.08895,0.01058
1302.02878,0.01064
1299.96861,0.01064
1297.90843,0.01065
1295.84826,0.01072
1293.78809,0.01077
1291.72792,0.01070
1289.66775,0.01060
1287.60757,0.01053
1285.54740,0.01053
1283.48723,0.01060
1281.42706,0.01072
1279.36688,0.01083
1277.30671,0.01087
1275.24654,0.01086
1273.18637,0.01086
1271.12620,0.01088
1269.06602,0.01086
1267.00585,0.01080
1264.94568,0.01076
1262.88551,0.01072
1260.82534,0.01065
1258.76516,0.01066
1256.70499,0.01073
1254.64482,0.01073
1252.58465,0.01070
1250.52447,0.01069
1248.46430,0.01062
1246.40413,0.01046
1244.34396,0.01031
1242.28379,0.01023
1240.22361,0.01012
1238.16344,0.01003
1236.10327,0.01001
1234.04310,0.01000
1231.98293,0.00999
1229.92275,0.00994
1227.86258,0.00977
1225.80241,0.00962
1223.74224,0.00960
1221.68207,0.00953
1219.62189,0.00935
1217.56172,0.00921
1215.50155,0.00902
1213.44138,0.00877
1211.38120,0.00858
1209.32103,0.00849
1207.26086,0.00847
1205.20069,0.00849
1203.14052,0.00848
1201.08034,0.00841
1199.02017,0.00833
1196.96000,0.00842
1194.89983,0.00856
1192.83966,0.00856
1190.77948,0.00844
1188.71931,0.00835
1186.65914,0.00841
1184.59897,0.00862
1182.53880,0.00886
1180.47862,0.00906
1178.41845,0.00921
1176.35828,0.00922
1174.29811,0.00920
1172.23793,0.00937
1170.17776,0.00961
1168.11759,0.00977
1166.05742,0.00992
1163.99725,0.01017
1161.93707,0.01049
1159.87690,0.01085
1157.81673,0.01125
1155.75656,0.01167
1153.69639,0.01204
1151.63621,0.01243
1149.57604,0.01297
1147.51587,0.01358
1145.45570,0.01422
1143.39552,0.01489
1141.33535,0.01548
1139.27518,0.01604
1137.21501,0.01671
1135.15484,0.01753
1133.09466,0.01839
1131.03449,0.01918
1128.97432,0.01997
1126.91415,0.02078
1124.85398,0.02164
1122.79380,0.02261
1120.73363,0.02361
1118.67346,0.02446
1116.61329,0.02525
1114.55312,0.02617
1112.49294,0.02714
1110.43277,0.02800
1108.37260,0.02883
1106.31243,0.02974
1104.25225,0.03059
1102.19208,0.03129
1100.13191,0.03200
1098.07174,0.03274
1096.01157,0.03336
1093.95139,0.03394
1091.89122,0.03460
1089.83105,0.03539
1087.77088,0.03626
1085.71071,0.03702
1083.65053,0.03757
1081.59036,0.03807
1079.53019,0.03866
1077.47002,0.03935
1075.40985,0.03991
1073.34967,0.04031
1071.28950,0.04069
1069.22933,0.04099
1067.16916,0.04121
1065.10898,0.04130
1063.04881,0.04126
1060.98864,0.04119
1058.92847,0.04098
1056.86830,0.04050
1054.80812,0.03986
1052.74795,0.03907
1050.68778,0.03813
1048.62761,0.03712
1046.56744,0.03610
1044.50726,0.03497
1042.44709,0.03362
1040.38692,0.03203
1038.32675,0.03041
1036.26657,0.02889
1034.20640,0.02733
1032.14623,0.02572
1030.08606,0.02442
1028.02589,0.02346
1025.96571,0.02256
1023.90554,0.02164
1021.84537,0.02079
1019.78520,0.02007
1017.72503,0.01954
1015.66485,0.01930
1013.60468,0.01937
1011.54451,0.01958
1009.48434,0.01988
1007.42417,0.02024
1005.36399,0.02064
1003.30382,0.02125
1001.24365,0.02211
999.18348,0.02304
997.12330,0.02398
995.06313,0.02488
993.00296,0.02576
990.94279,0.02678
988.88262,0.02774
986.82244,0.02842
984.76227,0.02897
982.70210,0.02950
980.64193,0.02994
978.58176,0.03019
976.52158,0.03025
974.46141,0.03022
972.40124,0.03002
970.34107,0.02953
968.28089,0.02880
966.22072,0.02793
964.16055,0.02706
962.10038,0.02631
960.04021,0.02551
957.98003,0.02461
955.91986,0.02373
953.85969,0.02285
951.79952,0.02187
949.73935,0.02086
947.67917,0.02010
945.61900,0.01957
943.55883,0.01891
941.49866,0.01808
939.43849,0.01738
937.37831,0.01686
935.31814,0.01624
933.25797,0.01546
931.19780,0.01488
929.13762,0.01456
927.07745,0.01426
925.01728,0.01388
922.95711,0.01345
920.89694,0.01315
918.83676,0.01308
916.77659,0.01301
914.71642,0.01275
912.65625,0.01234
910.59608,0.01190
908.53590,0.01152
906.47573,0.01131
904.41556,0.01138
902.35539,0.01161
900.29522,0.01172
898.23504,0.01172
896.17487,0.01188
894.11470,0.01222
892.05453,0.01265
889.99435,0.01314
887.93418,0.01352
885.87401,0.01386
883.81384,0.01430
881.75367,0.01471
879.69349,0.01499
877.63332,0.01523
875.57315,0.01559
873.51298,0.01609
871.45281,0.01663
869.39263,0.01716
867.33246,0.01760
865.27229,0.01788
863.21212,0.01799
861.15194,0.01799
859.09177,0.01796
857.03160,0.01801
854.97143,0.01811
852.91126,0.01815
850.85108,0.01820
848.79091,0.01814
846.73074,0.01783
844.67057,0.01737
842.61040,0.01689
840.55022,0.01646
838.49005,0.01606
836.42988,0.01563
834.36971,0.01523
832.30954,0.01497
830.24936,0.01480
828.18919,0.01444
826.12902,0.01379
824.06885,0.01320
822.00867,0.01294
819.94850,0.01278
817.88833,0.01253
815.82816,0.01220
813.76799,0.01186
811.70781,0.01154
809.64764,0.01121
807.58747,0.01103
805.52730,0.01108
803.46713,0.01124
801.40695,0.01116
799.34678,0.01079
797.28661,0.01045
795.22644,0.01019
793.16627,0.01000
791.10609,0.00980
789.04592,0.00936
786.98575,0.00893
784.92558,0.00868
782.86540,0.00846
780.80523,0.00840
778.74506,0.00854
776.68489,0.00866
774.62472,0.00862
772.56454,0.00854
770.50437,0.00849
768.44420,0.00827
766.38403,0.00797
764.32386,0.00796
762.26368,0.00811
760.20351,0.00806
758.14334,0.00775
756.08317,0.00731
754.02299,0.00706
751.96282,0.00731
749.90265,0.00762
747.84248,0.00750
745.78231,0.00722
743.72213,0.00702
741.66196,0.00655
739.60179,0.00584
737.54162,0.00555
735.48145,0.00594
733.42127,0.00650
731.36110,0.00679
729.30093,0.00681
727.24076,0.00676
725.18059,0.00664
723.12041,0.00617
721.06024,0.00608
719.00007,0.00633
716.93990,0.00659
714.87972,0.00671
712.81955,0.00671
710.75938,0.00641
708.69921,0.00576
706.63904,0.00542
704.57886,0.00587
702.51869,0.00649
700.45852,0.00640
698.39835,0.00567
696.33818,0.00519
694.27800,0.00531
692.21783,0.00569
690.15766,0.00592
688.09749,0.00580
686.03731,0.00557
683.97714,0.00558
681.91697,0.00558
679.85680,0.00529
677.79663,0.00489
675.73645,0.00474
673.67628,0.00491
671.61611,0.00524
669.55594,0.00536
667.49577,0.00496
665.43559,0.00477
663.37542,0.00465
661.31525,0.00475
659.25508,0.00475
657.19491,0.00429
655.13473,0.00381
653.07456,0.00378
651.01439,0.00390
648.95422,0.00384
646.89404,0.00365
644.83387,0.00362
642.77370,0.00405
640.71353,0.00445
638.65336,0.00421
636.59318,0.00379
634.53301,0.00362
632.47284,0.00331
630.41267,0.00278
628.35250,0.00274
626.29232,0.00362
624.23215,0.00427
622.17198,0.00390
620.11181,0.00227
618.05164,0.00032
615.99146,0.00000
613.93129,0.00023
611.87112,-0.00001
609.81095,-0.00000
607.75077,0.00039
605.69060,0.00089
603.63043,0.00106
601.57026,0.00051
599.51009,0.00000
