3996.73391,-0.00063
3994.67373,-0.00080
3992.61356,-0.00083
3990.55339,-0.00069
3988.49322,-0.00057
3986.43305,-0.00040
3984.37287,-0.00014
3982.31270,-0.00010
3980.25253,-0.00033
3978.19236,-0.00058
3976.13219,-0.00071
3974.07201,-0.00058
3972.01184,-0.00025
3969.95167,0.00004
3967.89150,0.00030
3965.83133,0.00052
3963.77115,0.00056
3961.71098,0.00038
3959.65081,0.00022
3957.59064,0.00022
3955.53046,0.00045
3953.47029,0.00074
3951.41012,0.00072
3949.34995,0.00032
3947.28978,0.00000
3945.22960,-0.00000
3943.16943,0.00011
3941.10926,0.00034
3939.04909,0.00071
3936.98892,0.00089
3934.92874,0.00072
3932.86857,0.00061
3930.80840,0.00085
3928.74823,0.00113
3926.68805,0.00113
3924.62788,0.00087
3922.56771,0.00039
3920.50754,0.00000
3918.44737,0.00008
3916.38719,0.00077
3914.32702,0.00151
3912.26685,0.00172
3910.20668,0.00153
3908.14651,0.00130
3906.08633,0.00102
3904.02616,0.00065
3901.96599,0.00064
3899.90582,0.00116
3897.84565,0.00148
3895.78547,0.00137
3893.72530,0.00121
3891.66513,0.00123
3889.60496,0.00123
3887.54478,0.00102
3885.48461,0.00075
3883.42444,0.00055
3881.36427,0.00060
3879.30410,0.00102
3877.24392,0.00140
3875.18375,0.00142
3873.12358,0.00119
3871.06341,0.00100
3869.00324,0.00102
3866.94306,0.00107
3864.88289,0.00107
3862.82272,0.00109
3860.76255,0.00097
3858.70237,0.00057
3856.64220,0.00000
3854.58203,0.00013
3852.52186,0.00135
3850.46169,0.00229
3848.40151,0.00211
3846.34134,0.00168
3844.28117,0.00161
3842.22100,0.00159
3840.16083,0.00128
3838.10065,0.00100
3836.04048,0.00129
3833.98031,0.00188
3831.92014,0.00237
3829.85997,0.00260
3827.79979,0.00249
3825.73962,0.00212
3823.67945,0.00181
3821.61928,0.00178
3819.55910,0.00176
3817.49893,0.00192
3815.43876,0.00238
3813.37859,0.00261
3811.31842,0.00244
3809.25824,0.00221
3807.19807,0.00208
3805.13790,0.00213
3803.07773,0.00238
3801.01756,0.00260
3798.95738,0.00257
3796.89721,0.00264
3794.83704,0.00306
3792.77687,0.00333
3790.71670,0.00326
3788.65652,0.00320
3786.59635,0.00335
3784.53618,0.00354
3782.47601,0.00371
3780.41583,0.00403
3778.35566,0.00433
3776.29549,0.00424
3774.23532,0.00385
3772.17515,0.00347
3770.11497,0.00319
3768.05480,0.00293
3765.99463,0.00276
3763.93446,0.00267
3761.87429,0.00250
3759.81411,0.00221
3757.75394,0.00191
3755.69377,0.00176
3753.63360,0.00163
3751.57342,0.00127
3749.51325,0.00084
3747.45308,0.00062
3745.39291,0.00036
3743.33274,0.00071
3741.27256,0.00141
3739.21239,0.00160
3737.15222,0.00149
3735.09205,0.00144
3733.03188,0.00175
3730.97170,0.00220
3728.91153,0.00223
3726.85136,0.00197
3724.79119,0.00206
3722.73102,0.00258
3720.67084,0.00304
3718.61067,0.00302
3716.55050,0.00284
3714.49033,0.00297
3712.43015,0.00346
3710.36998,0.00382
3708.30981,0.00382
3706.24964,0.00385
3704.18947,0.00402
3702.12929,0.00419
3700.06912,0.00421
3698.00895,0.00419
3695.94878,0.00433
3693.88861,0.00465
3691.82843,0.00503
3689.76826,0.00504
3687.70809,0.00471
3685.64792,0.00457
3683.58775,0.00464
3681.52757,0.00462
3679.46740,0.00439
3677.40723,0.00437
3675.34706,0.00480
3673.28688,0.00498
3671.22671,0.00500
3669.16654,0.00529
3667.10637,0.00541
3665.04620,0.00526
3662.98602,0.00517
3660.92585,0.00507
3658.86568,0.00489
3656.80551,0.00476
3654.74534,0.00484
3652.68516,0.00514
3650.62499,0.00560
3648.56482,0.00596
3646.50465,0.00616
3644.44447,0.00595
3642.38430,0.00585
3640.32413,0.00603
3638.26396,0.00600
3636.20379,0.00579
3634.14361,0.00581
3632.08344,0.00618
3630.02327,0.00685
3627.96310,0.00750
3625.90293,0.00753
3623.84275,0.00725
3621.78258,0.00721
3619.72241,0.00739
3617.66224,0.00745
3615.60207,0.00736
3613.54189,0.00724
3611.48172,0.00708
3609.42155,0.00721
3607.36138,0.00771
3605.30120,0.00813
3603.24103,0.00840
3601.18086,0.00880
3599.12069,0.00929
3597.06052,0.00954
3595.00034,0.00960
3592.94017,0.00964
3590.88000,0.00975
3588.81983,0.00990
3586.75966,0.01012
3584.69948,0.01037
3582.63931,0.01064
3580.57914,0.01098
3578.51897,0.01130
3576.45879,0.01150
3574.39862,0.01159
3572.33845,0.01170
3570.27828,0.01190
3568.21811,0.01217
3566.15793,0.01259
3564.09776,0.01298
3562.03759,0.01309
3559.97742,0.01316
3557.91725,0.01330
3555.85707,0.01338
3553.79690,0.01338
3551.73673,0.01336
3549.67656,0.01336
3547.61639,0.01323
3545.55621,0.01311
3543.49604,0.01337
3541.43587,0.01396
3539.37570,0.01452
3537.31552,0.01488
3535.25535,0.01507
3533.19518,0.01520
3531.13501,0.01540
3529.07484,0.01569
3527.01466,0.01580
3524.95449,0.01579
3522.89432,0.01606
3520.83415,0.01649
3518.77398,0.01664
3516.71380,0.01666
3514.65363,0.01689
3512.59346,0.01724
3510.53329,0.01734
3508.47312,0.01716
3506.41294,0.01688
3504.35277,0.01672
3502.29260,0.01690
3500.23243,0.01752
3498.17225,0.01814
3496.11208,0.01840
3494.05191,0.01842
3491.99174,0.01850
3489.93157,0.01876
3487.87139,0.01906
3485.81122,0.01924
3483.75105,0.01934
3481.69088,0.01939
3479.63071,0.01943
3477.57053,0.01965
3475.51036,0.01998
3473.45019,0.02005
3471.39002,0.01989
3469.32984,0.01985
3467.26967,0.02005
3465.20950,0.02036
3463.14933,0.02050
3461.08916,0.02053
3459.02898,0.02073
3456.96881,0.02101
3454.90864,0.02119
3452.84847,0.02136
3450.78830,0.02143
3448.72812,0.02126
3446.66795,0.02107
3444.60778,0.02109
3442.54761,0.02122
3440.48744,0.02134
3438.42726,0.02156
3436.36709,0.02180
3434.30692,0.02186
3432.24675,0.02185
3430.18657,0.02204
3428.12640,0.02232
3426.06623,0.02229
3424.00606,0.02201
3421.94589,0.02198
3419.88571,0.02225
3417.82554,0.02257
3415.76537,0.02280
3413.70520,0.02304
3411.64503,0.02326
3409.58485,0.02323
3407.52468,0.02302
3405.46451,0.02287
3403.40434,0.02282
3401.34416,0.02281
3399.28399,0.02237
3397.22382,0.02259
3395.16365,0.02278
3393.10348,0.02276
3391.04330,0.02287
3388.98313,0.02313
3386.92296,0.02338
3384.86279,0.02357
3382.80262,0.02370
3380.74244,0.02381
3378.68227,0.02396
3376.62210,0.02403
3374.56193,0.02403
3372.50176,0.02416
3370.44158,0.02437
3368.38141,0.02431
3366.32124,0.02410
3364.26107,0.02413
3362.20089,0.02430
3360.14072,0.02436
3358.08055,0.02438
3356.02038,0.02441
3353.96021,0.02440
3351.90003,0.02438
3349.83986,0.02432
3347.77969,0.02428
3345.71952,0.02424
3343.65935,0.02429
3341.59917,0.02442
3339.53900,0.02441
3337.47883,0.02435
3335.41866,0.02449
3333.35849,0.02463
3331.29831,0.02475
3329.23814,0.02504
3327.17797,0.02522
3325.11780,0.02505
3323.05762,0.02486
3320.99745,0.02493
3318.93728,0.02510
3316.87711,0.02510
3314.81694,0.02486
3312.75676,0.02444
3310.69659,0.02414
3308.63642,0.02422
3306.57625,0.02456
3304.51608,0.02486
3302.45590,0.02501
3300.39573,0.02497
3298.33556,0.02484
3296.27539,0.02469
3294.21521,0.02454
3292.15504,0.02452
3290.09487,0.02472
3288.03470,0.02494
3285.97453,0.02500
3283.91435,0.02493
3281.85418,0.02501
3279.79401,0.02514
3277.73384,0.02513
3275.67367,0.02507
3273.61349,0.02503
3271.55332,0.02491
3269.49315,0.02481
3267.43298,0.02487
3265.37281,0.02505
3263.31263,0.02512
3261.25246,0.02507
3259.19229,0.02512
3257.13212,0.02526
3255.07194,0.02521
3253.01177,0.02502
3250.95160,0.02487
3248.89143,0.02485
3246.83126,0.02496
3244.77108,0.02516
3242.71091,0.02530
3240.65074,0.02520
3238.59057,0.02498
3236.53040,0.02485
3234.47022,0.02487
3232.41005,0.02500
3230.34988,0.02510
3228.28971,0.02505
3226.22954,0.02503
3224.16936,0.02509
3222.10919,0.02497
3220.04902,0.02468
3217.98885,0.02456
3215.92867,0.02471
3213.86850,0.02490
3211.80833,0.02492
3209.74816,0.02481
3207.68799,0.02476
3205.62781,0.02487
3203.56764,0.02507
3201.50747,0.02512
3199.44730,0.02502
3197.38713,0.02493
3195.32695,0.02484
3193.26678,0.02474
3191.20661,0.02475
3189.14644,0.02481
3187.08626,0.02474
3185.02609,0.02457
3182.96592,0.02451
3180.90575,0.02453
3178.84558,0.02450
3176.78540,0.02459
3174.72523,0.02478
3172.66506,0.02478
3170.60489,0.02466
3168.54472,0.02458
3166.48454,0.02456
3164.42437,0.02457
3162.36420,0.02450
3160.30403,0.02442
3158.24386,0.02449
3156.18368,0.02457
3154.12351,0.02440
3152.06334,0.02423
3150.00317,0.02427
3147.94299,0.02431
3145.88282,0.02425
3143.82265,0.02425
3141.76248,0.02428
3139.70231,0.02424
3137.64213,0.02414
3135.58196,0.02398
3133.52179,0.02380
3131.46162,0.02380
3129.40145,0.02391
3127.34127,0.02385
3125.28110,0.02366
3123.22093,0.02353
3121.16076,0.02347
3119.10058,0.02338
3117.04041,0.02324
3114.98024,0.02320
3112.92007,0.02337
3110.85990,0.02359
3108.79972,0.02362
3106.73955,0.02349
3104.67938,0.02320
3102.61921,0.02292
3100.55904,0.02293
3098.49886,0.02315
3096.43869,0.02322
3094.37852,0.02308
3092.31835,0.02295
3090.25818,0.02285
3088.19800,0.02283
3086.13783,0.02291
3084.07766,0.02294
3082.01749,0.02279
3079.95731,0.02270
3077.89714,0.02276
3075.83697,0.02281
3073.77680,0.02276
3071.71663,0.02269
3069.65645,0.02263
3067.59628,0.02246
3065.53611,0.02232
3063.47594,0.02236
3061.41577,0.02243
3059.35559,0.02232
3057.29542,0.02217
3055.23525,0.02211
3053.17508,0.02205
3051.11491,0.02191
3049.05473,0.02182
3046.99456,0.02183
3044.93439,0.02179
3042.87422,0.02172
3040.81404,0.02171
3038.75387,0.02171
3036.69370,0.02172
3034.63353,0.02168
3032.57336,0.02157
3030.51318,0.02148
3028.45301,0.02150
3026.39284,0.02159
3024.33267,0.02157
3022.27250,0.02144
3020.21232,0.02135
3018.15215,0.02123
3016.09198,0.02099
3014.03181,0.02074
3011.97163,0.02059
3009.91146,0.02049
3007.85129,0.02045
3005.79112,0.02042
3003.73095,0.02038
3001.67077,0.02041
2999.61060,0.02051
2997.55043,0.02042
2995.49026,0.02026
2993.43009,0.02017
2991.36991,0.02022
2989.30974,0.02022
2987.24957,0.02010
2985.18940,0.02009
2983.12923,0.02024
2981.06905,0.02037
2979.00888,0.02042
2976.94871,0.02043
2974.88854,0.02032
2972.82836,0.02017
2970.76819,0.02012
2968.70802,0.02010
2966.64785,0.02006
2964.58768,0.02012
2962.52750,0.02018
2960.46733,0.02014
2958.40716,0.02014
2956.34699,0.02024
2954.28682,0.02028
2952.22664,0.02022
2950.16647,0.02003
2948.10630,0.01976
2946.04613,0.01961
2943.98596,0.01961
2941.92578,0.01955
2939.86561,0.01941
2937.80544,0.01941
2935.74527,0.01951
2933.68509,0.01964
2931.62492,0.01973
2929.56475,0.01963
2927.50458,0.01953
2925.44441,0.01952
2923.38423,0.01950
2921.32406,0.01952
2919.26389,0.01958
2917.20372,0.01962
2915.14355,0.01966
2913.08337,0.01951
2911.02320,0.01927
2908.96303,0.01915
2906.90286,0.01904
2904.84268,0.01891
2902.78251,0.01881
2900.72234,0.01875
2898.66217,0.01886
2896.60200,0.01901
2894.54182,0.01901
2892.48165,0.01891
2890.42148,0.01892
2888.36131,0.01900
2886.30114,0.01897
2884.24096,0.01890
2882.18079,0.01889
2880.12062,0.01885
2878.06045,0.01868
2876.00028,0.01847
2873.94010,0.01834
2871.87993,0.01833
2869.81976,0.01834
2867.75959,0.01834
2865.69941,0.01830
2863.63924,0.01825
2861.57907,0.01822
2859.51890,0.01819
2857.45873,0.01810
2855.39855,0.01802
2853.33838,0.01798
2851.27821,0.01796
2849.21804,0.01804
2847.15787,0.01811
2845.09769,0.01806
2843.03752,0.01794
2840.97735,0.01783
2838.91718,0.01765
2836.85700,0.01751
2834.79683,0.01754
2832.73666,0.01759
2830.67649,0.01757
2828.61632,0.01748
2826.55614,0.01743
2824.49597,0.01741
2822.43580,0.01730
2820.37563,0.01710
2818.31546,0.01704
2816.25528,0.01713
2814.19511,0.01723
2812.13494,0.01728
2810.07477,0.01725
2808.01460,0.01708
2805.95442,0.01691
2803.89425,0.01681
2801.83408,0.01684
2799.77391,0.01695
2797.71373,0.01700
2795.65356,0.01693
2793.59339,0.01687
2791.53322,0.01686
2789.47305,0.01683
2787.41287,0.01680
2785.35270,0.01676
2783.29253,0.01673
2781.23236,0.01674
2779.17219,0.01676
2777.11201,0.01673
2775.05184,0.01659
2772.99167,0.01645
2770.93150,0.01643
2768.87133,0.01649
2766.81115,0.01655
2764.75098,0.01657
2762.69081,0.01646
2760.63064,0.01626
2758.57046,0.01617
2756.51029,0.01626
2754.45012,0.01643
2752.38995,0.01659
2750.32978,0.01663
2748.26960,0.01651
2746.20943,0.01634
2744.14926,0.01622
2742.08909,0.01614
2740.02892,0.01607
2737.96874,0.01602
2735.90857,0.01599
2733.84840,0.01598
2731.78823,0.01599
2729.72805,0.01607
2727.66788,0.01610
2725.60771,0.01603
2723.54754,0.01592
2721.48737,0.01587
2719.42719,0.01592
2717.36702,0.01601
2715.30685,0.01603
2713.24668,0.01591
2711.18651,0.01574
2709.12633,0.01565
2707.06616,0.01559
2705.00599,0.01558
2702.94582,0.01559
2700.88565,0.01556
2698.82547,0.01553
2696.76530,0.01552
2694.70513,0.01558
2692.64496,0.01561
2690.58478,0.01547
2688.52461,0.01532
2686.46444,0.01530
2684.40427,0.01533
2682.34410,0.01531
2680.28392,0.01531
2678.22375,0.01538
2676.16358,0.01539
2674.10341,0.01528
2672.04324,0.01522
2669.98306,0.01518
2667.92289,0.01516
2665.86272,0.01520
2663.80255,0.01526
2661.74238,0.01534
2659.68220,0.01534
2657.62203,0.01523
2655.56186,0.01514
2653.50169,0.01516
2651.44151,0.01520
2649.38134,0.01520
2647.32117,0.01520
2645.26100,0.01515
2643.20083,0.01497
2641.14065,0.01477
2639.08048,0.01467
2637.02031,0.01476
2634.96014,0.01490
2632.89997,0.01492
2630.83979,0.01485
2628.77962,0.01474
2626.71945,0.01467
2624.65928,0.01470
2622.59910,0.01468
2620.53893,0.01458
2618.47876,0.01454
2616.41859,0.01463
2614.35842,0.01470
2612.29824,0.01464
2610.23807,0.01453
2608.17790,0.01439
2606.11773,0.01428
2604.05756,0.01427
2601.99738,0.01443
2599.93721,0.01466
2597.87704,0.01467
2595.81687,0.01445
2593.75670,0.01427
2591.69652,0.01419
2589.63635,0.01417
2587.57618,0.01427
2585.51601,0.01429
2583.45583,0.01420
2581.39566,0.01427
2579.33549,0.01440
2577.27532,0.01435
2575.21515,0.01423
2573.15497,0.01410
2571.09480,0.01394
2569.03463,0.01401
2566.97446,0.01430
2564.91429,0.01443
2562.85411,0.01435
2560.79394,0.01438
2558.73377,0.01441
2556.67360,0.01421
2554.61342,0.01403
2552.55325,0.01409
2550.49308,0.01431
2548.43291,0.01437
2546.37274,0.01421
2544.31256,0.01415
2542.25239,0.01424
2540.19222,0.01424
2538.13205,0.01408
2536.07188,0.01403
2534.01170,0.01423
2531.95153,0.01444
2529.89136,0.01450
2527.83119,0.01449
2525.77102,0.01439
2523.71084,0.01418
2521.65067,0.01404
2519.59050,0.01416
2517.53033,0.01442
2515.47015,0.01447
2513.40998,0.01441
2511.34981,0.01444
2509.28964,0.01447
2507.22947,0.01450
2505.16929,0.01453
2503.10912,0.01453
2501.04895,0.01438
2498.98878,0.01401
2496.92861,0.01380
2494.86843,0.01410
2492.80826,0.01445
2490.74809,0.01451
2488.68792,0.01450
2486.62775,0.01446
2484.56757,0.01435
2482.50740,0.01428
2480.44723,0.01429
2478.38706,0.01437
2476.32688,0.01449
2474.26671,0.01464
2472.20654,0.01474
2470.14637,0.01467
2468.08620,0.01451
2466.02602,0.01447
2463.96585,0.01468
2461.90568,0.01502
2459.84551,0.01523
2457.78534,0.01511
2455.72516,0.01481
2453.66499,0.01461
2451.60482,0.01438
2449.54465,0.01418
2447.48447,0.01425
2445.42430,0.01446
2443.36413,0.01462
2441.30396,0.01477
2439.24379,0.01499
2437.18361,0.01501
2435.12344,0.01481
2433.06327,0.01463
2431.00310,0.01444
2428.94293,0.01448
2426.88275,0.01483
2424.82258,0.01496
2422.76241,0.01479
2420.70224,0.01453
2418.64207,0.01431
2416.58189,0.01436
2414.52172,0.01459
2412.46155,0.01453
2410.40138,0.01423
2408.34120,0.01412
2406.28103,0.01422
2404.22086,0.01434
2402.16069,0.01451
2400.10052,0.01465
2398.04034,0.01477
2395.98017,0.01470
2393.92000,0.01462
2391.85983,0.01453
2389.79966,0.01438
2387.73948,0.01422
2385.67931,0.01404
2383.61914,0.01377
2381.55897,0.01349
2379.49880,0.01333
2377.43862,0.01336
2375.37845,0.01325
2373.31828,0.01337
2371.25811,0.01390
2369.19793,0.01459
2367.13776,0.01535
2365.07759,0.01555
2363.01742,0.01427
2360.95725,0.01393
2358.89707,0.01331
2356.83690,0.01313
2354.77673,0.01309
2352.71656,0.01325
2350.65639,0.01474
2348.59621,0.01567
2346.53604,0.01303
2344.47587,0.01314
2342.41570,0.01426
2340.35552,0.01465
2338.29535,0.01463
2336.23518,0.01446
2334.17501,0.01442
2332.11484,0.01433
2330.05466,0.01416
2327.99449,0.01344
2325.93432,0.01349
2323.87415,0.01315
2321.81398,0.01323
2319.75380,0.01314
2317.69363,0.01363
2315.63346,0.01344
2313.57329,0.01290
2311.51312,0.01295
2309.45294,0.01330
2307.39277,0.01357
2305.33260,0.01372
2303.27243,0.01390
2301.21225,0.01393
2299.15208,0.01391
2297.09191,0.01385
2295.03174,0.01385
2292.97157,0.01408
2290.91139,0.01447
2288.85122,0.01486
2286.79105,0.01499
2284.73088,0.01481
2282.67071,0.01473
2280.61053,0.01490
2278.55036,0.01495
2276.49019,0.01489
2274.43002,0.01486
2272.36984,0.01468
2270.30967,0.01451
2268.24950,0.01465
2266.18933,0.01499
2264.12916,0.01522
2262.06898,0.01511
2260.00881,0.01469
2257.94864,0.01422
2255.88847,0.01386
2253.82830,0.01380
2251.76812,0.01385
2249.70795,0.01388
2247.64778,0.01405
2245.58761,0.01437
2243.52744,0.01428
2241.46726,0.01394
2239.40709,0.01386
2237.34692,0.01395
2235.28675,0.01401
2233.22657,0.01424
2231.16640,0.01483
2229.10623,0.01524
2227.04606,0.01495
2224.98589,0.01445
2222.92571,0.01410
2220.86554,0.01389
2218.80537,0.01412
2216.74520,0.01429
2214.68503,0.01402
2212.62485,0.01403
2210.56468,0.01430
2208.50451,0.01404
2206.44434,0.01358
2204.38417,0.01387
2202.32399,0.01447
2200.26382,0.01397
2198.20365,0.01307
2196.14348,0.01339
2194.08330,0.01406
2192.02313,0.01424
2189.96296,0.01432
2187.90279,0.01408
2185.84262,0.01340
2183.78244,0.01299
2181.72227,0.01319
2179.66210,0.01360
2177.60193,0.01416
2175.54176,0.01442
2173.48158,0.01431
2171.42141,0.01445
2169.36124,0.01457
2167.30107,0.01447
2165.24089,0.01486
2163.18072,0.01550
2161.12055,0.01475
2159.06038,0.01279
2157.00021,0.01191
2154.94003,0.01238
2152.87986,0.01345
2150.81969,0.01433
2148.75952,0.01374
2146.69935,0.01239
2144.63917,0.01210
2142.57900,0.01275
2140.51883,0.01333
2138.45866,0.01342
2136.39849,0.01302
2134.33831,0.01270
2132.27814,0.01272
2130.21797,0.01282
2128.15780,0.01318
2126.09762,0.01354
2124.03745,0.01349
2121.97728,0.01357
2119.91711,0.01393
2117.85694,0.01398
2115.79676,0.01371
2113.73659,0.01372
2111.67642,0.01401
2109.61625,0.01394
2107.55608,0.01351
2105.49590,0.01307
2103.43573,0.01290
2101.37556,0.01311
2099.31539,0.01374
2097.25521,0.01405
2095.19504,0.01403
2093.13487,0.01356
2091.07470,0.01308
2089.01453,0.01307
2086.95435,0.01322
2084.89418,0.01341
2082.83401,0.01393
2080.77384,0.01453
2078.71367,0.01463
2076.65349,0.01430
2074.59332,0.01410
2072.53315,0.01408
2070.47298,0.01411
2068.41281,0.01430
2066.35263,0.01427
2064.29246,0.01359
2062.23229,0.01270
2060.17212,0.01222
2058.11194,0.01233
2056.05177,0.01300
2053.99160,0.01398
2051.93143,0.01459
2049.87126,0.01471
2047.81108,0.01516
2045.75091,0.01594
2043.69074,0.01611
2041.63057,0.01562
2039.57040,0.01506
2037.51022,0.01469
2035.45005,0.01439
2033.38988,0.01377
2031.32971,0.01293
2029.26954,0.01277
2027.20936,0.01355
2025.14919,0.01439
2023.08902,0.01485
2021.02885,0.01537
2018.96867,0.01561
2016.90850,0.01494
2014.84833,0.01400
2012.78816,0.01373
2010.72799,0.01437
2008.66781,0.01557
2006.60764,0.01616
2004.54747,0.01538
2002.48730,0.01415
2000.42713,0.01344
1998.36695,0.01305
1996.30678,0.01255
1994.24661,0.01222
1992.18644,0.01233
1990.12626,0.01245
1988.06609,0.01244
1986.00592,0.01270
1983.94575,0.01340
1981.88558,0.01446
1979.82540,0.01523
1977.76523,0.01514
1975.70506,0.01457
1973.64489,0.01441
1971.58472,0.01519
1969.52454,0.01587
1967.46437,0.01547
1965.40420,0.01439
1963.34403,0.01343
1961.28386,0.01304
1959.22368,0.01315
1957.16351,0.01323
1955.10334,0.01305
1953.04317,0.01300
1950.98299,0.01324
1948.92282,0.01356
1946.86265,0.01371
1944.80248,0.01374
1942.74231,0.01380
1940.68213,0.01377
1938.62196,0.01369
1936.56179,0.01378
1934.50162,0.01387
1932.44145,0.01357
1930.38127,0.01320
1928.32110,0.01319
1926.26093,0.01306
1924.20076,0.01267
1922.14059,0.01259
1920.08041,0.01283
1918.02024,0.01295
1915.96007,0.01303
1913.89990,0.01332
1911.83972,0.01357
1909.77955,0.01355
1907.71938,0.01346
1905.65921,0.01346
1903.59904,0.01349
1901.53886,0.01345
1899.47869,0.01329
1897.41852,0.01310
1895.35835,0.01290
1893.29818,0.01268
1891.23800,0.01269
1889.17783,0.01294
1887.11766,0.01303
1885.05749,0.01281
1882.99731,0.01260
1880.93714,0.01272
1878.87697,0.01311
1876.81680,0.01344
1874.75663,0.01352
1872.69645,0.01347
1870.63628,0.01354
1868.57611,0.01367
1866.51594,0.01362
1864.45577,0.01347
1862.39559,0.01329
1860.33542,0.01310
1858.27525,0.01299
1856.21508,0.01300
1854.15491,0.01295
1852.09473,0.01277
1850.03456,0.01259
1847.97439,0.01237
1845.91422,0.01202
1843.85404,0.01180
1841.79387,0.01208
1839.73370,0.01256
1837.67353,0.01276
1835.61336,0.01263
1833.55318,0.01260
1831.49301,0.01293
1829.43284,0.01329
1827.37267,0.01336
1825.31250,0.01330
1823.25232,0.01323
1821.19215,0.01315
1819.13198,0.01303
1817.07181,0.01293
1815.01163,0.01294
1812.95146,0.01292
1810.89129,0.01266
1808.83112,0.01234
1806.77095,0.01227
1804.71077,0.01236
1802.65060,0.01240
1800.59043,0.01246
1798.53026,0.01249
1796.47009,0.01247
1794.40991,0.01262
1792.34974,0.01277
1790.28957,0.01255
1788.22940,0.01215
1786.16923,0.01196
1784.10905,0.01214
1782.04888,0.01254
1779.98871,0.01265
1777.92854,0.01248
1775.86836,0.01259
1773.80819,0.01305
1771.74802,0.01317
1769.68785,0.01269
1767.62768,0.01228
1765.56750,0.01232
1763.50733,0.01255
1761.44716,0.01259
1759.38699,0.01246
1757.32682,0.01247
1755.26664,0.01257
1753.20647,0.01262
1751.14630,0.01268
1749.08613,0.01275
1747.02596,0.01276
1744.96578,0.01283
1742.90561,0.01309
1740.84544,0.01337
1738.78527,0.01347
1736.72509,0.01355
1734.66492,0.01378
1732.60475,0.01388
1730.54458,0.01382
1728.48441,0.01363
1726.42423,0.01343
1724.36406,0.01334
1722.30389,0.01350
1720.24372,0.01404
1718.18355,0.01442
1716.12337,0.01393
1714.06320,0.01334
1712.00303,0.01311
1709.94286,0.01320
1707.88268,0.01348
1705.82251,0.01363
1703.76234,0.01372
1701.70217,0.01417
1699.64200,0.01464
1697.58182,0.01461
1695.52165,0.01439
1693.46148,0.01433
1691.40131,0.01449
1689.34114,0.01498
1687.28096,0.01585
1685.22079,0.01693
1683.16062,0.01730
1681.10045,0.01699
1679.04028,0.01693
1676.98010,0.01746
1674.91993,0.01826
1672.85976,0.01892
1670.79959,0.01939
1668.73941,0.01953
1666.67924,0.01945
1664.61907,0.01957
1662.55890,0.01973
1660.49873,0.01954
1658.43855,0.01943
1656.37838,0.01992
1654.31821,0.02069
1652.25804,0.02071
1650.19787,0.02043
1648.13769,0.02039
1646.07752,0.02031
1644.01735,0.01991
1641.95718,0.01975
1639.89701,0.02016
1637.83683,0.02083
1635.77666,0.02095
1633.71649,0.02044
1631.65632,0.02003
1629.59614,0.01997
1627.53597,0.02008
1625.47580,0.02017
1623.41563,0.02003
1621.35546,0.01967
1619.29528,0.01962
1617.23511,0.01986
1615.17494,0.01962
1613.11477,0.01906
1611.05460,0.01882
1608.99442,0.01884
1606.93425,0.01884
1604.87408,0.01887
1602.81391,0.01883
1600.75373,0.01867
1598.69356,0.01855
1596.63339,0.01851
1594.57322,0.01835
1592.51305,0.01809
1590.45287,0.01784
1588.39270,0.01766
1586.33253,0.01754
1584.27236,0.01740
1582.21219,0.01717
1580.15201,0.01713
1578.09184,0.01734
1576.03167,0.01715
1573.97150,0.01644
1571.91133,0.01606
1569.85115,0.01598
1567.79098,0.01562
1565.73081,0.01515
1563.67064,0.01512
1561.61046,0.01578
1559.55029,0.01623
1557.49012,0.01513
1555.42995,0.01401
1553.36978,0.01354
1551.30960,0.01339
1549.24943,0.01325
1547.18926,0.01320
1545.12909,0.01357
1543.06892,0.01434
1541.00874,0.01489
1538.94857,0.01422
1536.88840,0.01320
1534.82823,0.01283
1532.76805,0.01282
1530.70788,0.01259
1528.64771,0.01240
1526.58754,0.01226
1524.52737,0.01214
1522.46719,0.01209
1520.40702,0.01192
1518.34685,0.01181
1516.28668,0.01160
1514.22651,0.01113
1512.16633,0.01087
1510.10616,0.01123
1508.04599,0.01189
1505.98582,0.01202
1503.92565,0.01155
1501.86547,0.01118
1499.80530,0.01141
1497.74513,0.01192
1495.68496,0.01210
1493.62478,0.01221
1491.56461,0.01254
1489.50444,0.01268
1487.44427,0.01243
1485.38410,0.01218
1483.32392,0.01211
1481.26375,0.01215
1479.20358,0.01230
1477.14341,0.01258
1475.08324,0.01292
1473.02306,0.01305
1470.96289,0.01280
1468.90272,0.01253
1466.84255,0.01263
1464.78238,0.01277
1462.72220,0.01267
1460.66203,0.01287
1458.60186,0.01326
1456.54169,0.01297
1454.48151,0.01244
1452.42134,0.01233
1450.36117,0.01269
1448.30100,0.01319
1446.24083,0.01345
1444.18065,0.01352
1442.12048,0.01357
1440.06031,0.01361
1438.00014,0.01360
1435.93997,0.01343
1433.87979,0.01335
1431.81962,0.01353
1429.75945,0.01377
1427.69928,0.01378
1425.63910,0.01377
1423.57893,0.01384
1421.51876,0.01381
1419.45859,0.01356
1417.39842,0.01337
1415.33824,0.01357
1413.27807,0.01394
1411.21790,0.01419
1409.15773,0.01430
1407.09756,0.01439
1405.03738,0.01442
1402.97721,0.01434
1400.91704,0.01415
1398.85687,0.01384
1396.79670,0.01364
1394.73652,0.01370
1392.67635,0.01374
1390.61618,0.01372
1388.55601,0.01378
1386.49583,0.01390
1384.43566,0.01397
1382.37549,0.01393
1380.31532,0.01385
1378.25515,0.01389
1376.19497,0.01401
1374.13480,0.01392
1372.07463,0.01366
1370.01446,0.01359
1367.95429,0.01370
1365.89411,0.01375
1363.83394,0.01362
1361.77377,0.01336
1359.71360,0.01328
1357.65343,0.01337
1355.59325,0.01346
1353.53308,0.01346
1351.47291,0.01343
1349.41274,0.01339
1347.35256,0.01328
1345.29239,0.01314
1343.23222,0.01299
1341.17205,0.01275
1339.11188,0.01247
1337.05170,0.01250
1334.99153,0.01281
1332.93136,0.01303
1330.87119,0.01304
1328.81102,0.01298
1326.75084,0.01295
1324.69067,0.01289
1322.63050,0.01285
1320.57033,0.01286
1318.51015,0.01283
1316.44998,0.01276
1314.38981,0.01269
1312.32964,0.01262
1310.26947,0.01262
1308.20929,0.01266
1306.14912,0.01265
1304.08895,0.01270
1302.02878,0.01276
1299.96861,0.01274
1297.90843,0.01270
1295.84826,0.01278
1293.78809,0.01288
1291.72792,0.01283
1289.66775,0.01272
1287.60757,0.01271
1285.54740,0.01278
1283.48723,0.01285
1281.42706,0.01284
1279.36688,0.01280
1277.30671,0.01285
1275.24654,0.01292
1273.18637,0.01291
1271.12620,0.01288
1269.06602,0.01291
1267.00585,0.01293
1264.94568,0.01292
1262.88551,0.01297
1260.82534,0.01298
1258.76516,0.01294
1256.70499,0.01295
1254.64482,0.01297
1252.58465,0.01299
1250.52447,0.01300
1248.46430,0.01294
1246.40413,0.01280
1244.34396,0.01267
1242.28379,0.01266
1240.22361,0.01273
1238.16344,0.01276
1236.10327,0.01272
1234.04310,0.01256
1231.98293,0.01237
1229.92275,0.01225
1227.86258,0.01217
1225.80241,0.01214
1223.74224,0.01214
1221.68207,0.01205
1219.62189,0.01188
1217.56172,0.01175
1215.50155,0.01161
1213.44138,0.01149
1211.38120,0.01141
1209.32103,0.01131
1207.26086,0.01121
1205.20069,0.01122
1203.14052,0.01129
1201.08034,0.01118
1199.02017,0.01094
1196.96000,0.01094
1194.89983,0.01104
1192.83966,0.01099
1190.77948,0.01085
1188.71931,0.01076
1186.65914,0.01075
1184.59897,0.01085
1182.53880,0.01095
1180.47862,0.01105
1178.41845,0.01118
1176.35828,0.01118
1174.29811,0.01110
1172.23793,0.01117
1170.17776,0.01135
1168.11759,0.01145
1166.05742,0.01150
1163.99725,0.01163
1161.93707,0.01186
1159.87690,0.01211
1157.81673,0.01231
1155.75656,0.01238
1153.69639,0.01238
1151.63621,0.01250
1149.57604,0.01278
1147.51587,0.01305
1145.45570,0.01322
1143.39552,0.01336
1141.33535,0.01342
1139.27518,0.01353
1137.21501,0.01383
1135.15484,0.01423
1133.09466,0.01456
1131.03449,0.01487
1128.97432,0.01524
1126.91415,0.01562
1124.85398,0.01604
1122.79380,0.01656
1120.73363,0.01708
1118.67346,0.01748
1116.61329,0.01791
1114.55312,0.01848
1112.49294,0.01902
1110.43277,0.01950
1108.37260,0.02001
1106.31243,0.02060
1104.25225,0.02116
1102.19208,0.02168
1100.13191,0.02222
1098.07174,0.02265
1096.01157,0.02288
1093.95139,0.02313
1091.89122,0.02344
1089.83105,0.02382
1087.77088,0.02430
1085.71071,0.02464
1083.65053,0.02477
1081.59036,0.02493
1079.53019,0.02519
1077.47002,0.02556
1075.40985,0.02595
1073.34967,0.02626
1071.28950,0.02647
1069.22933,0.02657
1067.16916,0.02664
1065.10898,0.02663
1063.04881,0.02656
1060.98864,0.02652
1058.92847,0.02639
1056.86830,0.02611
1054.80812,0.02587
1052.74795,0.02574
1050.68778,0.02554
1048.62761,0.02513
1046.56744,0.02473
1044.50726,0.02450
1042.44709,0.02412
1040.38692,0.02344
1038.32675,0.02267
1036.26657,0.02186
1034.20640,0.02097
1032.14623,0.02014
1030.08606,0.01953
1028.02589,0.01898
1025.96571,0.01833
1023.90554,0.01774
1021.84537,0.01730
1019.78520,0.01685
1017.72503,0.01639
1015.66485,0.01611
1013.60468,0.01606
1011.54451,0.01605
1009.48434,0.01609
1007.42417,0.01622
1005.36399,0.01634
1003.30382,0.01651
1001.24365,0.01682
999.18348,0.01720
997.12330,0.01758
995.06313,0.01790
993.00296,0.01812
990.94279,0.01833
988.88262,0.01868
986.82244,0.01907
984.76227,0.01935
982.70210,0.01947
980.64193,0.01950
978.58176,0.01941
976.52158,0.01923
974.46141,0.01912
972.40124,0.01901
970.34107,0.01861
968.28089,0.01786
966.22072,0.01709
964.16055,0.01651
962.10038,0.01610
960.04021,0.01572
957.98003,0.01533
955.91986,0.01493
953.85969,0.01447
951.79952,0.01392
949.73935,0.01336
947.67917,0.01295
945.61900,0.01263
943.55883,0.01222
941.49866,0.01185
939.43849,0.01151
937.37831,0.01107
935.31814,0.01068
933.25797,0.01037
931.19780,0.01011
929.13762,0.00997
927.07745,0.00983
925.01728,0.00974
922.95711,0.00979
920.89694,0.00975
918.83676,0.00960
916.77659,0.00943
914.71642,0.00914
912.65625,0.00883
910.59608,0.00871
908.53590,0.00851
906.47573,0.00821
904.41556,0.00815
902.35539,0.00838
900.29522,0.00859
898.23504,0.00851
896.17487,0.00837
894.11470,0.00849
892.05453,0.00879
889.99435,0.00904
887.93418,0.00918
885.87401,0.00936
883.81384,0.00963
881.75367,0.00974
879.69349,0.00967
877.63332,0.00967
875.57315,0.00987
873.51298,0.01023
871.45281,0.01059
869.39263,0.01081
867.33246,0.01086
865.27229,0.01086
863.21212,0.01094
861.15194,0.01101
859.09177,0.01105
857.03160,0.01114
854.97143,0.01109
852.91126,0.01106
850.85108,0.01121
848.79091,0.01115
846.73074,0.01091
844.67057,0.01099
842.61040,0.01118
840.55022,0.01114
838.49005,0.01085
836.42988,0.01035
834.36971,0.00987
832.30954,0.00955
830.24936,0.00940
828.18919,0.00944
826.12902,0.00942
824.06885,0.00931
822.00867,0.00929
819.94850,0.00917
817.88833,0.00883
815.82816,0.00859
813.76799,0.00863
811.70781,0.00858
809.64764,0.00827
807.58747,0.00815
805.52730,0.00829
803.46713,0.00832
801.40695,0.00817
799.34678,0.00800
797.28661,0.00787
795.22644,0.00774
793.16627,0.00751
791.10609,0.00719
789.04592,0.00695
786.98575,0.00700
784.92558,0.00714
782.86540,0.00709
780.80523,0.00701
778.74506,0.00705
776.68489,0.00718
774.62472,0.00718
772.56454,0.00707
770.50437,0.00718
768.44420,0.00711
766.38403,0.00667
764.32386,0.00665
762.26368,0.00700
760.20351,0.00705
758.14334,0.00689
756.08317,0.00672
754.02299,0.00655
751.96282,0.00643
749.90265,0.00647
747.84248,0.00648
745.78231,0.00627
743.72213,0.00595
741.66196,0.00546
739.60179,0.00499
737.54162,0.00497
735.48145,0.00524
733.42127,0.00545
731.36110,0.00556
729.30093,0.00546
727.24076,0.00537
725.18059,0.00553
723.12041,0.00571
721.06024,0.00549
719.00007,0.00591
716.93990,0.00622
714.87972,0.00611
712.81955,0.00584
710.75938,0.00553
708.69921,0.00516
706.63904,0.00496
704.57886,0.00525
702.51869,0.00583
700.45852,0.00611
698.39835,0.00568
696.33818,0.00493
694.27800,0.00471
692.21783,0.00514
690.15766,0.00549
688.09749,0.00543
686.03731,0.00540
683.97714,0.00570
681.91697,0.00591
679.85680,0.00560
677.79663,0.00495
675.73645,0.00452
673.67628,0.00521
671.61611,0.00765
669.55594,0.00634
667.49577,0.00122
665.43559,0.00753
663.37542,0.00613
661.31525,0.00434
659.25508,0.00404
657.19491,0.00366
655.13473,0.00312
653.07456,0.00304
651.01439,0.00323
648.95422,0.00310
646.89404,0.00300
644.83387,0.00295
642.77370,0.00326
640.71353,0.00352
638.65336,0.00324
636.59318,0.00269
634.53301,0.00235
632.47284,0.00222
630.41267,0.00219
628.35250,0.00219
626.29232,0.00229
624.23215,0.00235
622.17198,0.00247
620.11181,0.00247
618.05164,0.00205
615.99146,0.00185
613.93129,0.00126
611.87112,0.00014
609.81095,0.00000
607.75077,0.00019
605.69060,0.00003
603.63043,-0.00012
601.57026,-0.00011
599.51009,0.00000
