3996.73391,-0.00004
3994.67373,0.00031
3992.61356,0.00073
3990.55339,0.00092
3988.49322,0.00084
3986.43305,0.00081
3984.37287,0.00093
3982.31270,0.00092
3980.25253,0.00062
3978.19236,0.00033
3976.13219,0.00043
3974.07201,0.00075
3972.01184,0.00093
3969.95167,0.00088
3967.89150,0.00066
3965.83133,0.00042
3963.77115,0.00017
3961.71098,0.00000
3959.65081,0.00017
3957.59064,0.00049
3955.53046,0.00059
3953.47029,0.00051
3951.41012,0.00049
3949.34995,0.00045
3947.28978,0.00029
3945.22960,0.00029
3943.16943,0.00062
3941.10926,0.00091
3939.04909,0.00089
3936.98892,0.00088
3934.92874,0.00110
3932.86857,0.00123
3930.80840,0.00099
3928.74823,0.00068
3926.68805,0.00065
3924.62788,0.00073
3922.56771,0.00062
3920.50754,0.00054
3918.44737,0.00059
3916.38719,0.00047
3914.32702,0.00022
3912.26685,0.00034
3910.20668,0.00079
3908.14651,0.00101
3906.08633,0.00100
3904.02616,0.00102
3901.96599,0.00085
3899.90582,0.00057
3897.84565,0.00064
3895.78547,0.00092
3893.72530,0.00088
3891.66513,0.00048
3889.60496,0.00027
3887.54478,0.00041
3885.48461,0.00069
3883.42444,0.00100
3881.36427,0.00117
3879.30410,0.00111
3877.24392,0.00099
3875.18375,0.00078
3873.12358,0.00048
3871.06341,0.00051
3869.00324,0.00096
3866.94306,0.00118
3864.88289,0.00100
3862.82272,0.00077
3860.76255,0.00074
3858.70237,0.00095
3856.64220,0.00134
3854.58203,0.00164
3852.52186,0.00170
3850.46169,0.00184
3848.40151,0.00181
3846.34134,0.00158
3844.28117,0.00138
3842.22100,0.00129
3840.16083,0.00142
3838.10065,0.00168
3836.04048,0.00168
3833.98031,0.00138
3831.92014,0.00106
3829.85997,0.00065
3827.79979,0.00021
3825.73962,0.00012
3823.67945,0.00045
3821.61928,0.00078
3819.55910,0.00085
3817.49893,0.00104
3815.43876,0.00169
3813.37859,0.00235
3811.31842,0.00237
3809.25824,0.00206
3807.19807,0.00190
3805.13790,0.00162
3803.07773,0.00093
3801.01756,0.00041
3798.95738,0.00061
3796.89721,0.00102
3794.83704,0.00124
3792.77687,0.00138
3790.71670,0.00155
3788.65652,0.00175
3786.59635,0.00205
3784.53618,0.00240
3782.47601,0.00243
3780.41583,0.00209
3778.35566,0.00182
3776.29549,0.00182
3774.23532,0.00191
3772.17515,0.00212
3770.11497,0.00230
3768.05480,0.00211
3765.99463,0.00185
3763.93446,0.00196
3761.87429,0.00214
3759.81411,0.00208
3757.75394,0.00184
3755.69377,0.00141
3753.63360,0.00073
3751.57342,0.00012
3749.51325,0.00000
3747.45308,0.00019
3745.39291,0.00060
3743.33274,0.00117
3741.27256,0.00140
3739.21239,0.00153
3737.15222,0.00228
3735.09205,0.00313
3733.03188,0.00305
3730.97170,0.00241
3728.91153,0.00197
3726.85136,0.00191
3724.79119,0.00221
3722.73102,0.00254
3720.67084,0.00257
3718.61067,0.00235
3716.55050,0.00213
3714.49033,0.00205
3712.43015,0.00212
3710.36998,0.00247
3708.30981,0.00293
3706.24964,0.00297
3704.18947,0.00260
3702.12929,0.00220
3700.06912,0.00216
3698.00895,0.00273
3695.94878,0.00342
3693.88861,0.00347
3691.82843,0.00299
3689.76826,0.00292
3687.70809,0.00332
3685.64792,0.00328
3683.58775,0.00292
3681.52757,0.00281
3679.46740,0.00307
3677.40723,0.00333
3675.34706,0.00320
3673.28688,0.00274
3671.22671,0.00230
3669.16654,0.00203
3667.10637,0.00204
3665.04620,0.00249
3662.98602,0.00308
3660.92585,0.00332
3658.86568,0.00323
3656.80551,0.00313
3654.74534,0.00316
3652.68516,0.00320
3650.62499,0.00331
3648.56482,0.00360
3646.50465,0.00379
3644.44447,0.00387
3642.38430,0.00427
3640.32413,0.00476
3638.26396,0.00475
3636.20379,0.00444
3634.14361,0.00448
3632.08344,0.00486
3630.02327,0.00523
3627.96310,0.00556
3625.90293,0.00557
3623.84275,0.00519
3621.78258,0.00481
3619.72241,0.00480
3617.66224,0.00553
3615.60207,0.00670
3613.54189,0.00750
3611.48172,0.00761
3609.42155,0.00750
3607.36138,0.00750
3605.30120,0.00753
3603.24103,0.00763
3601.18086,0.00781
3599.12069,0.00785
3597.06052,0.00779
3595.00034,0.00800
3592.94017,0.00843
3590.88000,0.00857
3588.81983,0.00853
3586.75966,0.00893
3584.69948,0.00965
3582.63931,0.01012
3580.57914,0.01013
3578.51897,0.00989
3576.45879,0.00983
3574.39862,0.00998
3572.33845,0.01005
3570.27828,0.01003
3568.21811,0.01023
3566.15793,0.01074
3564.09776,0.01122
3562.03759,0.01146
3559.97742,0.01143
3557.91725,0.01119
3555.85707,0.01098
3553.79690,0.01107
3551.73673,0.01145
3549.67656,0.01172
3547.61639,0.01172
3545.55621,0.01185
3543.49604,0.01224
3541.43587,0.01249
3539.37570,0.01272
3537.31552,0.01317
3535.25535,0.01353
3533.19518,0.01357
3531.13501,0.01339
3529.07484,0.01308
3527.01466,0.01292
3524.95449,0.01335
3522.89432,0.01404
3520.83415,0.01433
3518.77398,0.01429
3516.71380,0.01443
3514.65363,0.01476
3512.59346,0.01491
3510.53329,0.01491
3508.47312,0.01497
3506.41294,0.01511
3504.35277,0.01514
3502.29260,0.01522
3500.23243,0.01558
3498.17225,0.01602
3496.11208,0.01637
3494.05191,0.01667
3491.99174,0.01683
3489.93157,0.01691
3487.87139,0.01725
3485.81122,0.01766
3483.75105,0.01766
3481.69088,0.01746
3479.63071,0.01732
3477.57053,0.01722
3475.51036,0.01738
3473.45019,0.01775
3471.39002,0.01804
3469.32984,0.01815
3467.26967,0.01819
3465.20950,0.01835
3463.14933,0.01857
3461.08916,0.01871
3459.02898,0.01888
3456.96881,0.01923
3454.90864,0.01957
3452.84847,0.01967
3450.78830,0.01947
3448.72812,0.01922
3446.66795,0.01922
3444.60778,0.01935
3442.54761,0.01951
3440.48744,0.01982
3438.42726,0.02016
3436.36709,0.02027
3434.30692,0.02041
3432.24675,0.02063
3430.18657,0.02057
3428.12640,0.02044
3426.06623,0.02064
3424.00606,0.02092
3421.94589,0.02089
3419.88571,0.02081
3417.82554,0.02102
3415.76537,0.02135
3413.70520,0.02156
3411.64503,0.02165
3409.58485,0.02166
3407.52468,0.02143
3405.46451,0.02113
3403.40434,0.02121
3401.34416,0.02158
3399.28399,0.02170
3397.22382,0.02173
3395.16365,0.02207
3393.10348,0.02247
3391.04330,0.02226
3388.98313,0.02174
3386.92296,0.02178
3384.86279,0.02223
3382.80262,0.02247
3380.74244,0.02241
3378.68227,0.02228
3376.62210,0.02232
3374.56193,0.02255
3372.50176,0.02266
3370.44158,0.02263
3368.38141,0.02269
3366.32124,0.02266
3364.26107,0.02229
3362.20089,0.02196
3360.14072,0.02207
3358.08055,0.02233
3356.02038,0.02242
3353.96021,0.02253
3351.90003,0.02260
3349.83986,0.02242
3347.77969,0.02215
3345.71952,0.02201
3343.65935,0.02196
3341.59917,0.02198
3339.53900,0.02209
3337.47883,0.02216
3335.41866,0.02234
3333.35849,0.02277
3331.29831,0.02300
3329.23814,0.02285
3327.17797,0.02259
3325.11780,0.02236
3323.05762,0.02233
3320.99745,0.02252
3318.93728,0.02264
3316.87711,0.02259
3314.81694,0.02258
3312.75676,0.02266
3310.69659,0.02264
3308.63642,0.02252
3306.57625,0.02245
3304.51608,0.02247
3302.45590,0.02243
3300.39573,0.02234
3298.33556,0.02229
3296.27539,0.02232
3294.21521,0.02250
3292.15504,0.02277
3290.09487,0.02284
3288.03470,0.02268
3285.97453,0.02259
3283.91435,0.02266
3281.85418,0.02267
3279.79401,0.02264
3277.73384,0.02260
3275.67367,0.02250
3273.61349,0.02257
3271.55332,0.02271
3269.49315,0.02278
3267.43298,0.02316
3265.37281,0.02361
3263.31263,0.02356
3261.25246,0.02322
3259.19229,0.02311
3257.13212,0.02308
3255.07194,0.02290
3253.01177,0.02275
3250.95160,0.02274
3248.89143,0.02286
3246.83126,0.02292
3244.77108,0.02277
3242.71091,0.02261
3240.65074,0.02268
3238.59057,0.02301
3236.53040,0.02326
3234.47022,0.02325
3232.41005,0.02327
3230.34988,0.02324
3228.28971,0.02297
3226.22954,0.02279
3224.16936,0.02270
3222.10919,0.02243
3220.04902,0.02218
3217.98885,0.02237
3215.92867,0.02289
3213.86850,0.02329
3211.80833,0.02322
3209.74816,0.02283
3207.68799,0.02271
3205.62781,0.02290
3203.56764,0.02286
3201.50747,0.02265
3199.44730,0.02282
3197.38713,0.02334
3195.32695,0.02352
3193.26678,0.02323
3191.20661,0.02292
3189.14644,0.02285
3187.08626,0.02296
3185.02609,0.02300
3182.96592,0.02283
3180.90575,0.02253
3178.84558,0.02237
3176.78540,0.02254
3174.72523,0.02294
3172.66506,0.02319
3170.60489,0.02301
3168.54472,0.02260
3166.48454,0.02225
3164.42437,0.02209
3162.36420,0.02211
3160.30403,0.02206
3158.24386,0.02192
3156.18368,0.02183
3154.12351,0.02181
3152.06334,0.02190
3150.00317,0.02196
3147.94299,0.02182
3145.88282,0.02154
3143.82265,0.02121
3141.76248,0.02105
3139.70231,0.02133
3137.64213,0.02171
3135.58196,0.02179
3133.52179,0.02158
3131.46162,0.02106
3129.40145,0.02063
3127.34127,0.02069
3125.28110,0.02092
3123.22093,0.02110
3121.16076,0.02121
3119.10058,0.02103
3117.04041,0.02074
3114.98024,0.02074
3112.92007,0.02081
3110.85990,0.02072
3108.79972,0.02068
3106.73955,0.02070
3104.67938,0.02058
3102.61921,0.02030
3100.55904,0.02005
3098.49886,0.02002
3096.43869,0.02006
3094.37852,0.01998
3092.31835,0.01997
3090.25818,0.02000
3088.19800,0.01974
3086.13783,0.01940
3084.07766,0.01936
3082.01749,0.01946
3079.95731,0.01943
3077.89714,0.01938
3075.83697,0.01944
3073.77680,0.01944
3071.71663,0.01932
3069.65645,0.01919
3067.59628,0.01909
3065.53611,0.01901
3063.47594,0.01898
3061.41577,0.01891
3059.35559,0.01876
3057.29542,0.01852
3055.23525,0.01829
3053.17508,0.01821
3051.11491,0.01819
3049.05473,0.01815
3046.99456,0.01832
3044.93439,0.01865
3042.87422,0.01865
3040.81404,0.01821
3038.75387,0.01802
3036.69370,0.01816
3034.63353,0.01803
3032.57336,0.01770
3030.51318,0.01751
3028.45301,0.01741
3026.39284,0.01736
3024.33267,0.01738
3022.27250,0.01729
3020.21232,0.01700
3018.15215,0.01668
3016.09198,0.01651
3014.03181,0.01655
3011.97163,0.01660
3009.91146,0.01655
3007.85129,0.01639
3005.79112,0.01623
3003.73095,0.01616
3001.67077,0.01612
2999.61060,0.01604
2997.55043,0.01595
2995.49026,0.01585
2993.43009,0.01583
2991.36991,0.01596
2989.30974,0.01610
2987.24957,0.01607
2985.18940,0.01591
2983.12923,0.01565
2981.06905,0.01545
2979.00888,0.01527
2976.94871,0.01500
2974.88854,0.01499
2972.82836,0.01527
2970.76819,0.01511
2968.70802,0.01447
2966.64785,0.01408
2964.58768,0.01416
2962.52750,0.01443
2960.46733,0.01445
2958.40716,0.01416
2956.34699,0.01405
2954.28682,0.01427
2952.22664,0.01436
2950.16647,0.01416
2948.10630,0.01401
2946.04613,0.01402
2943.98596,0.01389
2941.92578,0.01351
2939.86561,0.01321
2937.80544,0.01309
2935.74527,0.01296
2933.68509,0.01282
2931.62492,0.01272
2929.56475,0.01251
2927.50458,0.01210
2925.44441,0.01187
2923.38423,0.01193
2921.32406,0.01179
2919.26389,0.01134
2917.20372,0.01108
2915.14355,0.01123
2913.08337,0.01165
2911.02320,0.01200
2908.96303,0.01222
2906.90286,0.01241
2904.84268,0.01249
2902.78251,0.01233
2900.72234,0.01200
2898.66217,0.01182
2896.60200,0.01191
2894.54182,0.01191
2892.48165,0.01175
2890.42148,0.01163
2888.36131,0.01166
2886.30114,0.01187
2884.24096,0.01197
2882.18079,0.01176
2880.12062,0.01161
2878.06045,0.01156
2876.00028,0.01144
2873.94010,0.01134
2871.87993,0.01118
2869.81976,0.01098
2867.75959,0.01095
2865.69941,0.01105
2863.63924,0.01102
2861.57907,0.01093
2859.51890,0.01085
2857.45873,0.01058
2855.39855,0.01018
2853.33838,0.00982
2851.27821,0.00950
2849.21804,0.00937
2847.15787,0.00947
2845.09769,0.00968
2843.03752,0.01000
2840.97735,0.01017
2838.91718,0.01005
2836.85700,0.00997
2834.79683,0.01001
2832.73666,0.00994
2830.67649,0.00983
2828.61632,0.00980
2826.55614,0.00975
2824.49597,0.00979
2822.43580,0.00993
2820.37563,0.00992
2818.31546,0.00982
2816.25528,0.00978
2814.19511,0.00970
2812.13494,0.00957
2810.07477,0.00952
2808.01460,0.00947
2805.95442,0.00934
2803.89425,0.00935
2801.83408,0.00946
2799.77391,0.00930
2797.71373,0.00888
2795.65356,0.00858
2793.59339,0.00857
2791.53322,0.00875
2789.47305,0.00889
2787.41287,0.00884
2785.35270,0.00862
2783.29253,0.00839
2781.23236,0.00841
2779.17219,0.00862
2777.11201,0.00858
2775.05184,0.00841
2772.99167,0.00843
2770.93150,0.00844
2768.87133,0.00838
2766.81115,0.00833
2764.75098,0.00815
2762.69081,0.00803
2760.63064,0.00828
2758.57046,0.00849
2756.51029,0.00842
2754.45012,0.00828
2752.38995,0.00814
2750.32978,0.00811
2748.26960,0.00818
2746.20943,0.00810
2744.14926,0.00795
2742.08909,0.00791
2740.02892,0.00781
2737.96874,0.00752
2735.90857,0.00729
2733.84840,0.00732
2731.78823,0.00748
2729.72805,0.00759
2727.66788,0.00763
2725.60771,0.00752
2723.54754,0.00734
2721.48737,0.00723
2719.42719,0.00720
2717.36702,0.00718
2715.30685,0.00708
2713.24668,0.00691
2711.18651,0.00689
2709.12633,0.00697
2707.06616,0.00694
2705.00599,0.00689
2702.94582,0.00697
2700.88565,0.00713
2698.82547,0.00714
2696.76530,0.00699
2694.70513,0.00687
2692.64496,0.00681
2690.58478,0.00679
2688.52461,0.00674
2686.46444,0.00670
2684.40427,0.00672
2682.34410,0.00684
2680.28392,0.00689
2678.22375,0.00671
2676.16358,0.00642
2674.10341,0.00614
2672.04324,0.00591
2669.98306,0.00586
2667.92289,0.00599
2665.86272,0.00607
2663.80255,0.00612
2661.74238,0.00628
2659.68220,0.00635
2657.62203,0.00637
2655.56186,0.00653
2653.50169,0.00664
2651.44151,0.00637
2649.38134,0.00589
2647.32117,0.00565
2645.26100,0.00562
2643.20083,0.00554
2641.14065,0.00551
2639.08048,0.00561
2637.02031,0.00572
2634.96014,0.00582
2632.89997,0.00587
2630.83979,0.00572
2628.77962,0.00554
2626.71945,0.00547
2624.65928,0.00538
2622.59910,0.00527
2620.53893,0.00531
2618.47876,0.00551
2616.41859,0.00560
2614.35842,0.00539
2612.29824,0.00501
2610.23807,0.00475
2608.17790,0.00481
2606.11773,0.00501
2604.05756,0.00526
2601.99738,0.00555
2599.93721,0.00550
2597.87704,0.00508
2595.81687,0.00477
2593.75670,0.00462
2591.69652,0.00444
2589.63635,0.00437
2587.57618,0.00448
2585.51601,0.00468
2583.45583,0.00481
2581.39566,0.00473
2579.33549,0.00451
2577.27532,0.00450
2575.21515,0.00484
2573.15497,0.00512
2571.09480,0.00517
2569.03463,0.00511
2566.97446,0.00490
2564.91429,0.00461
2562.85411,0.00441
2560.79394,0.00431
2558.73377,0.00433
2556.67360,0.00453
2554.61342,0.00477
2552.55325,0.00492
2550.49308,0.00513
2548.43291,0.00526
2546.37274,0.00523
2544.31256,0.00527
2542.25239,0.00526
2540.19222,0.00515
2538.13205,0.00513
2536.07188,0.00516
2534.01170,0.00499
2531.95153,0.00455
2529.89136,0.00419
2527.83119,0.00418
2525.77102,0.00439
2523.71084,0.00464
2521.65067,0.00494
2519.59050,0.00504
2517.53033,0.00467
2515.47015,0.00445
2513.40998,0.00490
2511.34981,0.00530
2509.28964,0.00519
2507.22947,0.00483
2505.16929,0.00455
2503.10912,0.00458
2501.04895,0.00465
2498.98878,0.00440
2496.92861,0.00423
2494.86843,0.00439
2492.80826,0.00454
2490.74809,0.00443
2488.68792,0.00427
2486.62775,0.00431
2484.56757,0.00462
2482.50740,0.00489
2480.44723,0.00497
2478.38706,0.00512
2476.32688,0.00536
2474.26671,0.00528
2472.20654,0.00502
2470.14637,0.00516
2468.08620,0.00554
2466.02602,0.00550
2463.96585,0.00516
2461.90568,0.00496
2459.84551,0.00503
2457.78534,0.00552
2455.72516,0.00599
2453.66499,0.00581
2451.60482,0.00553
2449.54465,0.00571
2447.48447,0.00577
2445.42430,0.00554
2443.36413,0.00544
2441.30396,0.00518
2439.24379,0.00487
2437.18361,0.00495
2435.12344,0.00500
2433.06327,0.00476
2431.00310,0.00458
2428.94293,0.00465
2426.88275,0.00485
2424.82258,0.00504
2422.76241,0.00506
2420.70224,0.00476
2418.64207,0.00447
2416.58189,0.00464
2414.52172,0.00494
2412.46155,0.00522
2410.40138,0.00550
2408.34120,0.00546
2406.28103,0.00505
2404.22086,0.00481
2402.16069,0.00502
2400.10052,0.00531
2398.04034,0.00526
2395.98017,0.00537
2393.92000,0.00531
2391.85983,0.00521
2389.79966,0.00526
2387.73948,0.00527
2385.67931,0.00508
2383.61914,0.00474
2381.55897,0.00449
2379.49880,0.00473
2377.43862,0.00543
2375.37845,0.00614
2373.31828,0.00663
2371.25811,0.00663
2369.19793,0.00579
2367.13776,0.00500
2365.07759,0.00579
2363.01742,0.00758
2360.95725,0.00858
2358.89707,0.00870
2356.83690,0.00871
2354.77673,0.00840
2352.71656,0.00784
2350.65639,0.00785
2348.59621,0.00812
2346.53604,0.00815
2344.47587,0.00807
2342.41570,0.00819
2340.35552,0.00881
2338.29535,0.00967
2336.23518,0.00968
2334.17501,0.00842
2332.11484,0.00719
2330.05466,0.00722
2327.99449,0.00818
2325.93432,0.00919
2323.87415,0.00910
2321.81398,0.00761
2319.75380,0.00623
2317.69363,0.00608
2315.63346,0.00659
2313.57329,0.00687
2311.51312,0.00674
2309.45294,0.00652
2307.39277,0.00641
2305.33260,0.00639
2303.27243,0.00648
2301.21225,0.00657
2299.15208,0.00647
2297.09191,0.00611
2295.03174,0.00572
2292.97157,0.00553
2290.91139,0.00544
2288.85122,0.00547
2286.79105,0.00564
2284.73088,0.00566
2282.67071,0.00529
2280.61053,0.00469
2278.55036,0.00428
2276.49019,0.00436
2274.43002,0.00476
2272.36984,0.00515
2270.30967,0.00523
2268.24950,0.00485
2266.18933,0.00434
2264.12916,0.00420
2262.06898,0.00453
2260.00881,0.00496
2257.94864,0.00526
2255.88847,0.00523
2253.82830,0.00463
2251.76812,0.00389
2249.70795,0.00387
2247.64778,0.00483
2245.58761,0.00552
2243.52744,0.00543
2241.46726,0.00489
2239.40709,0.00445
2237.34692,0.00472
2235.28675,0.00576
2233.22657,0.00658
2231.16640,0.00591
2229.10623,0.00428
2227.04606,0.00370
2224.98589,0.00410
2222.92571,0.00423
2220.86554,0.00407
2218.80537,0.00400
2216.74520,0.00438
2214.68503,0.00477
2212.62485,0.00414
2210.56468,0.00303
2208.50451,0.00248
2206.44434,0.00261
2204.38417,0.00335
2202.32399,0.00419
2200.26382,0.00435
2198.20365,0.00340
2196.14348,0.00255
2194.08330,0.00297
2192.02313,0.00409
2189.96296,0.00515
2187.90279,0.00561
2185.84262,0.00509
2183.78244,0.00426
2181.72227,0.00390
2179.66210,0.00332
2177.60193,0.00328
2175.54176,0.00420
2173.48158,0.00405
2171.42141,0.00297
2169.36124,0.00234
2167.30107,0.00193
2165.24089,0.00201
2163.18072,0.00303
2161.12055,0.00320
2159.06038,0.00218
2157.00021,0.00241
2154.94003,0.00371
2152.87986,0.00412
2150.81969,0.00316
2148.75952,0.00189
2146.69935,0.00126
2144.63917,0.00161
2142.57900,0.00271
2140.51883,0.00324
2138.45866,0.00268
2136.39849,0.00204
2134.33831,0.00215
2132.27814,0.00288
2130.21797,0.00343
2128.15780,0.00358
2126.09762,0.00387
2124.03745,0.00428
2121.97728,0.00437
2119.91711,0.00413
2117.85694,0.00350
2115.79676,0.00283
2113.73659,0.00271
2111.67642,0.00274
2109.61625,0.00262
2107.55608,0.00263
2105.49590,0.00285
2103.43573,0.00284
2101.37556,0.00270
2099.31539,0.00296
2097.25521,0.00310
2095.19504,0.00294
2093.13487,0.00291
2091.07470,0.00287
2089.01453,0.00257
2086.95435,0.00258
2084.89418,0.00297
2082.83401,0.00319
2080.77384,0.00325
2078.71367,0.00325
2076.65349,0.00329
2074.59332,0.00366
2072.53315,0.00399
2070.47298,0.00390
2068.41281,0.00365
2066.35263,0.00301
2064.29246,0.00212
2062.23229,0.00210
2060.17212,0.00260
2058.11194,0.00261
2056.05177,0.00267
2053.99160,0.00337
2051.93143,0.00404
2049.87126,0.00359
2047.81108,0.00229
2045.75091,0.00222
2043.69074,0.00383
2041.63057,0.00429
2039.57040,0.00263
2037.51022,0.00138
2035.45005,0.00177
2033.38988,0.00291
2031.32971,0.00328
2029.26954,0.00294
2027.20936,0.00293
2025.14919,0.00235
2023.08902,0.00144
2021.02885,0.00191
2018.96867,0.00321
2016.90850,0.00380
2014.84833,0.00332
2012.78816,0.00218
2010.72799,0.00122
2008.66781,0.00073
2006.60764,0.00111
2004.54747,0.00252
2002.48730,0.00287
2000.42713,0.00140
1998.36695,0.00025
1996.30678,0.00071
1994.24661,0.00175
1992.18644,0.00226
1990.12626,0.00200
1988.06609,0.00115
1986.00592,0.00046
1983.94575,0.00101
1981.88558,0.00276
1979.82540,0.00419
1977.76523,0.00390
1975.70506,0.00205
1973.64489,0.00047
1971.58472,0.00047
1969.52454,0.00163
1967.46437,0.00240
1965.40420,0.00203
1963.34403,0.00185
1961.28386,0.00253
1959.22368,0.00275
1957.16351,0.00157
1955.10334,0.00043
1953.04317,0.00097
1950.98299,0.00226
1948.92282,0.00234
1946.86265,0.00137
1944.80248,0.00072
1942.74231,0.00030
1940.68213,0.00000
1938.62196,0.00056
1936.56179,0.00183
1934.50162,0.00255
1932.44145,0.00224
1930.38127,0.00154
1928.32110,0.00106
1926.26093,0.00101
1924.20076,0.00164
1922.14059,0.00280
1920.08041,0.00367
1918.02024,0.00389
1915.96007,0.00357
1913.89990,0.00316
1911.83972,0.00305
1909.77955,0.00300
1907.71938,0.00276
1905.65921,0.00253
1903.59904,0.00233
1901.53886,0.00209
1899.47869,0.00185
1897.41852,0.00182
1895.35835,0.00207
1893.29818,0.00235
1891.23800,0.00239
1889.17783,0.00228
1887.11766,0.00220
1885.05749,0.00220
1882.99731,0.00220
1880.93714,0.00222
1878.87697,0.00221
1876.81680,0.00202
1874.75663,0.00185
1872.69645,0.00199
1870.63628,0.00219
1868.57611,0.00204
1866.51594,0.00172
1864.45577,0.00164
1862.39559,0.00179
1860.33542,0.00200
1858.27525,0.00225
1856.21508,0.00258
1854.15491,0.00284
1852.09473,0.00292
1850.03456,0.00283
1847.97439,0.00264
1845.91422,0.00250
1843.85404,0.00240
1841.79387,0.00211
1839.73370,0.00190
1837.67353,0.00211
1835.61336,0.00244
1833.55318,0.00248
1831.49301,0.00238
1829.43284,0.00223
1827.37267,0.00190
1825.31250,0.00170
1823.25232,0.00196
1821.19215,0.00226
1819.13198,0.00216
1817.07181,0.00187
1815.01163,0.00185
1812.95146,0.00203
1810.89129,0.00204
1808.83112,0.00197
1806.77095,0.00210
1804.71077,0.00233
1802.65060,0.00247
1800.59043,0.00251
1798.53026,0.00238
1796.47009,0.00228
1794.40991,0.00234
1792.34974,0.00223
1790.28957,0.00203
1788.22940,0.00202
1786.16923,0.00198
1784.10905,0.00182
1782.04888,0.00186
1779.98871,0.00203
1777.92854,0.00202
1775.86836,0.00196
1773.80819,0.00221
1771.74802,0.00260
1769.68785,0.00282
1767.62768,0.00297
1765.56750,0.00309
1763.50733,0.00309
1761.44716,0.00298
1759.38699,0.00280
1757.32682,0.00263
1755.26664,0.00257
1753.20647,0.00268
1751.14630,0.00295
1749.08613,0.00319
1747.02596,0.00323
1744.96578,0.00304
1742.90561,0.00273
1740.84544,0.00255
1738.78527,0.00258
1736.72509,0.00276
1734.66492,0.00306
1732.60475,0.00336
1730.54458,0.00353
1728.48441,0.00364
1726.42423,0.00377
1724.36406,0.00383
1722.30389,0.00377
1720.24372,0.00362
1718.18355,0.00342
1716.12337,0.00344
1714.06320,0.00385
1712.00303,0.00430
1709.94286,0.00456
1707.88268,0.00468
1705.82251,0.00471
1703.76234,0.00470
1701.70217,0.00483
1699.64200,0.00499
1697.58182,0.00498
1695.52165,0.00515
1693.46148,0.00565
1691.40131,0.00619
1689.34114,0.00659
1687.28096,0.00675
1685.22079,0.00677
1683.16062,0.00698
1681.10045,0.00745
1679.04028,0.00790
1676.98010,0.00816
1674.91993,0.00814
1672.85976,0.00804
1670.79959,0.00832
1668.73941,0.00901
1666.67924,0.00956
1664.61907,0.00985
1662.55890,0.01007
1660.49873,0.01015
1658.43855,0.01012
1656.37838,0.01020
1654.31821,0.01036
1652.25804,0.01036
1650.19787,0.01008
1648.13769,0.00982
1646.07752,0.00990
1644.01735,0.01016
1641.95718,0.01030
1639.89701,0.01028
1637.83683,0.01003
1635.77666,0.00954
1633.71649,0.00922
1631.65632,0.00925
1629.59614,0.00931
1627.53597,0.00915
1625.47580,0.00896
1623.41563,0.00892
1621.35546,0.00880
1619.29528,0.00857
1617.23511,0.00846
1615.17494,0.00833
1613.11477,0.00804
1611.05460,0.00772
1608.99442,0.00753
1606.93425,0.00741
1604.87408,0.00725
1602.81391,0.00710
1600.75373,0.00705
1598.69356,0.00702
1596.63339,0.00694
1594.57322,0.00681
1592.51305,0.00659
1590.45287,0.00627
1588.39270,0.00595
1586.33253,0.00571
1584.27236,0.00543
1582.21219,0.00511
1580.15201,0.00486
1578.09184,0.00462
1576.03167,0.00432
1573.97150,0.00415
1571.91133,0.00417
1569.85115,0.00429
1567.79098,0.00439
1565.73081,0.00442
1563.67064,0.00441
1561.61046,0.00440
1559.55029,0.00432
1557.49012,0.00410
1555.42995,0.00383
1553.36978,0.00354
1551.30960,0.00329
1549.24943,0.00310
1547.18926,0.00287
1545.12909,0.00230
1543.06892,0.00151
1541.00874,0.00133
1538.94857,0.00186
1536.88840,0.00208
1534.82823,0.00206
1532.76805,0.00220
1530.70788,0.00231
1528.64771,0.00226
1526.58754,0.00212
1524.52737,0.00179
1522.46719,0.00134
1520.40702,0.00114
1518.34685,0.00121
1516.28668,0.00122
1514.22651,0.00112
1512.16633,0.00101
1510.10616,0.00096
1508.04599,0.00095
1505.98582,0.00113
1503.92565,0.00146
1501.86547,0.00175
1499.80530,0.00200
1497.74513,0.00207
1495.68496,0.00183
1493.62478,0.00151
1491.56461,0.00137
1489.50444,0.00137
1487.44427,0.00132
1485.38410,0.00123
1483.32392,0.00124
1481.26375,0.00129
1479.20358,0.00117
1477.14341,0.00078
1475.08324,0.00041
1473.02306,0.00046
1470.96289,0.00090
1468.90272,0.00124
1466.84255,0.00146
1464.78238,0.00166
1462.72220,0.00167
1460.66203,0.00152
1458.60186,0.00146
1456.54169,0.00159
1454.48151,0.00172
1452.42134,0.00171
1450.36117,0.00160
1448.30100,0.00148
1446.24083,0.00147
1444.18065,0.00155
1442.12048,0.00164
1440.06031,0.00166
1438.00014,0.00157
1435.93997,0.00140
1433.87979,0.00126
1431.81962,0.00121
1429.75945,0.00127
1427.69928,0.00145
1425.63910,0.00168
1423.57893,0.00184
1421.51876,0.00185
1419.45859,0.00170
1417.39842,0.00162
1415.33824,0.00172
1413.27807,0.00174
1411.21790,0.00170
1409.15773,0.00177
1407.09756,0.00185
1405.03738,0.00187
1402.97721,0.00191
1400.91704,0.00193
1398.85687,0.00176
1396.79670,0.00147
1394.73652,0.00133
1392.67635,0.00135
1390.61618,0.00135
1388.55601,0.00133
1386.49583,0.00139
1384.43566,0.00143
1382.37549,0.00138
1380.31532,0.00132
1378.25515,0.00127
1376.19497,0.00119
1374.13480,0.00111
1372.07463,0.00106
1370.01446,0.00103
1367.95429,0.00098
1365.89411,0.00087
1363.83394,0.00071
1361.77377,0.00058
1359.71360,0.00052
1357.65343,0.00052
1355.59325,0.00052
1353.53308,0.00042
1351.47291,0.00032
1349.41274,0.00035
1347.35256,0.00046
1345.29239,0.00052
1343.23222,0.00049
1341.17205,0.00043
1339.11188,0.00040
1337.05170,0.00040
1334.99153,0.00042
1332.93136,0.00048
1330.87119,0.00058
1328.81102,0.00061
1326.75084,0.00050
1324.69067,0.00037
1322.63050,0.00029
1320.57033,0.00019
1318.51015,0.00017
1316.44998,0.00042
1314.38981,0.00076
1312.32964,0.00089
1310.26947,0.00085
1308.20929,0.00084
1306.14912,0.00090
1304.08895,0.00095
1302.02878,0.00097
1299.96861,0.00100
1297.90843,0.00098
1295.84826,0.00091
1293.78809,0.00089
1291.72792,0.00091
1289.66775,0.00087
1287.60757,0.00081
1285.54740,0.00077
1283.48723,0.00067
1281.42706,0.00065
1279.36688,0.00085
1277.30671,0.00109
1275.24654,0.00117
1273.18637,0.00106
1271.12620,0.00090
1269.06602,0.00087
1267.00585,0.00097
1264.94568,0.00113
1262.88551,0.00118
1260.82534,0.00108
1258.76516,0.00095
1256.70499,0.00081
1254.64482,0.00073
1252.58465,0.00081
1250.52447,0.00096
1248.46430,0.00101
1246.40413,0.00099
1244.34396,0.00101
1242.28379,0.00100
1240.22361,0.00094
1238.16344,0.00091
1236.10327,0.00091
1234.04310,0.00104
1231.98293,0.00122
1229.92275,0.00129
1227.86258,0.00130
1225.80241,0.00122
1223.74224,0.00100
1221.68207,0.00077
1219.62189,0.00053
1217.56172,0.00036
1215.50155,0.00036
1213.44138,0.00038
1211.38120,0.00041
1209.32103,0.00044
1207.26086,0.00028
1205.20069,0.00003
1203.14052,0.00000
1201.08034,0.00014
1199.02017,0.00023
1196.96000,0.00013
1194.89983,0.00002
1192.83966,0.00000
1190.77948,0.00002
1188.71931,0.00005
1186.65914,0.00004
1184.59897,0.00007
1182.53880,0.00013
1180.47862,0.00008
1178.41845,0.00008
1176.35828,0.00026
1174.29811,0.00043
1172.23793,0.00049
1170.17776,0.00075
1168.11759,0.00110
1166.05742,0.00123
1163.99725,0.00135
1161.93707,0.00164
1159.87690,0.00184
1157.81673,0.00185
1155.75656,0.00199
1153.69639,0.00241
1151.63621,0.00275
1149.57604,0.00296
1147.51587,0.00333
1145.45570,0.00387
1143.39552,0.00435
1141.33535,0.00483
1139.27518,0.00548
1137.21501,0.00614
1135.15484,0.00665
1133.09466,0.00715
1131.03449,0.00775
1128.97432,0.00841
1126.91415,0.00926
1124.85398,0.01018
1122.79380,0.01102
1120.73363,0.01192
1118.67346,0.01283
1116.61329,0.01365
1114.55312,0.01455
1112.49294,0.01569
1110.43277,0.01685
1108.37260,0.01781
1106.31243,0.01873
1104.25225,0.01966
1102.19208,0.02050
1100.13191,0.02129
1098.07174,0.02219
1096.01157,0.02311
1093.95139,0.02389
1091.89122,0.02459
1089.83105,0.02525
1087.77088,0.02593
1085.71071,0.02674
1083.65053,0.02747
1081.59036,0.02798
1079.53019,0.02851
1077.47002,0.02910
1075.40985,0.02954
1073.34967,0.02964
1071.28950,0.02956
1069.22933,0.02956
1067.16916,0.02968
1065.10898,0.02971
1063.04881,0.02943
1060.98864,0.02886
1058.92847,0.02815
1056.86830,0.02748
1054.80812,0.02694
1052.74795,0.02627
1050.68778,0.02516
1048.62761,0.02382
1046.56744,0.02257
1044.50726,0.02138
1042.44709,0.02011
1040.38692,0.01872
1038.32675,0.01745
1036.26657,0.01623
1034.20640,0.01488
1032.14623,0.01368
1030.08606,0.01287
1028.02589,0.01228
1025.96571,0.01179
1023.90554,0.01132
1021.84537,0.01073
1019.78520,0.01004
1017.72503,0.00967
1015.66485,0.00960
1013.60468,0.00954
1011.54451,0.00960
1009.48434,0.00974
1007.42417,0.00994
1005.36399,0.01042
1003.30382,0.01114
1001.24365,0.01187
999.18348,0.01257
997.12330,0.01338
995.06313,0.01436
993.00296,0.01526
990.94279,0.01593
988.88262,0.01658
986.82244,0.01715
984.76227,0.01749
982.70210,0.01769
980.64193,0.01783
978.58176,0.01781
976.52158,0.01752
974.46141,0.01696
972.40124,0.01607
970.34107,0.01494
968.28089,0.01393
966.22072,0.01317
964.16055,0.01237
962.10038,0.01146
960.04021,0.01066
957.98003,0.00996
955.91986,0.00943
953.85969,0.00908
951.79952,0.00865
949.73935,0.00804
947.67917,0.00734
945.61900,0.00675
943.55883,0.00647
941.49866,0.00625
939.43849,0.00590
937.37831,0.00564
935.31814,0.00538
933.25797,0.00526
931.19780,0.00545
929.13762,0.00545
927.07745,0.00534
925.01728,0.00536
922.95711,0.00512
920.89694,0.00479
918.83676,0.00476
916.77659,0.00484
914.71642,0.00491
912.65625,0.00507
910.59608,0.00524
908.53590,0.00528
906.47573,0.00541
904.41556,0.00575
902.35539,0.00599
900.29522,0.00590
898.23504,0.00585
896.17487,0.00608
894.11470,0.00664
892.05453,0.00735
889.99435,0.00759
887.93418,0.00745
885.87401,0.00754
883.81384,0.00772
881.75367,0.00803
879.69349,0.00868
877.63332,0.00919
875.57315,0.00925
873.51298,0.00930
871.45281,0.00964
869.39263,0.01012
867.33246,0.01039
865.27229,0.01032
863.21212,0.01012
861.15194,0.01020
859.09177,0.01052
857.03160,0.01078
854.97143,0.01058
852.91126,0.01003
850.85108,0.00959
848.79091,0.00907
846.73074,0.00836
844.67057,0.00800
842.61040,0.00763
840.55022,0.00683
838.49005,0.00623
836.42988,0.00584
834.36971,0.00527
832.30954,0.00469
830.24936,0.00429
828.18919,0.00392
826.12902,0.00345
824.06885,0.00304
822.00867,0.00268
819.94850,0.00246
817.88833,0.00244
815.82816,0.00227
813.76799,0.00164
811.70781,0.00102
809.64764,0.00106
807.58747,0.00152
805.52730,0.00167
803.46713,0.00145
801.40695,0.00133
799.34678,0.00148
797.28661,0.00147
795.22644,0.00138
793.16627,0.00178
791.10609,0.00243
789.04592,0.00275
786.98575,0.00271
784.92558,0.00255
782.86540,0.00247
780.80523,0.00261
778.74506,0.00278
776.68489,0.00314
774.62472,0.00399
772.56454,0.00446
770.50437,0.00438
768.44420,0.00443
766.38403,0.00435
764.32386,0.00387
762.26368,0.00353
760.20351,0.00377
758.14334,0.00434
756.08317,0.00462
754.02299,0.00460
751.96282,0.00449
749.90265,0.00395
747.84248,0.00285
745.78231,0.00202
743.72213,0.00242
741.66196,0.00374
739.60179,0.00479
737.54162,0.00521
735.48145,0.00498
733.42127,0.00426
731.36110,0.00367
729.30093,0.00319
727.24076,0.00245
725.18059,0.00195
723.12041,0.00275
721.06024,0.00375
719.00007,0.00399
716.93990,0.00327
714.87972,0.00274
712.81955,0.00312
710.75938,0.00362
708.69921,0.00365
706.63904,0.00354
704.57886,0.00376
702.51869,0.00411
700.45852,0.00387
698.39835,0.00294
696.33818,0.00229
694.27800,0.00252
692.21783,0.00316
690.15766,0.00371
688.09749,0.00375
686.03731,0.00347
683.97714,0.00364
681.91697,0.00368
679.85680,0.00271
677.79663,0.00212
675.73645,0.00311
673.67628,0.00395
671.61611,0.00265
669.55594,0.00028
667.49577,0.00000
665.43559,0.00149
663.37542,0.00334
661.31525,0.00417
659.25508,0.00396
657.19491,0.00314
655.13473,0.00226
653.07456,0.00158
651.01439,0.00144
648.95422,0.00218
646.89404,0.00330
644.83387,0.00380
642.77370,0.00353
640.71353,0.00338
638.65336,0.00382
636.59318,0.00353
634.53301,0.00162
632.47284,0.00000
630.41267,0.00040
628.35250,0.00165
626.29232,0.00190
624.23215,0.00180
622.17198,0.00076
620.11181,-0.00011
618.05164,0.00082
615.99146,0.00082
613.93129,0.00026
611.87112,0.00057
609.81095,-0.00005
607.75077,-0.00005
605.69060,0.00161
603.63043,0.00253
601.57026,0.00178
599.51009,0.00000
