3996.73391,-0.00002
3994.67373,0.00005
3992.61356,0.00011
3990.55339,0.00016
3988.49322,0.00031
3986.43305,0.00052
3984.37287,0.00061
3982.31270,0.00051
3980.25253,0.00027
3978.19236,0.00010
3976.13219,0.00016
3974.07201,0.00034
3972.01184,0.00061
3969.95167,0.00094
3967.89150,0.00107
3965.83133,0.00088
3963.77115,0.00056
3961.71098,0.00043
3959.65081,0.00047
3957.59064,0.00039
3955.53046,0.00014
3953.47029,0.00000
3951.41012,0.00014
3949.34995,0.00035
3947.28978,0.00031
3945.22960,0.00022
3943.16943,0.00048
3941.10926,0.00076
3939.04909,0.00056
3936.98892,0.00041
3934.92874,0.00090
3932.86857,0.00146
3930.80840,0.00132
3928.74823,0.00083
3926.68805,0.00078
3924.62788,0.00103
3922.56771,0.00104
3920.50754,0.00088
3918.44737,0.00070
3916.38719,0.00045
3914.32702,0.00023
3912.26685,0.00025
3910.20668,0.00041
3908.14651,0.00046
3906.08633,0.00063
3904.02616,0.00095
3901.96599,0.00104
3899.90582,0.00092
3897.84565,0.00092
3895.78547,0.00098
3893.72530,0.00076
3891.66513,0.00048
3889.60496,0.00064
3887.54478,0.00093
3885.48461,0.00078
3883.42444,0.00039
3881.36427,0.00036
3879.30410,0.00063
3877.24392,0.00077
3875.18375,0.00064
3873.12358,0.00047
3871.06341,0.00057
3869.00324,0.00084
3866.94306,0.00084
3864.88289,0.00075
3862.82272,0.00070
3860.76255,0.00058
3858.70237,0.00054
3856.64220,0.00056
3854.58203,0.00041
3852.52186,0.00043
3850.46169,0.00091
3848.40151,0.00120
3846.34134,0.00129
3844.28117,0.00140
3842.22100,0.00135
3840.16083,0.00107
3838.10065,0.00087
3836.04048,0.00090
3833.98031,0.00095
3831.92014,0.00075
3829.85997,0.00029
3827.79979,0.00000
3825.73962,0.00020
3823.67945,0.00071
3821.61928,0.00117
3819.55910,0.00133
3817.49893,0.00133
3815.43876,0.00141
3813.37859,0.00138
3811.31842,0.00109
3809.25824,0.00082
3807.19807,0.00081
3805.13790,0.00087
3803.07773,0.00071
3801.01756,0.00036
3798.95738,0.00023
3796.89721,0.00038
3794.83704,0.00070
3792.77687,0.00098
3790.71670,0.00103
3788.65652,0.00114
3786.59635,0.00152
3784.53618,0.00172
3782.47601,0.00144
3780.41583,0.00104
3778.35566,0.00092
3776.29549,0.00098
3774.23532,0.00102
3772.17515,0.00112
3770.11497,0.00116
3768.05480,0.00104
3765.99463,0.00102
3763.93446,0.00110
3761.87429,0.00095
3759.81411,0.00067
3757.75394,0.00060
3755.69377,0.00071
3753.63360,0.00079
3751.57342,0.00070
3749.51325,0.00035
3747.45308,0.00002
3745.39291,0.00027
3743.33274,0.00110
3741.27256,0.00149
3739.21239,0.00123
3737.15222,0.00119
3735.09205,0.00155
3733.03188,0.00138
3730.97170,0.00078
3728.91153,0.00032
3726.85136,0.00015
3724.79119,0.00041
3722.73102,0.00104
3720.67084,0.00145
3718.61067,0.00115
3716.55050,0.00065
3714.49033,0.00049
3712.43015,0.00061
3710.36998,0.00083
3708.30981,0.00100
3706.24964,0.00115
3704.18947,0.00131
3702.12929,0.00137
3700.06912,0.00132
3698.00895,0.00153
3695.94878,0.00205
3693.88861,0.00226
3691.82843,0.00195
3689.76826,0.00162
3687.70809,0.00168
3685.64792,0.00176
3683.58775,0.00178
3681.52757,0.00186
3679.46740,0.00199
3677.40723,0.00213
3675.34706,0.00232
3673.28688,0.00237
3671.22671,0.00235
3669.16654,0.00230
3667.10637,0.00209
3665.04620,0.00213
3662.98602,0.00235
3660.92585,0.00233
3658.86568,0.00235
3656.80551,0.00268
3654.74534,0.00287
3652.68516,0.00265
3650.62499,0.00244
3648.56482,0.00273
3646.50465,0.00318
3644.44447,0.00331
3642.38430,0.00348
3640.32413,0.00384
3638.26396,0.00410
3636.20379,0.00439
3634.14361,0.00475
3632.08344,0.00475
3630.02327,0.00461
3627.96310,0.00508
3625.90293,0.00548
3623.84275,0.00527
3621.78258,0.00519
3619.72241,0.00571
3617.66224,0.00638
3615.60207,0.00681
3613.54189,0.00721
3611.48172,0.00762
3609.42155,0.00786
3607.36138,0.00768
3605.30120,0.00726
3603.24103,0.00738
3601.18086,0.00806
3599.12069,0.00850
3597.06052,0.00849
3595.00034,0.00866
3592.94017,0.00907
3590.88000,0.00930
3588.81983,0.00938
3586.75966,0.00969
3584.69948,0.01006
3582.63931,0.01015
3580.57914,0.00987
3578.51897,0.00966
3576.45879,0.00989
3574.39862,0.01029
3572.33845,0.01047
3570.27828,0.01052
3568.21811,0.01071
3566.15793,0.01111
3564.09776,0.01136
3562.03759,0.01135
3559.97742,0.01130
3557.91725,0.01134
3555.85707,0.01143
3553.79690,0.01166
3551.73673,0.01208
3549.67656,0.01235
3547.61639,0.01240
3545.55621,0.01267
3543.49604,0.01314
3541.43587,0.01347
3539.37570,0.01385
3537.31552,0.01436
3535.25535,0.01450
3533.19518,0.01415
3531.13501,0.01385
3529.07484,0.01394
3527.01466,0.01431
3524.95449,0.01491
3522.89432,0.01554
3520.83415,0.01580
3518.77398,0.01577
3516.71380,0.01581
3514.65363,0.01591
3512.59346,0.01592
3510.53329,0.01610
3508.47312,0.01650
3506.41294,0.01668
3504.35277,0.01679
3502.29260,0.01716
3500.23243,0.01748
3498.17225,0.01755
3496.11208,0.01781
3494.05191,0.01824
3491.99174,0.01825
3489.93157,0.01804
3487.87139,0.01831
3485.81122,0.01891
3483.75105,0.01917
3481.69088,0.01913
3479.63071,0.01894
3477.57053,0.01863
3475.51036,0.01863
3473.45019,0.01917
3471.39002,0.01982
3469.32984,0.02007
3467.26967,0.01989
3465.20950,0.01971
3463.14933,0.01982
3461.08916,0.02019
3459.02898,0.02071
3456.96881,0.02108
3454.90864,0.02104
3452.84847,0.02082
3450.78830,0.02077
3448.72812,0.02114
3446.66795,0.02164
3444.60778,0.02158
3442.54761,0.02135
3440.48744,0.02170
3438.42726,0.02225
3436.36709,0.02250
3434.30692,0.02263
3432.24675,0.02263
3430.18657,0.02240
3428.12640,0.02236
3426.06623,0.02258
3424.00606,0.02272
3421.94589,0.02292
3419.88571,0.02331
3417.82554,0.02349
3415.76537,0.02336
3413.70520,0.02329
3411.64503,0.02343
3409.58485,0.02376
3407.52468,0.02390
3405.46451,0.02366
3403.40434,0.02350
3401.34416,0.02353
3399.28399,0.02346
3397.22382,0.02345
3395.16365,0.02367
3393.10348,0.02409
3391.04330,0.02416
3388.98313,0.02391
3386.92296,0.02400
3384.86279,0.02441
3382.80262,0.02471
3380.74244,0.02471
3378.68227,0.02446
3376.62210,0.02435
3374.56193,0.02468
3372.50176,0.02495
3370.44158,0.02485
3368.38141,0.02483
3366.32124,0.02485
3364.26107,0.02475
3362.20089,0.02484
3360.14072,0.02497
3358.08055,0.02491
3356.02038,0.02507
3353.96021,0.02540
3351.90003,0.02527
3349.83986,0.02493
3347.77969,0.02490
3345.71952,0.02483
3343.65935,0.02464
3341.59917,0.02476
3339.53900,0.02495
3337.47883,0.02487
3335.41866,0.02482
3333.35849,0.02506
3331.29831,0.02530
3329.23814,0.02520
3327.17797,0.02490
3325.11780,0.02487
3323.05762,0.02520
3320.99745,0.02540
3318.93728,0.02538
3316.87711,0.02540
3314.81694,0.02548
3312.75676,0.02555
3310.69659,0.02569
3308.63642,0.02585
3306.57625,0.02568
3304.51608,0.02528
3302.45590,0.02508
3300.39573,0.02497
3298.33556,0.02480
3296.27539,0.02467
3294.21521,0.02478
3292.15504,0.02533
3290.09487,0.02587
3288.03470,0.02568
3285.97453,0.02501
3283.91435,0.02476
3281.85418,0.02514
3279.79401,0.02561
3277.73384,0.02566
3275.67367,0.02533
3273.61349,0.02525
3271.55332,0.02553
3269.49315,0.02569
3267.43298,0.02579
3265.37281,0.02578
3263.31263,0.02561
3261.25246,0.02561
3259.19229,0.02575
3257.13212,0.02569
3255.07194,0.02559
3253.01177,0.02572
3250.95160,0.02583
3248.89143,0.02569
3246.83126,0.02550
3244.77108,0.02545
3242.71091,0.02556
3240.65074,0.02589
3238.59057,0.02635
3236.53040,0.02661
3234.47022,0.02656
3232.41005,0.02633
3230.34988,0.02609
3228.28971,0.02608
3226.22954,0.02621
3224.16936,0.02612
3222.10919,0.02586
3220.04902,0.02571
3217.98885,0.02590
3215.92867,0.02629
3213.86850,0.02643
3211.80833,0.02624
3209.74816,0.02605
3207.68799,0.02604
3205.62781,0.02599
3203.56764,0.02581
3201.50747,0.02577
3199.44730,0.02597
3197.38713,0.02613
3195.32695,0.02623
3193.26678,0.02627
3191.20661,0.02613
3189.14644,0.02600
3187.08626,0.02601
3185.02609,0.02598
3182.96592,0.02596
3180.90575,0.02593
3178.84558,0.02589
3176.78540,0.02589
3174.72523,0.02592
3172.66506,0.02587
3170.60489,0.02574
3168.54472,0.02563
3166.48454,0.02555
3164.42437,0.02545
3162.36420,0.02536
3160.30403,0.02527
3158.24386,0.02520
3156.18368,0.02508
3154.12351,0.02503
3152.06334,0.02509
3150.00317,0.02495
3147.94299,0.02465
3145.88282,0.02450
3143.82265,0.02445
3141.76248,0.02452
3139.70231,0.02481
3137.64213,0.02509
3135.58196,0.02516
3133.52179,0.02498
3131.46162,0.02461
3129.40145,0.02447
3127.34127,0.02461
3125.28110,0.02455
3123.22093,0.02434
3121.16076,0.02441
3119.10058,0.02470
3117.04041,0.02471
3114.98024,0.02446
3112.92007,0.02424
3110.85990,0.02406
3108.79972,0.02391
3106.73955,0.02385
3104.67938,0.02383
3102.61921,0.02379
3100.55904,0.02381
3098.49886,0.02396
3096.43869,0.02407
3094.37852,0.02397
3092.31835,0.02374
3090.25818,0.02341
3088.19800,0.02310
3086.13783,0.02307
3084.07766,0.02318
3082.01749,0.02307
3079.95731,0.02275
3077.89714,0.02265
3075.83697,0.02286
3073.77680,0.02303
3071.71663,0.02297
3069.65645,0.02280
3067.59628,0.02256
3065.53611,0.02229
3063.47594,0.02222
3061.41577,0.02226
3059.35559,0.02226
3057.29542,0.02224
3055.23525,0.02217
3053.17508,0.02205
3051.11491,0.02191
3049.05473,0.02181
3046.99456,0.02184
3044.93439,0.02180
3042.87422,0.02147
3040.81404,0.02110
3038.75387,0.02106
3036.69370,0.02115
3034.63353,0.02110
3032.57336,0.02101
3030.51318,0.02084
3028.45301,0.02062
3026.39284,0.02040
3024.33267,0.02022
3022.27250,0.02009
3020.21232,0.01992
3018.15215,0.01975
3016.09198,0.01975
3014.03181,0.01988
3011.97163,0.01988
3009.91146,0.01968
3007.85129,0.01942
3005.79112,0.01927
3003.73095,0.01925
3001.67077,0.01918
2999.61060,0.01901
2997.55043,0.01891
2995.49026,0.01890
2993.43009,0.01868
2991.36991,0.01835
2989.30974,0.01826
2987.24957,0.01833
2985.18940,0.01829
2983.12923,0.01814
2981.06905,0.01811
2979.00888,0.01808
2976.94871,0.01784
2974.88854,0.01762
2972.82836,0.01752
2970.76819,0.01732
2968.70802,0.01705
2966.64785,0.01700
2964.58768,0.01716
2962.52750,0.01718
2960.46733,0.01691
2958.40716,0.01657
2956.34699,0.01650
2954.28682,0.01662
2952.22664,0.01657
2950.16647,0.01641
2948.10630,0.01634
2946.04613,0.01622
2943.98596,0.01598
2941.92578,0.01578
2939.86561,0.01570
2937.80544,0.01572
2935.74527,0.01569
2933.68509,0.01553
2931.62492,0.01541
2929.56475,0.01527
2927.50458,0.01493
2925.44441,0.01459
2923.38423,0.01444
2921.32406,0.01426
2919.26389,0.01398
2917.20372,0.01387
2915.14355,0.01387
2913.08337,0.01388
2911.02320,0.01394
2908.96303,0.01408
2906.90286,0.01434
2904.84268,0.01448
2902.78251,0.01429
2900.72234,0.01411
2898.66217,0.01419
2896.60200,0.01437
2894.54182,0.01426
2892.48165,0.01385
2890.42148,0.01365
2888.36131,0.01375
2886.30114,0.01382
2884.24096,0.01378
2882.18079,0.01363
2880.12062,0.01350
2878.06045,0.01343
2876.00028,0.01322
2873.94010,0.01301
2871.87993,0.01294
2869.81976,0.01281
2867.75959,0.01262
2865.69941,0.01254
2863.63924,0.01245
2861.57907,0.01236
2859.51890,0.01223
2857.45873,0.01201
2855.39855,0.01188
2853.33838,0.01171
2851.27821,0.01121
2849.21804,0.01075
2847.15787,0.01071
2845.09769,0.01100
2843.03752,0.01133
2840.97735,0.01133
2838.91718,0.01122
2836.85700,0.01136
2834.79683,0.01160
2832.73666,0.01163
2830.67649,0.01157
2828.61632,0.01149
2826.55614,0.01125
2824.49597,0.01110
2822.43580,0.01120
2820.37563,0.01113
2818.31546,0.01087
2816.25528,0.01070
2814.19511,0.01063
2812.13494,0.01057
2810.07477,0.01052
2808.01460,0.01042
2805.95442,0.01023
2803.89425,0.01015
2801.83408,0.01017
2799.77391,0.01004
2797.71373,0.00984
2795.65356,0.00976
2793.59339,0.00974
2791.53322,0.00980
2789.47305,0.00998
2787.41287,0.01003
2785.35270,0.00982
2783.29253,0.00955
2781.23236,0.00952
2779.17219,0.00967
2777.11201,0.00964
2775.05184,0.00944
2772.99167,0.00929
2770.93150,0.00924
2768.87133,0.00928
2766.81115,0.00934
2764.75098,0.00925
2762.69081,0.00913
2760.63064,0.00922
2758.57046,0.00931
2756.51029,0.00912
2754.45012,0.00887
2752.38995,0.00895
2750.32978,0.00902
2748.26960,0.00868
2746.20943,0.00829
2744.14926,0.00819
2742.08909,0.00819
2740.02892,0.00797
2737.96874,0.00764
2735.90857,0.00751
2733.84840,0.00766
2731.78823,0.00784
2729.72805,0.00793
2727.66788,0.00803
2725.60771,0.00810
2723.54754,0.00809
2721.48737,0.00805
2719.42719,0.00795
2717.36702,0.00771
2715.30685,0.00754
2713.24668,0.00763
2711.18651,0.00774
2709.12633,0.00767
2707.06616,0.00743
2705.00599,0.00724
2702.94582,0.00724
2700.88565,0.00738
2698.82547,0.00742
2696.76530,0.00718
2694.70513,0.00689
2692.64496,0.00687
2690.58478,0.00714
2688.52461,0.00734
2686.46444,0.00722
2684.40427,0.00697
2682.34410,0.00696
2680.28392,0.00705
2678.22375,0.00684
2676.16358,0.00647
2674.10341,0.00624
2672.04324,0.00622
2669.98306,0.00629
2667.92289,0.00635
2665.86272,0.00632
2663.80255,0.00639
2661.74238,0.00658
2659.68220,0.00659
2657.62203,0.00641
2655.56186,0.00636
2653.50169,0.00642
2651.44151,0.00631
2649.38134,0.00610
2647.32117,0.00599
2645.26100,0.00592
2643.20083,0.00581
2641.14065,0.00576
2639.08048,0.00585
2637.02031,0.00598
2634.96014,0.00600
2632.89997,0.00590
2630.83979,0.00579
2628.77962,0.00563
2626.71945,0.00549
2624.65928,0.00549
2622.59910,0.00545
2620.53893,0.00547
2618.47876,0.00572
2616.41859,0.00598
2614.35842,0.00583
2612.29824,0.00534
2610.23807,0.00501
2608.17790,0.00499
2606.11773,0.00510
2604.05756,0.00535
2601.99738,0.00567
2599.93721,0.00567
2597.87704,0.00532
2595.81687,0.00499
2593.75670,0.00468
2591.69652,0.00441
2589.63635,0.00446
2587.57618,0.00470
2585.51601,0.00488
2583.45583,0.00476
2581.39566,0.00432
2579.33549,0.00400
2577.27532,0.00426
2575.21515,0.00485
2573.15497,0.00517
2571.09480,0.00520
2569.03463,0.00525
2566.97446,0.00512
2564.91429,0.00465
2562.85411,0.00430
2560.79394,0.00441
2558.73377,0.00469
2556.67360,0.00488
2554.61342,0.00492
2552.55325,0.00489
2550.49308,0.00490
2548.43291,0.00479
2546.37274,0.00476
2544.31256,0.00496
2542.25239,0.00503
2540.19222,0.00491
2538.13205,0.00476
2536.07188,0.00485
2534.01170,0.00496
2531.95153,0.00474
2529.89136,0.00450
2527.83119,0.00440
2525.77102,0.00437
2523.71084,0.00457
2521.65067,0.00500
2519.59050,0.00511
2517.53033,0.00476
2515.47015,0.00466
2513.40998,0.00491
2511.34981,0.00516
2509.28964,0.00535
2507.22947,0.00515
2505.16929,0.00452
2503.10912,0.00410
2501.04895,0.00413
2498.98878,0.00422
2496.92861,0.00427
2494.86843,0.00435
2492.80826,0.00455
2490.74809,0.00479
2488.68792,0.00479
2486.62775,0.00458
2484.56757,0.00460
2482.50740,0.00506
2480.44723,0.00558
2478.38706,0.00569
2476.32688,0.00542
2474.26671,0.00489
2472.20654,0.00451
2470.14637,0.00471
2468.08620,0.00501
2466.02602,0.00488
2463.96585,0.00475
2461.90568,0.00504
2459.84551,0.00553
2457.78534,0.00594
2455.72516,0.00599
2453.66499,0.00559
2451.60482,0.00510
2449.54465,0.00506
2447.48447,0.00552
2445.42430,0.00587
2443.36413,0.00578
2441.30396,0.00538
2439.24379,0.00500
2437.18361,0.00485
2435.12344,0.00481
2433.06327,0.00475
2431.00310,0.00479
2428.94293,0.00493
2426.88275,0.00497
2424.82258,0.00492
2422.76241,0.00495
2420.70224,0.00507
2418.64207,0.00511
2416.58189,0.00497
2414.52172,0.00479
2412.46155,0.00515
2410.40138,0.00593
2408.34120,0.00617
2406.28103,0.00581
2404.22086,0.00552
2402.16069,0.00544
2400.10052,0.00528
2398.04034,0.00468
2395.98017,0.00445
2393.92000,0.00460
2391.85983,0.00501
2389.79966,0.00548
2387.73948,0.00578
2385.67931,0.00596
2383.61914,0.00601
2381.55897,0.00600
2379.49880,0.00604
2377.43862,0.00597
2375.37845,0.00559
2373.31828,0.00574
2371.25811,0.00648
2369.19793,0.00656
2367.13776,0.00631
2365.07759,0.00665
2363.01742,0.00675
2360.95725,0.00798
2358.89707,0.00871
2356.83690,0.00862
2354.77673,0.00759
2352.71656,0.00667
2350.65639,0.00845
2348.59621,0.00997
2346.53604,0.00748
2344.47587,0.00663
2342.41570,0.00714
2340.35552,0.00833
2338.29535,0.00958
2336.23518,0.00929
2334.17501,0.00824
2332.11484,0.00766
2330.05466,0.00827
2327.99449,0.00887
2325.93432,0.00946
2323.87415,0.00910
2321.81398,0.00810
2319.75380,0.00672
2317.69363,0.00644
2315.63346,0.00631
2313.57329,0.00608
2311.51312,0.00623
2309.45294,0.00668
2307.39277,0.00728
2305.33260,0.00791
2303.27243,0.00826
2301.21225,0.00800
2299.15208,0.00753
2297.09191,0.00679
2295.03174,0.00598
2292.97157,0.00578
2290.91139,0.00606
2288.85122,0.00618
2286.79105,0.00601
2284.73088,0.00591
2282.67071,0.00590
2280.61053,0.00564
2278.55036,0.00508
2276.49019,0.00461
2274.43002,0.00471
2272.36984,0.00543
2270.30967,0.00607
2268.24950,0.00585
2266.18933,0.00497
2264.12916,0.00417
2262.06898,0.00395
2260.00881,0.00421
2257.94864,0.00487
2255.88847,0.00561
2253.82830,0.00580
2251.76812,0.00540
2249.70795,0.00517
2247.64778,0.00583
2245.58761,0.00622
2243.52744,0.00538
2241.46726,0.00409
2239.40709,0.00355
2237.34692,0.00386
2235.28675,0.00458
2233.22657,0.00512
2231.16640,0.00500
2229.10623,0.00431
2227.04606,0.00397
2224.98589,0.00457
2222.92571,0.00524
2220.86554,0.00532
2218.80537,0.00498
2216.74520,0.00465
2214.68503,0.00458
2212.62485,0.00426
2210.56468,0.00358
2208.50451,0.00273
2206.44434,0.00236
2204.38417,0.00336
2202.32399,0.00504
2200.26382,0.00591
2198.20365,0.00553
2196.14348,0.00485
2194.08330,0.00485
2192.02313,0.00582
2189.96296,0.00665
2187.90279,0.00609
2185.84262,0.00466
2183.78244,0.00357
2181.72227,0.00382
2179.66210,0.00466
2177.60193,0.00478
2175.54176,0.00434
2173.48158,0.00416
2171.42141,0.00467
2169.36124,0.00490
2167.30107,0.00396
2165.24089,0.00329
2163.18072,0.00364
2161.12055,0.00299
2159.06038,0.00151
2157.00021,0.00168
2154.94003,0.00296
2152.87986,0.00342
2150.81969,0.00246
2148.75952,0.00089
2146.69935,0.00036
2144.63917,0.00147
2142.57900,0.00322
2140.51883,0.00427
2138.45866,0.00409
2136.39849,0.00288
2134.33831,0.00182
2132.27814,0.00206
2130.21797,0.00299
2128.15780,0.00377
2126.09762,0.00411
2124.03745,0.00381
2121.97728,0.00350
2119.91711,0.00369
2117.85694,0.00344
2115.79676,0.00252
2113.73659,0.00192
2111.67642,0.00204
2109.61625,0.00257
2107.55608,0.00282
2105.49590,0.00273
2103.43573,0.00261
2101.37556,0.00272
2099.31539,0.00327
2097.25521,0.00351
2095.19504,0.00354
2093.13487,0.00374
2091.07470,0.00351
2089.01453,0.00299
2086.95435,0.00308
2084.89418,0.00344
2082.83401,0.00365
2080.77384,0.00404
2078.71367,0.00428
2076.65349,0.00389
2074.59332,0.00341
2072.53315,0.00323
2070.47298,0.00328
2068.41281,0.00343
2066.35263,0.00317
2064.29246,0.00265
2062.23229,0.00283
2060.17212,0.00341
2058.11194,0.00349
2056.05177,0.00368
2053.99160,0.00458
2051.93143,0.00530
2049.87126,0.00471
2047.81108,0.00352
2045.75091,0.00367
2043.69074,0.00484
2041.63057,0.00493
2039.57040,0.00378
2037.51022,0.00335
2035.45005,0.00415
2033.38988,0.00506
2031.32971,0.00517
2029.26954,0.00469
2027.20936,0.00445
2025.14919,0.00439
2023.08902,0.00421
2021.02885,0.00401
2018.96867,0.00430
2016.90850,0.00500
2014.84833,0.00501
2012.78816,0.00362
2010.72799,0.00217
2008.66781,0.00244
2006.60764,0.00359
2004.54747,0.00403
2002.48730,0.00361
2000.42713,0.00295
1998.36695,0.00263
1996.30678,0.00268
1994.24661,0.00270
1992.18644,0.00273
1990.12626,0.00269
1988.06609,0.00156
1986.00592,0.00000
1983.94575,-0.00000
1981.88558,0.00125
1979.82540,0.00255
1977.76523,0.00390
1975.70506,0.00432
1973.64489,0.00318
1971.58472,0.00176
1969.52454,0.00172
1967.46437,0.00321
1965.40420,0.00405
1963.34403,0.00301
1961.28386,0.00184
1959.22368,0.00138
1957.16351,0.00044
1955.10334,-0.00041
1953.04317,0.00054
1950.98299,0.00267
1948.92282,0.00349
1946.86265,0.00241
1944.80248,0.00131
1942.74231,0.00134
1940.68213,0.00186
1938.62196,0.00195
1936.56179,0.00181
1934.50162,0.00186
1932.44145,0.00193
1930.38127,0.00152
1928.32110,0.00070
1926.26093,0.00037
1924.20076,0.00126
1922.14059,0.00272
1920.08041,0.00352
1918.02024,0.00366
1915.96007,0.00370
1913.89990,0.00387
1911.83972,0.00403
1909.77955,0.00390
1907.71938,0.00352
1905.65921,0.00307
1903.59904,0.00263
1901.53886,0.00236
1899.47869,0.00227
1897.41852,0.00221
1895.35835,0.00210
1893.29818,0.00198
1891.23800,0.00192
1889.17783,0.00190
1887.11766,0.00195
1885.05749,0.00210
1882.99731,0.00231
1880.93714,0.00244
1878.87697,0.00239
1876.81680,0.00217
1874.75663,0.00207
1872.69645,0.00232
1870.63628,0.00265
1868.57611,0.00272
1866.51594,0.00239
1864.45577,0.00178
1862.39559,0.00127
1860.33542,0.00117
1858.27525,0.00151
1856.21508,0.00201
1854.15491,0.00235
1852.09473,0.00241
1850.03456,0.00232
1847.97439,0.00226
1845.91422,0.00237
1843.85404,0.00245
1841.79387,0.00223
1839.73370,0.00204
1837.67353,0.00222
1835.61336,0.00240
1833.55318,0.00229
1831.49301,0.00220
1829.43284,0.00214
1827.37267,0.00201
1825.31250,0.00203
1823.25232,0.00216
1821.19215,0.00215
1819.13198,0.00201
1817.07181,0.00196
1815.01163,0.00204
1812.95146,0.00232
1810.89129,0.00266
1808.83112,0.00261
1806.77095,0.00217
1804.71077,0.00190
1802.65060,0.00200
1800.59043,0.00214
1798.53026,0.00207
1796.47009,0.00201
1794.40991,0.00214
1792.34974,0.00215
1790.28957,0.00197
1788.22940,0.00189
1786.16923,0.00188
1784.10905,0.00175
1782.04888,0.00166
1779.98871,0.00179
1777.92854,0.00206
1775.86836,0.00239
1773.80819,0.00261
1771.74802,0.00259
1769.68785,0.00258
1767.62768,0.00275
1765.56750,0.00297
1763.50733,0.00306
1761.44716,0.00298
1759.38699,0.00290
1757.32682,0.00290
1755.26664,0.00282
1753.20647,0.00271
1751.14630,0.00288
1749.08613,0.00324
1747.02596,0.00343
1744.96578,0.00339
1742.90561,0.00335
1740.84544,0.00363
1738.78527,0.00396
1736.72509,0.00401
1734.66492,0.00399
1732.60475,0.00409
1730.54458,0.00416
1728.48441,0.00421
1726.42423,0.00432
1724.36406,0.00444
1722.30389,0.00450
1720.24372,0.00463
1718.18355,0.00489
1716.12337,0.00509
1714.06320,0.00518
1712.00303,0.00530
1709.94286,0.00547
1707.88268,0.00565
1705.82251,0.00580
1703.76234,0.00588
1701.70217,0.00606
1699.64200,0.00639
1697.58182,0.00671
1695.52165,0.00696
1693.46148,0.00722
1691.40131,0.00759
1689.34114,0.00804
1687.28096,0.00849
1685.22079,0.00904
1683.16062,0.00965
1681.10045,0.00991
1679.04028,0.00995
1676.98010,0.01017
1674.91993,0.01050
1672.85976,0.01077
1670.79959,0.01121
1668.73941,0.01176
1666.67924,0.01209
1664.61907,0.01248
1662.55890,0.01303
1660.49873,0.01326
1658.43855,0.01321
1656.37838,0.01330
1654.31821,0.01357
1652.25804,0.01352
1650.19787,0.01316
1648.13769,0.01306
1646.07752,0.01329
1644.01735,0.01335
1641.95718,0.01323
1639.89701,0.01328
1637.83683,0.01352
1635.77666,0.01341
1633.71649,0.01282
1631.65632,0.01231
1629.59614,0.01201
1627.53597,0.01177
1625.47580,0.01161
1623.41563,0.01157
1621.35546,0.01147
1619.29528,0.01134
1617.23511,0.01116
1615.17494,0.01073
1613.11477,0.01018
1611.05460,0.00986
1608.99442,0.00988
1606.93425,0.00985
1604.87408,0.00956
1602.81391,0.00921
1600.75373,0.00897
1598.69356,0.00887
1596.63339,0.00884
1594.57322,0.00877
1592.51305,0.00856
1590.45287,0.00819
1588.39270,0.00776
1586.33253,0.00741
1584.27236,0.00706
1582.21219,0.00668
1580.15201,0.00645
1578.09184,0.00637
1576.03167,0.00616
1573.97150,0.00582
1571.91133,0.00567
1569.85115,0.00579
1567.79098,0.00591
1565.73081,0.00587
1563.67064,0.00575
1561.61046,0.00580
1559.55029,0.00605
1557.49012,0.00599
1555.42995,0.00550
1553.36978,0.00506
1551.30960,0.00475
1549.24943,0.00447
1547.18926,0.00420
1545.12909,0.00386
1543.06892,0.00341
1541.00874,0.00325
1538.94857,0.00337
1536.88840,0.00331
1534.82823,0.00320
1532.76805,0.00322
1530.70788,0.00325
1528.64771,0.00322
1526.58754,0.00315
1524.52737,0.00303
1522.46719,0.00292
1520.40702,0.00289
1518.34685,0.00280
1516.28668,0.00252
1514.22651,0.00226
1512.16633,0.00221
1510.10616,0.00239
1508.04599,0.00258
1505.98582,0.00252
1503.92565,0.00243
1501.86547,0.00251
1499.80530,0.00268
1497.74513,0.00267
1495.68496,0.00240
1493.62478,0.00215
1491.56461,0.00217
1489.50444,0.00230
1487.44427,0.00216
1485.38410,0.00185
1483.32392,0.00167
1481.26375,0.00165
1479.20358,0.00156
1477.14341,0.00128
1475.08324,0.00108
1473.02306,0.00132
1470.96289,0.00173
1468.90272,0.00186
1466.84255,0.00189
1464.78238,0.00206
1462.72220,0.00229
1460.66203,0.00243
1458.60186,0.00247
1456.54169,0.00235
1454.48151,0.00214
1452.42134,0.00193
1450.36117,0.00180
1448.30100,0.00181
1446.24083,0.00195
1444.18065,0.00205
1442.12048,0.00205
1440.06031,0.00203
1438.00014,0.00203
1435.93997,0.00200
1433.87979,0.00194
1431.81962,0.00190
1429.75945,0.00200
1427.69928,0.00222
1425.63910,0.00242
1423.57893,0.00253
1421.51876,0.00254
1419.45859,0.00248
1417.39842,0.00242
1415.33824,0.00244
1413.27807,0.00246
1411.21790,0.00246
1409.15773,0.00253
1407.09756,0.00269
1405.03738,0.00280
1402.97721,0.00281
1400.91704,0.00274
1398.85687,0.00253
1396.79670,0.00223
1394.73652,0.00199
1392.67635,0.00185
1390.61618,0.00183
1388.55601,0.00191
1386.49583,0.00194
1384.43566,0.00179
1382.37549,0.00160
1380.31532,0.00151
1378.25515,0.00161
1376.19497,0.00181
1374.13480,0.00190
1372.07463,0.00179
1370.01446,0.00161
1367.95429,0.00148
1365.89411,0.00141
1363.83394,0.00141
1361.77377,0.00143
1359.71360,0.00132
1357.65343,0.00114
1355.59325,0.00107
1353.53308,0.00110
1351.47291,0.00114
1349.41274,0.00112
1347.35256,0.00102
1345.29239,0.00092
1343.23222,0.00091
1341.17205,0.00100
1339.11188,0.00108
1337.05170,0.00105
1334.99153,0.00097
1332.93136,0.00096
1330.87119,0.00104
1328.81102,0.00113
1326.75084,0.00115
1324.69067,0.00110
1322.63050,0.00102
1320.57033,0.00093
1318.51015,0.00094
1316.44998,0.00108
1314.38981,0.00118
1312.32964,0.00116
1310.26947,0.00112
1308.20929,0.00119
1306.14912,0.00130
1304.08895,0.00125
1302.02878,0.00115
1299.96861,0.00115
1297.90843,0.00124
1295.84826,0.00127
1293.78809,0.00123
1291.72792,0.00118
1289.66775,0.00117
1287.60757,0.00120
1285.54740,0.00117
1283.48723,0.00108
1281.42706,0.00119
1279.36688,0.00145
1277.30671,0.00159
1275.24654,0.00170
1273.18637,0.00184
1271.12620,0.00185
1269.06602,0.00173
1267.00585,0.00167
1264.94568,0.00181
1262.88551,0.00199
1260.82534,0.00198
1258.76516,0.00190
1256.70499,0.00185
1254.64482,0.00187
1252.58465,0.00198
1250.52447,0.00203
1248.46430,0.00199
1246.40413,0.00200
1244.34396,0.00206
1242.28379,0.00207
1240.22361,0.00206
1238.16344,0.00196
1236.10327,0.00185
1234.04310,0.00199
1231.98293,0.00213
1229.92275,0.00201
1227.86258,0.00186
1225.80241,0.00176
1223.74224,0.00156
1221.68207,0.00133
1219.62189,0.00113
1217.56172,0.00098
1215.50155,0.00090
1213.44138,0.00076
1211.38120,0.00068
1209.32103,0.00073
1207.26086,0.00058
1205.20069,0.00019
1203.14052,0.00000
1201.08034,0.00017
1199.02017,0.00038
1196.96000,0.00021
1194.89983,-0.00009
1192.83966,-0.00006
1190.77948,0.00015
1188.71931,0.00031
1186.65914,0.00039
1184.59897,0.00032
1182.53880,0.00009
1180.47862,-0.00006
1178.41845,0.00002
1176.35828,0.00021
1174.29811,0.00037
1172.23793,0.00054
1170.17776,0.00078
1168.11759,0.00088
1166.05742,0.00072
1163.99725,0.00074
1161.93707,0.00115
1159.87690,0.00156
1157.81673,0.00176
1155.75656,0.00193
1153.69639,0.00228
1151.63621,0.00277
1149.57604,0.00326
1147.51587,0.00355
1145.45570,0.00373
1143.39552,0.00396
1141.33535,0.00442
1139.27518,0.00516
1137.21501,0.00591
1135.15484,0.00652
1133.09466,0.00712
1131.03449,0.00783
1128.97432,0.00872
1126.91415,0.00973
1124.85398,0.01070
1122.79380,0.01161
1120.73363,0.01273
1118.67346,0.01393
1116.61329,0.01496
1114.55312,0.01593
1112.49294,0.01699
1110.43277,0.01816
1108.37260,0.01936
1106.31243,0.02055
1104.25225,0.02176
1102.19208,0.02292
1100.13191,0.02397
1098.07174,0.02499
1096.01157,0.02596
1093.95139,0.02677
1091.89122,0.02749
1089.83105,0.02837
1087.77088,0.02934
1085.71071,0.03022
1083.65053,0.03113
1081.59036,0.03206
1079.53019,0.03276
1077.47002,0.03333
1075.40985,0.03385
1073.34967,0.03421
1071.28950,0.03448
1069.22933,0.03475
1067.16916,0.03503
1065.10898,0.03517
1063.04881,0.03513
1060.98864,0.03504
1058.92847,0.03477
1056.86830,0.03422
1054.80812,0.03352
1052.74795,0.03282
1050.68778,0.03196
1048.62761,0.03081
1046.56744,0.02943
1044.50726,0.02798
1042.44709,0.02648
1040.38692,0.02496
1038.32675,0.02355
1036.26657,0.02205
1034.20640,0.02022
1032.14623,0.01839
1030.08606,0.01688
1028.02589,0.01583
1025.96571,0.01519
1023.90554,0.01436
1021.84537,0.01318
1019.78520,0.01226
1017.72503,0.01189
1015.66485,0.01182
1013.60468,0.01181
1011.54451,0.01190
1009.48434,0.01216
1007.42417,0.01269
1005.36399,0.01352
1003.30382,0.01430
1001.24365,0.01505
999.18348,0.01595
997.12330,0.01683
995.06313,0.01768
993.00296,0.01858
990.94279,0.01951
988.88262,0.02044
986.82244,0.02102
984.76227,0.02133
982.70210,0.02170
980.64193,0.02201
978.58176,0.02198
976.52158,0.02152
974.46141,0.02071
972.40124,0.01965
970.34107,0.01866
968.28089,0.01790
966.22072,0.01690
964.16055,0.01553
962.10038,0.01403
960.04021,0.01255
957.98003,0.01129
955.91986,0.01030
953.85969,0.00945
951.79952,0.00873
949.73935,0.00791
947.67917,0.00683
945.61900,0.00597
943.55883,0.00574
941.49866,0.00557
939.43849,0.00493
937.37831,0.00421
935.31814,0.00371
933.25797,0.00336
931.19780,0.00312
929.13762,0.00267
927.07745,0.00208
925.01728,0.00167
922.95711,0.00125
920.89694,0.00091
918.83676,0.00085
916.77659,0.00079
914.71642,0.00067
912.65625,0.00067
910.59608,0.00061
908.53590,0.00064
906.47573,0.00117
904.41556,0.00169
902.35539,0.00166
900.29522,0.00130
898.23504,0.00094
896.17487,0.00080
894.11470,0.00115
892.05453,0.00185
889.99435,0.00235
887.93418,0.00255
885.87401,0.00279
883.81384,0.00299
881.75367,0.00340
879.69349,0.00431
877.63332,0.00511
875.57315,0.00554
873.51298,0.00611
871.45281,0.00686
869.39263,0.00733
867.33246,0.00746
865.27229,0.00753
863.21212,0.00777
861.15194,0.00807
859.09177,0.00838
857.03160,0.00891
854.97143,0.00930
852.91126,0.00907
850.85108,0.00880
848.79091,0.00866
846.73074,0.00794
844.67057,0.00719
842.61040,0.00709
840.55022,0.00707
838.49005,0.00707
836.42988,0.00728
834.36971,0.00720
832.30954,0.00658
830.24936,0.00583
828.18919,0.00555
826.12902,0.00567
824.06885,0.00560
822.00867,0.00511
819.94850,0.00446
817.88833,0.00426
815.82816,0.00422
813.76799,0.00358
811.70781,0.00282
809.64764,0.00263
807.58747,0.00285
805.52730,0.00298
803.46713,0.00283
801.40695,0.00278
799.34678,0.00268
797.28661,0.00222
795.22644,0.00186
793.16627,0.00185
791.10609,0.00189
789.04592,0.00201
786.98575,0.00254
784.92558,0.00327
782.86540,0.00342
780.80523,0.00286
778.74506,0.00238
776.68489,0.00264
774.62472,0.00325
772.56454,0.00317
770.50437,0.00262
768.44420,0.00284
766.38403,0.00338
764.32386,0.00298
762.26368,0.00232
760.20351,0.00239
758.14334,0.00266
756.08317,0.00261
754.02299,0.00264
751.96282,0.00292
749.90265,0.00290
747.84248,0.00251
745.78231,0.00209
743.72213,0.00186
741.66196,0.00212
739.60179,0.00289
737.54162,0.00403
735.48145,0.00434
733.42127,0.00337
731.36110,0.00275
729.30093,0.00270
727.24076,0.00232
725.18059,0.00199
723.12041,0.00236
721.06024,0.00234
719.00007,0.00299
716.93990,0.00347
714.87972,0.00353
712.81955,0.00388
710.75938,0.00446
708.69921,0.00493
706.63904,0.00518
704.57886,0.00544
702.51869,0.00555
700.45852,0.00525
698.39835,0.00502
696.33818,0.00525
694.27800,0.00548
692.21783,0.00531
690.15766,0.00510
688.09749,0.00539
686.03731,0.00594
683.97714,0.00648
681.91697,0.00685
679.85680,0.00677
677.79663,0.00649
675.73645,0.00635
673.67628,0.00682
671.61611,0.00727
669.55594,0.00320
667.49577,0.00000
665.43559,0.00626
663.37542,0.00699
661.31525,0.00690
659.25508,0.00757
657.19491,0.00726
655.13473,0.00568
653.07456,0.00430
651.01439,0.00413
648.95422,0.00501
646.89404,0.00684
644.83387,0.00819
642.77370,0.00799
640.71353,0.00711
638.65336,0.00681
636.59318,0.00635
634.53301,0.00534
632.47284,0.00533
630.41267,0.00648
628.35250,0.00669
626.29232,0.00545
624.23215,0.00452
622.17198,0.00348
620.11181,0.00326
618.05164,0.00480
615.99146,0.00454
613.93129,0.00144
611.87112,0.00000
609.81095,0.00067
607.75077,0.00161
605.69060,0.00232
603.63043,0.00359
601.57026,0.00311
599.51009,0.00000
