3996.73391,-0.00053
3994.67373,-0.00064
3992.61356,-0.00076
3990.55339,-0.00072
3988.49322,-0.00056
3986.43305,-0.00041
3984.37287,-0.00031
3982.31270,-0.00032
3980.25253,-0.00044
3978.19236,-0.00047
3976.13219,-0.00040
3974.07201,-0.00022
3972.01184,0.00000
3969.95167,0.00016
3967.89150,0.00031
3965.83133,0.00048
3963.77115,0.00052
3961.71098,0.00038
3959.65081,0.00027
3957.59064,0.00032
3955.53046,0.00049
3953.47029,0.00062
3951.41012,0.00052
3949.34995,0.00021
3947.28978,0.00000
3945.22960,0.00003
3943.16943,0.00008
3941.10926,0.00016
3939.04909,0.00031
3936.98892,0.00034
3934.92874,0.00014
3932.86857,0.00006
3930.80840,0.00045
3928.74823,0.00100
3926.68805,0.00121
3924.62788,0.00100
3922.56771,0.00055
3920.50754,0.00017
3918.44737,0.00000
3916.38719,0.00029
3914.32702,0.00091
3912.26685,0.00127
3910.20668,0.00130
3908.14651,0.00121
3906.08633,0.00092
3904.02616,0.00051
3901.96599,0.00058
3899.90582,0.00124
3897.84565,0.00159
3895.78547,0.00127
3893.72530,0.00072
3891.66513,0.00044
3889.60496,0.00046
3887.54478,0.00043
3885.48461,0.00030
3883.42444,0.00012
3881.36427,0.00006
3879.30410,0.00030
3877.24392,0.00052
3875.18375,0.00051
3873.12358,0.00038
3871.06341,0.00036
3869.00324,0.00065
3866.94306,0.00086
3864.88289,0.00084
3862.82272,0.00074
3860.76255,0.00061
3858.70237,0.00036
3856.64220,0.00000
3854.58203,0.00015
3852.52186,0.00126
3850.46169,0.00225
3848.40151,0.00216
3846.34134,0.00186
3844.28117,0.00193
3842.22100,0.00191
3840.16083,0.00151
3838.10065,0.00120
3836.04048,0.00134
3833.98031,0.00164
3831.92014,0.00200
3829.85997,0.00241
3827.79979,0.00253
3825.73962,0.00220
3823.67945,0.00173
3821.61928,0.00156
3819.55910,0.00162
3817.49893,0.00194
3815.43876,0.00253
3813.37859,0.00282
3811.31842,0.00257
3809.25824,0.00238
3807.19807,0.00245
3805.13790,0.00245
3803.07773,0.00260
3801.01756,0.00303
3798.95738,0.00316
3796.89721,0.00306
3794.83704,0.00327
3792.77687,0.00356
3790.71670,0.00356
3788.65652,0.00342
3786.59635,0.00344
3784.53618,0.00360
3782.47601,0.00385
3780.41583,0.00426
3778.35566,0.00461
3776.29549,0.00462
3774.23532,0.00438
3772.17515,0.00410
3770.11497,0.00379
3768.05480,0.00348
3765.99463,0.00342
3763.93446,0.00342
3761.87429,0.00314
3759.81411,0.00261
3757.75394,0.00203
3755.69377,0.00169
3753.63360,0.00159
3751.57342,0.00128
3749.51325,0.00064
3747.45308,0.00017
3745.39291,0.00000
3743.33274,0.00057
3741.27256,0.00105
3739.21239,0.00085
3737.15222,0.00067
3735.09205,0.00086
3733.03188,0.00124
3730.97170,0.00176
3728.91153,0.00197
3726.85136,0.00207
3724.79119,0.00239
3722.73102,0.00266
3720.67084,0.00319
3718.61067,0.00335
3716.55050,0.00331
3714.49033,0.00342
3712.43015,0.00352
3710.36998,0.00405
3708.30981,0.00426
3706.24964,0.00427
3704.18947,0.00422
3702.12929,0.00423
3700.06912,0.00440
3698.00895,0.00451
3695.94878,0.00463
3693.88861,0.00473
3691.82843,0.00512
3689.76826,0.00532
3687.70809,0.00534
3685.64792,0.00506
3683.58775,0.00480
3681.52757,0.00460
3679.46740,0.00432
3677.40723,0.00396
3675.34706,0.00419
3673.28688,0.00476
3671.22671,0.00517
3669.16654,0.00544
3667.10637,0.00540
3665.04620,0.00530
3662.98602,0.00539
3660.92585,0.00549
3658.86568,0.00552
3656.80551,0.00547
3654.74534,0.00531
3652.68516,0.00523
3650.62499,0.00554
3648.56482,0.00607
3646.50465,0.00669
3644.44447,0.00678
3642.38430,0.00670
3640.32413,0.00679
3638.26396,0.00681
3636.20379,0.00666
3634.14361,0.00654
3632.08344,0.00676
3630.02327,0.00721
3627.96310,0.00764
3625.90293,0.00752
3623.84275,0.00731
3621.78258,0.00721
3619.72241,0.00715
3617.66224,0.00736
3615.60207,0.00748
3613.54189,0.00759
3611.48172,0.00743
3609.42155,0.00753
3607.36138,0.00808
3605.30120,0.00854
3603.24103,0.00907
3601.18086,0.00952
3599.12069,0.00982
3597.06052,0.00976
3595.00034,0.00990
3592.94017,0.00996
3590.88000,0.01020
3588.81983,0.01019
3586.75966,0.01020
3584.69948,0.01063
3582.63931,0.01129
3580.57914,0.01182
3578.51897,0.01211
3576.45879,0.01234
3574.39862,0.01258
3572.33845,0.01289
3570.27828,0.01312
3568.21811,0.01313
3566.15793,0.01326
3564.09776,0.01361
3562.03759,0.01373
3559.97742,0.01374
3557.91725,0.01388
3555.85707,0.01409
3553.79690,0.01435
3551.73673,0.01447
3549.67656,0.01420
3547.61639,0.01371
3545.55621,0.01358
3543.49604,0.01419
3541.43587,0.01514
3539.37570,0.01589
3537.31552,0.01618
3535.25535,0.01621
3533.19518,0.01638
3531.13501,0.01675
3529.07484,0.01689
3527.01466,0.01657
3524.95449,0.01634
3522.89432,0.01668
3520.83415,0.01733
3518.77398,0.01781
3516.71380,0.01807
3514.65363,0.01831
3512.59346,0.01848
3510.53329,0.01843
3508.47312,0.01831
3506.41294,0.01825
3504.35277,0.01827
3502.29260,0.01845
3500.23243,0.01890
3498.17225,0.01941
3496.11208,0.01982
3494.05191,0.02015
3491.99174,0.02036
3489.93157,0.02049
3487.87139,0.02064
3485.81122,0.02079
3483.75105,0.02093
3481.69088,0.02111
3479.63071,0.02118
3477.57053,0.02129
3475.51036,0.02169
3473.45019,0.02215
3471.39002,0.02230
3469.32984,0.02229
3467.26967,0.02232
3465.20950,0.02238
3463.14933,0.02247
3461.08916,0.02266
3459.02898,0.02300
3456.96881,0.02333
3454.90864,0.02361
3452.84847,0.02391
3450.78830,0.02409
3448.72812,0.02397
3446.66795,0.02366
3444.60778,0.02348
3442.54761,0.02365
3440.48744,0.02388
3438.42726,0.02403
3436.36709,0.02427
3434.30692,0.02460
3432.24675,0.02480
3430.18657,0.02492
3428.12640,0.02502
3426.06623,0.02497
3424.00606,0.02476
3421.94589,0.02469
3419.88571,0.02492
3417.82554,0.02544
3415.76537,0.02593
3413.70520,0.02608
3411.64503,0.02614
3409.58485,0.02634
3407.52468,0.02650
3405.46451,0.02651
3403.40434,0.02639
3401.34416,0.02618
3399.28399,0.02555
3397.22382,0.02586
3395.16365,0.02635
3393.10348,0.02657
3391.04330,0.02656
3388.98313,0.02672
3386.92296,0.02710
3384.86279,0.02746
3382.80262,0.02774
3380.74244,0.02789
3378.68227,0.02801
3376.62210,0.02817
3374.56193,0.02822
3372.50176,0.02817
3370.44158,0.02819
3368.38141,0.02819
3366.32124,0.02814
3364.26107,0.02834
3362.20089,0.02878
3360.14072,0.02907
3358.08055,0.02908
3356.02038,0.02895
3353.96021,0.02884
3351.90003,0.02880
3349.83986,0.02894
3347.77969,0.02922
3345.71952,0.02947
3343.65935,0.02968
3341.59917,0.02976
3339.53900,0.02955
3337.47883,0.02940
3335.41866,0.02956
3333.35849,0.02985
3331.29831,0.03011
3329.23814,0.03030
3327.17797,0.03035
3325.11780,0.03037
3323.05762,0.03044
3320.99745,0.03056
3318.93728,0.03061
3316.87711,0.03055
3314.81694,0.03043
3312.75676,0.03037
3310.69659,0.03050
3308.63642,0.03073
3306.57625,0.03088
3304.51608,0.03105
3302.45590,0.03132
3300.39573,0.03150
3298.33556,0.03147
3296.27539,0.03135
3294.21521,0.03123
3292.15504,0.03116
3290.09487,0.03120
3288.03470,0.03143
3285.97453,0.03169
3283.91435,0.03180
3281.85418,0.03191
3279.79401,0.03192
3277.73384,0.03176
3275.67367,0.03166
3273.61349,0.03174
3271.55332,0.03188
3269.49315,0.03201
3267.43298,0.03215
3265.37281,0.03226
3263.31263,0.03225
3261.25246,0.03220
3259.19229,0.03235
3257.13212,0.03258
3255.07194,0.03275
3253.01177,0.03283
3250.95160,0.03282
3248.89143,0.03285
3246.83126,0.03290
3244.77108,0.03289
3242.71091,0.03295
3240.65074,0.03295
3238.59057,0.03286
3236.53040,0.03281
3234.47022,0.03293
3232.41005,0.03320
3230.34988,0.03342
3228.28971,0.03337
3226.22954,0.03321
3224.16936,0.03323
3222.10919,0.03328
3220.04902,0.03321
3217.98885,0.03322
3215.92867,0.03338
3213.86850,0.03354
3211.80833,0.03360
3209.74816,0.03363
3207.68799,0.03374
3205.62781,0.03385
3203.56764,0.03385
3201.50747,0.03379
3199.44730,0.03374
3197.38713,0.03365
3195.32695,0.03357
3193.26678,0.03361
3191.20661,0.03374
3189.14644,0.03397
3187.08626,0.03416
3185.02609,0.03405
3182.96592,0.03388
3180.90575,0.03386
3178.84558,0.03383
3176.78540,0.03391
3174.72523,0.03412
3172.66506,0.03421
3170.60489,0.03424
3168.54472,0.03428
3166.48454,0.03433
3164.42437,0.03441
3162.36420,0.03441
3160.30403,0.03435
3158.24386,0.03439
3156.18368,0.03444
3154.12351,0.03429
3152.06334,0.03412
3150.00317,0.03415
3147.94299,0.03422
3145.88282,0.03430
3143.82265,0.03434
3141.76248,0.03427
3139.70231,0.03421
3137.64213,0.03429
3135.58196,0.03440
3133.52179,0.03438
3131.46162,0.03435
3129.40145,0.03440
3127.34127,0.03436
3125.28110,0.03421
3123.22093,0.03410
3121.16076,0.03410
3119.10058,0.03411
3117.04041,0.03394
3114.98024,0.03369
3112.92007,0.03366
3110.85990,0.03382
3108.79972,0.03388
3106.73955,0.03380
3104.67938,0.03370
3102.61921,0.03365
3100.55904,0.03369
3098.49886,0.03379
3096.43869,0.03382
3094.37852,0.03374
3092.31835,0.03371
3090.25818,0.03371
3088.19800,0.03362
3086.13783,0.03356
3084.07766,0.03357
3082.01749,0.03348
3079.95731,0.03336
3077.89714,0.03337
3075.83697,0.03348
3073.77680,0.03363
3071.71663,0.03378
3069.65645,0.03377
3067.59628,0.03353
3065.53611,0.03331
3063.47594,0.03333
3061.41577,0.03347
3059.35559,0.03347
3057.29542,0.03319
3055.23525,0.03293
3053.17508,0.03293
3051.11491,0.03302
3049.05473,0.03295
3046.99456,0.03285
3044.93439,0.03281
3042.87422,0.03279
3040.81404,0.03274
3038.75387,0.03274
3036.69370,0.03279
3034.63353,0.03282
3032.57336,0.03274
3030.51318,0.03257
3028.45301,0.03244
3026.39284,0.03237
3024.33267,0.03232
3022.27250,0.03228
3020.21232,0.03224
3018.15215,0.03217
3016.09198,0.03193
3014.03181,0.03158
3011.97163,0.03136
3009.91146,0.03135
3007.85129,0.03138
3005.79112,0.03134
3003.73095,0.03135
3001.67077,0.03144
2999.61060,0.03144
2997.55043,0.03123
2995.49026,0.03116
2993.43009,0.03128
2991.36991,0.03144
2989.30974,0.03141
2987.24957,0.03127
2985.18940,0.03118
2983.12923,0.03114
2981.06905,0.03111
2979.00888,0.03106
2976.94871,0.03099
2974.88854,0.03093
2972.82836,0.03088
2970.76819,0.03097
2968.70802,0.03107
2966.64785,0.03102
2964.58768,0.03095
2962.52750,0.03095
2960.46733,0.03094
2958.40716,0.03099
2956.34699,0.03110
2954.28682,0.03107
2952.22664,0.03097
2950.16647,0.03094
2948.10630,0.03083
2946.04613,0.03066
2943.98596,0.03054
2941.92578,0.03045
2939.86561,0.03040
2937.80544,0.03040
2935.74527,0.03036
2933.68509,0.03032
2931.62492,0.03032
2929.56475,0.03032
2927.50458,0.03032
2925.44441,0.03034
2923.38423,0.03037
2921.32406,0.03053
2919.26389,0.03067
2917.20372,0.03063
2915.14355,0.03057
2913.08337,0.03052
2911.02320,0.03039
2908.96303,0.03024
2906.90286,0.03010
2904.84268,0.03000
2902.78251,0.03000
2900.72234,0.03006
2898.66217,0.03005
2896.60200,0.03003
2894.54182,0.03007
2892.48165,0.03006
2890.42148,0.02996
2888.36131,0.02992
2886.30114,0.02995
2884.24096,0.03004
2882.18079,0.03017
2880.12062,0.03015
2878.06045,0.02996
2876.00028,0.02978
2873.94010,0.02972
2871.87993,0.02981
2869.81976,0.02988
2867.75959,0.02988
2865.69941,0.02990
2863.63924,0.02989
2861.57907,0.02977
2859.51890,0.02962
2857.45873,0.02951
2855.39855,0.02953
2853.33838,0.02965
2851.27821,0.02971
2849.21804,0.02976
2847.15787,0.02984
2845.09769,0.02984
2843.03752,0.02972
2840.97735,0.02951
2838.91718,0.02930
2836.85700,0.02916
2834.79683,0.02913
2832.73666,0.02914
2830.67649,0.02915
2828.61632,0.02912
2826.55614,0.02910
2824.49597,0.02910
2822.43580,0.02899
2820.37563,0.02881
2818.31546,0.02884
2816.25528,0.02903
2814.19511,0.02914
2812.13494,0.02917
2810.07477,0.02918
2808.01460,0.02912
2805.95442,0.02894
2803.89425,0.02877
2801.83408,0.02874
2799.77391,0.02880
2797.71373,0.02885
2795.65356,0.02883
2793.59339,0.02876
2791.53322,0.02877
2789.47305,0.02880
2787.41287,0.02872
2785.35270,0.02862
2783.29253,0.02862
2781.23236,0.02865
2779.17219,0.02865
2777.11201,0.02861
2775.05184,0.02853
2772.99167,0.02844
2770.93150,0.02836
2768.87133,0.02832
2766.81115,0.02835
2764.75098,0.02836
2762.69081,0.02822
2760.63064,0.02793
2758.57046,0.02781
2756.51029,0.02795
2754.45012,0.02815
2752.38995,0.02831
2750.32978,0.02835
2748.26960,0.02820
2746.20943,0.02798
2744.14926,0.02784
2742.08909,0.02787
2740.02892,0.02794
2737.96874,0.02792
2735.90857,0.02786
2733.84840,0.02783
2731.78823,0.02786
2729.72805,0.02793
2727.66788,0.02789
2725.60771,0.02773
2723.54754,0.02759
2721.48737,0.02750
2719.42719,0.02744
2717.36702,0.02746
2715.30685,0.02752
2713.24668,0.02747
2711.18651,0.02736
2709.12633,0.02731
2707.06616,0.02726
2705.00599,0.02719
2702.94582,0.02718
2700.88565,0.02721
2698.82547,0.02717
2696.76530,0.02708
2694.70513,0.02700
2692.64496,0.02697
2690.58478,0.02698
2688.52461,0.02694
2686.46444,0.02683
2684.40427,0.02678
2682.34410,0.02676
2680.28392,0.02681
2678.22375,0.02692
2676.16358,0.02690
2674.10341,0.02672
2672.04324,0.02658
2669.98306,0.02652
2667.92289,0.02651
2665.86272,0.02656
2663.80255,0.02661
2661.74238,0.02662
2659.68220,0.02661
2657.62203,0.02657
2655.56186,0.02655
2653.50169,0.02653
2651.44151,0.02647
2649.38134,0.02637
2647.32117,0.02622
2645.26100,0.02615
2643.20083,0.02609
2641.14065,0.02590
2639.08048,0.02573
2637.02031,0.02587
2634.96014,0.02611
2632.89997,0.02615
2630.83979,0.02606
2628.77962,0.02599
2626.71945,0.02591
2624.65928,0.02579
2622.59910,0.02573
2620.53893,0.02576
2618.47876,0.02584
2616.41859,0.02595
2614.35842,0.02602
2612.29824,0.02602
2610.23807,0.02599
2608.17790,0.02590
2606.11773,0.02581
2604.05756,0.02584
2601.99738,0.02597
2599.93721,0.02610
2597.87704,0.02604
2595.81687,0.02582
2593.75670,0.02579
2591.69652,0.02595
2589.63635,0.02601
2587.57618,0.02595
2585.51601,0.02590
2583.45583,0.02581
2581.39566,0.02579
2579.33549,0.02585
2577.27532,0.02574
2575.21515,0.02562
2573.15497,0.02564
2571.09480,0.02562
2569.03463,0.02565
2566.97446,0.02582
2564.91429,0.02586
2562.85411,0.02582
2560.79394,0.02594
2558.73377,0.02605
2556.67360,0.02597
2554.61342,0.02583
2552.55325,0.02580
2550.49308,0.02591
2548.43291,0.02601
2546.37274,0.02591
2544.31256,0.02575
2542.25239,0.02579
2540.19222,0.02590
2538.13205,0.02581
2536.07188,0.02575
2534.01170,0.02591
2531.95153,0.02613
2529.89136,0.02628
2527.83119,0.02644
2525.77102,0.02671
2523.71084,0.02687
2521.65067,0.02673
2519.59050,0.02647
2517.53033,0.02641
2515.47015,0.02651
2513.40998,0.02653
2511.34981,0.02652
2509.28964,0.02664
2507.22947,0.02693
2505.16929,0.02728
2503.10912,0.02746
2501.04895,0.02723
2498.98878,0.02670
2496.92861,0.02649
2494.86843,0.02679
2492.80826,0.02717
2490.74809,0.02733
2488.68792,0.02727
2486.62775,0.02727
2484.56757,0.02737
2482.50740,0.02736
2480.44723,0.02732
2478.38706,0.02742
2476.32688,0.02754
2474.26671,0.02759
2472.20654,0.02753
2470.14637,0.02749
2468.08620,0.02758
2466.02602,0.02770
2463.96585,0.02785
2461.90568,0.02800
2459.84551,0.02803
2457.78534,0.02795
2455.72516,0.02790
2453.66499,0.02793
2451.60482,0.02801
2449.54465,0.02821
2447.48447,0.02850
2445.42430,0.02866
2443.36413,0.02861
2441.30396,0.02860
2439.24379,0.02866
2437.18361,0.02859
2435.12344,0.02843
2433.06327,0.02829
2431.00310,0.02825
2428.94293,0.02844
2426.88275,0.02860
2424.82258,0.02847
2422.76241,0.02828
2420.70224,0.02827
2418.64207,0.02824
2416.58189,0.02824
2414.52172,0.02832
2412.46155,0.02821
2410.40138,0.02798
2408.34120,0.02795
2406.28103,0.02808
2404.22086,0.02828
2402.16069,0.02850
2400.10052,0.02848
2398.04034,0.02862
2395.98017,0.02875
2393.92000,0.02883
2391.85983,0.02874
2389.79966,0.02859
2387.73948,0.02855
2385.67931,0.02880
2383.61914,0.02882
2381.55897,0.02824
2379.49880,0.02794
2377.43862,0.02785
2375.37845,0.02635
2373.31828,0.02737
2371.25811,0.02857
2369.19793,0.02768
2367.13776,0.02752
2365.07759,0.02962
2363.01742,0.02757
2360.95725,0.03061
2358.89707,0.02813
2356.83690,0.02593
2354.77673,0.02252
2352.71656,0.02426
2350.65639,0.03494
2348.59621,0.04235
2346.53604,0.02482
2344.47587,0.02146
2342.41570,0.02597
2340.35552,0.02961
2338.29535,0.02999
2336.23518,0.03021
2334.17501,0.03014
2332.11484,0.02885
2330.05466,0.02911
2327.99449,0.02656
2325.93432,0.02968
2323.87415,0.02801
2321.81398,0.02842
2319.75380,0.02552
2317.69363,0.02717
2315.63346,0.02727
2313.57329,0.02537
2311.51312,0.02584
2309.45294,0.02665
2307.39277,0.02740
2305.33260,0.02810
2303.27243,0.02865
2301.21225,0.02831
2299.15208,0.02835
2297.09191,0.02828
2295.03174,0.02769
2292.97157,0.02768
2290.91139,0.02780
2288.85122,0.02770
2286.79105,0.02768
2284.73088,0.02786
2282.67071,0.02803
2280.61053,0.02822
2278.55036,0.02821
2276.49019,0.02802
2274.43002,0.02817
2272.36984,0.02812
2270.30967,0.02796
2268.24950,0.02792
2266.18933,0.02795
2264.12916,0.02821
2262.06898,0.02888
2260.00881,0.02883
2257.94864,0.02821
2255.88847,0.02760
2253.82830,0.02726
2251.76812,0.02705
2249.70795,0.02711
2247.64778,0.02759
2245.58761,0.02816
2243.52744,0.02816
2241.46726,0.02784
2239.40709,0.02777
2237.34692,0.02744
2235.28675,0.02684
2233.22657,0.02705
2231.16640,0.02800
2229.10623,0.02857
2227.04606,0.02839
2224.98589,0.02799
2222.92571,0.02764
2220.86554,0.02738
2218.80537,0.02735
2216.74520,0.02715
2214.68503,0.02673
2212.62485,0.02665
2210.56468,0.02700
2208.50451,0.02728
2206.44434,0.02720
2204.38417,0.02725
2202.32399,0.02758
2200.26382,0.02727
2198.20365,0.02676
2196.14348,0.02721
2194.08330,0.02768
2192.02313,0.02762
2189.96296,0.02746
2187.90279,0.02689
2185.84262,0.02603
2183.78244,0.02573
2181.72227,0.02610
2179.66210,0.02662
2177.60193,0.02722
2175.54176,0.02737
2173.48158,0.02693
2171.42141,0.02654
2169.36124,0.02665
2167.30107,0.02721
2165.24089,0.02753
2163.18072,0.02678
2161.12055,0.02519
2159.06038,0.02445
2157.00021,0.02549
2154.94003,0.02687
2152.87986,0.02723
2150.81969,0.02703
2148.75952,0.02697
2146.69935,0.02680
2144.63917,0.02668
2142.57900,0.02702
2140.51883,0.02746
2138.45866,0.02741
2136.39849,0.02706
2134.33831,0.02687
2132.27814,0.02667
2130.21797,0.02652
2128.15780,0.02683
2126.09762,0.02711
2124.03745,0.02692
2121.97728,0.02673
2119.91711,0.02671
2117.85694,0.02643
2115.79676,0.02613
2113.73659,0.02624
2111.67642,0.02639
2109.61625,0.02623
2107.55608,0.02601
2105.49590,0.02599
2103.43573,0.02619
2101.37556,0.02671
2099.31539,0.02769
2097.25521,0.02786
2095.19504,0.02732
2093.13487,0.02660
2091.07470,0.02612
2089.01453,0.02610
2086.95435,0.02635
2084.89418,0.02672
2082.83401,0.02729
2080.77384,0.02789
2078.71367,0.02811
2076.65349,0.02796
2074.59332,0.02789
2072.53315,0.02775
2070.47298,0.02738
2068.41281,0.02733
2066.35263,0.02764
2064.29246,0.02752
2062.23229,0.02686
2060.17212,0.02634
2058.11194,0.02629
2056.05177,0.02657
2053.99160,0.02713
2051.93143,0.02784
2049.87126,0.02852
2047.81108,0.02916
2045.75091,0.02966
2043.69074,0.02963
2041.63057,0.02926
2039.57040,0.02919
2037.51022,0.02946
2035.45005,0.02946
2033.38988,0.02880
2031.32971,0.02771
2029.26954,0.02700
2027.20936,0.02726
2025.14919,0.02814
2023.08902,0.02889
2021.02885,0.02904
2018.96867,0.02874
2016.90850,0.02861
2014.84833,0.02871
2012.78816,0.02887
2010.72799,0.02939
2008.66781,0.02995
2006.60764,0.02971
2004.54747,0.02873
2002.48730,0.02757
2000.42713,0.02677
1998.36695,0.02645
1996.30678,0.02626
1994.24661,0.02637
1992.18644,0.02687
1990.12626,0.02702
1988.06609,0.02699
1986.00592,0.02753
1983.94575,0.02829
1981.88558,0.02891
1979.82540,0.02987
1977.76523,0.03085
1975.70506,0.03070
1973.64489,0.02986
1971.58472,0.02946
1969.52454,0.02934
1967.46437,0.02898
1965.40420,0.02840
1963.34403,0.02809
1961.28386,0.02823
1959.22368,0.02818
1957.16351,0.02786
1955.10334,0.02783
1953.04317,0.02801
1950.98299,0.02797
1948.92282,0.02783
1946.86265,0.02786
1944.80248,0.02797
1942.74231,0.02801
1940.68213,0.02797
1938.62196,0.02789
1936.56179,0.02789
1934.50162,0.02810
1932.44145,0.02821
1930.38127,0.02810
1928.32110,0.02807
1926.26093,0.02804
1924.20076,0.02783
1922.14059,0.02771
1920.08041,0.02753
1918.02024,0.02715
1915.96007,0.02718
1913.89990,0.02788
1911.83972,0.02861
1909.77955,0.02888
1907.71938,0.02882
1905.65921,0.02867
1903.59904,0.02854
1901.53886,0.02840
1899.47869,0.02823
1897.41852,0.02804
1895.35835,0.02788
1893.29818,0.02781
1891.23800,0.02793
1889.17783,0.02807
1887.11766,0.02807
1885.05749,0.02794
1882.99731,0.02774
1880.93714,0.02758
1878.87697,0.02755
1876.81680,0.02768
1874.75663,0.02800
1872.69645,0.02834
1870.63628,0.02856
1868.57611,0.02867
1866.51594,0.02863
1864.45577,0.02860
1862.39559,0.02863
1860.33542,0.02854
1858.27525,0.02840
1856.21508,0.02846
1854.15491,0.02861
1852.09473,0.02863
1850.03456,0.02848
1847.97439,0.02821
1845.91422,0.02784
1843.85404,0.02756
1841.79387,0.02764
1839.73370,0.02801
1837.67353,0.02831
1835.61336,0.02827
1833.55318,0.02829
1831.49301,0.02875
1829.43284,0.02905
1827.37267,0.02885
1825.31250,0.02865
1823.25232,0.02878
1821.19215,0.02906
1819.13198,0.02913
1817.07181,0.02891
1815.01163,0.02861
1812.95146,0.02830
1810.89129,0.02799
1808.83112,0.02784
1806.77095,0.02799
1804.71077,0.02816
1802.65060,0.02819
1800.59043,0.02827
1798.53026,0.02832
1796.47009,0.02826
1794.40991,0.02833
1792.34974,0.02843
1790.28957,0.02826
1788.22940,0.02790
1786.16923,0.02759
1784.10905,0.02763
1782.04888,0.02804
1779.98871,0.02836
1777.92854,0.02844
1775.86836,0.02866
1773.80819,0.02905
1771.74802,0.02893
1769.68785,0.02814
1767.62768,0.02764
1765.56750,0.02780
1763.50733,0.02819
1761.44716,0.02831
1759.38699,0.02815
1757.32682,0.02805
1755.26664,0.02806
1753.20647,0.02812
1751.14630,0.02821
1749.08613,0.02833
1747.02596,0.02833
1744.96578,0.02825
1742.90561,0.02835
1740.84544,0.02854
1738.78527,0.02858
1736.72509,0.02863
1734.66492,0.02878
1732.60475,0.02879
1730.54458,0.02871
1728.48441,0.02864
1726.42423,0.02864
1724.36406,0.02862
1722.30389,0.02875
1720.24372,0.02936
1718.18355,0.02990
1716.12337,0.02944
1714.06320,0.02877
1712.00303,0.02849
1709.94286,0.02861
1707.88268,0.02892
1705.82251,0.02904
1703.76234,0.02900
1701.70217,0.02932
1699.64200,0.02972
1697.58182,0.02964
1695.52165,0.02935
1693.46148,0.02923
1691.40131,0.02931
1689.34114,0.02962
1687.28096,0.03021
1685.22079,0.03104
1683.16062,0.03121
1681.10045,0.03084
1679.04028,0.03084
1676.98010,0.03144
1674.91993,0.03219
1672.85976,0.03276
1670.79959,0.03317
1668.73941,0.03319
1666.67924,0.03293
1664.61907,0.03295
1662.55890,0.03303
1660.49873,0.03267
1658.43855,0.03238
1656.37838,0.03278
1654.31821,0.03354
1652.25804,0.03353
1650.19787,0.03329
1648.13769,0.03335
1646.07752,0.03331
1644.01735,0.03285
1641.95718,0.03262
1639.89701,0.03301
1637.83683,0.03381
1635.77666,0.03419
1633.71649,0.03386
1631.65632,0.03353
1629.59614,0.03352
1627.53597,0.03364
1625.47580,0.03370
1623.41563,0.03362
1621.35546,0.03339
1619.29528,0.03357
1617.23511,0.03407
1615.17494,0.03403
1613.11477,0.03359
1611.05460,0.03334
1608.99442,0.03335
1606.93425,0.03349
1604.87408,0.03370
1602.81391,0.03379
1600.75373,0.03367
1598.69356,0.03359
1596.63339,0.03362
1594.57322,0.03355
1592.51305,0.03332
1590.45287,0.03311
1588.39270,0.03299
1586.33253,0.03288
1584.27236,0.03266
1582.21219,0.03238
1580.15201,0.03241
1578.09184,0.03266
1576.03167,0.03231
1573.97150,0.03140
1571.91133,0.03095
1569.85115,0.03091
1567.79098,0.03057
1565.73081,0.03003
1563.67064,0.02992
1561.61046,0.03060
1559.55029,0.03108
1557.49012,0.02987
1555.42995,0.02858
1553.36978,0.02801
1551.30960,0.02786
1549.24943,0.02779
1547.18926,0.02778
1545.12909,0.02809
1543.06892,0.02883
1541.00874,0.02959
1538.94857,0.02918
1536.88840,0.02815
1534.82823,0.02771
1532.76805,0.02772
1530.70788,0.02756
1528.64771,0.02744
1526.58754,0.02735
1524.52737,0.02728
1522.46719,0.02736
1520.40702,0.02717
1518.34685,0.02679
1516.28668,0.02640
1514.22651,0.02593
1512.16633,0.02575
1510.10616,0.02630
1508.04599,0.02729
1505.98582,0.02755
1503.92565,0.02694
1501.86547,0.02644
1499.80530,0.02667
1497.74513,0.02721
1495.68496,0.02745
1493.62478,0.02762
1491.56461,0.02795
1489.50444,0.02803
1487.44427,0.02784
1485.38410,0.02775
1483.32392,0.02776
1481.26375,0.02779
1479.20358,0.02791
1477.14341,0.02812
1475.08324,0.02833
1473.02306,0.02838
1470.96289,0.02816
1468.90272,0.02789
1466.84255,0.02793
1464.78238,0.02803
1462.72220,0.02799
1460.66203,0.02830
1458.60186,0.02871
1456.54169,0.02829
1454.48151,0.02779
1452.42134,0.02782
1450.36117,0.02827
1448.30100,0.02868
1446.24083,0.02882
1444.18065,0.02881
1442.12048,0.02883
1440.06031,0.02892
1438.00014,0.02902
1435.93997,0.02893
1433.87979,0.02885
1431.81962,0.02896
1429.75945,0.02915
1427.69928,0.02922
1425.63910,0.02932
1423.57893,0.02946
1421.51876,0.02949
1419.45859,0.02931
1417.39842,0.02914
1415.33824,0.02934
1413.27807,0.02972
1411.21790,0.02998
1409.15773,0.03013
1407.09756,0.03028
1405.03738,0.03034
1402.97721,0.03027
1400.91704,0.03011
1398.85687,0.02976
1396.79670,0.02949
1394.73652,0.02958
1392.67635,0.02977
1390.61618,0.02993
1388.55601,0.03016
1386.49583,0.03036
1384.43566,0.03040
1382.37549,0.03038
1380.31532,0.03036
1378.25515,0.03049
1376.19497,0.03072
1374.13480,0.03071
1372.07463,0.03045
1370.01446,0.03038
1367.95429,0.03051
1365.89411,0.03061
1363.83394,0.03050
1361.77377,0.03025
1359.71360,0.03024
1357.65343,0.03043
1355.59325,0.03060
1353.53308,0.03066
1351.47291,0.03065
1349.41274,0.03055
1347.35256,0.03040
1345.29239,0.03028
1343.23222,0.03016
1341.17205,0.02988
1339.11188,0.02952
1337.05170,0.02952
1334.99153,0.02990
1332.93136,0.03021
1330.87119,0.03025
1328.81102,0.03022
1326.75084,0.03027
1324.69067,0.03028
1322.63050,0.03019
1320.57033,0.03011
1318.51015,0.03001
1316.44998,0.02988
1314.38981,0.02983
1312.32964,0.02991
1310.26947,0.03007
1308.20929,0.03021
1306.14912,0.03026
1304.08895,0.03034
1302.02878,0.03043
1299.96861,0.03044
1297.90843,0.03035
1295.84826,0.03030
1293.78809,0.03035
1291.72792,0.03036
1289.66775,0.03030
1287.60757,0.03034
1285.54740,0.03048
1283.48723,0.03061
1281.42706,0.03065
1279.36688,0.03063
1277.30671,0.03060
1275.24654,0.03055
1273.18637,0.03050
1271.12620,0.03052
1269.06602,0.03055
1267.00585,0.03046
1264.94568,0.03040
1262.88551,0.03049
1260.82534,0.03057
1258.76516,0.03058
1256.70499,0.03052
1254.64482,0.03040
1252.58465,0.03028
1250.52447,0.03019
1248.46430,0.03015
1246.40413,0.03009
1244.34396,0.02999
1242.28379,0.02988
1240.22361,0.02981
1238.16344,0.02978
1236.10327,0.02978
1234.04310,0.02978
1231.98293,0.02975
1229.92275,0.02967
1227.86258,0.02950
1225.80241,0.02935
1223.74224,0.02935
1221.68207,0.02935
1219.62189,0.02929
1217.56172,0.02923
1215.50155,0.02911
1213.44138,0.02893
1211.38120,0.02879
1209.32103,0.02880
1207.26086,0.02890
1205.20069,0.02897
1203.14052,0.02894
1201.08034,0.02885
1199.02017,0.02876
1196.96000,0.02889
1194.89983,0.02904
1192.83966,0.02909
1190.77948,0.02915
1188.71931,0.02928
1186.65914,0.02944
1184.59897,0.02973
1182.53880,0.03008
1180.47862,0.03043
1178.41845,0.03082
1176.35828,0.03100
1174.29811,0.03099
1172.23793,0.03116
1170.17776,0.03151
1168.11759,0.03189
1166.05742,0.03236
1163.99725,0.03289
1161.93707,0.03337
1159.87690,0.03382
1157.81673,0.03433
1155.75656,0.03484
1153.69639,0.03533
1151.63621,0.03591
1149.57604,0.03661
1147.51587,0.03724
1145.45570,0.03780
1143.39552,0.03842
1141.33535,0.03918
1139.27518,0.03996
1137.21501,0.04063
1135.15484,0.04128
1133.09466,0.04198
1131.03449,0.04266
1128.97432,0.04329
1126.91415,0.04393
1124.85398,0.04465
1122.79380,0.04542
1120.73363,0.04620
1118.67346,0.04689
1116.61329,0.04752
1114.55312,0.04826
1112.49294,0.04909
1110.43277,0.04981
1108.37260,0.05047
1106.31243,0.05123
1104.25225,0.05194
1102.19208,0.05256
1100.13191,0.05324
1098.07174,0.05389
1096.01157,0.05435
1093.95139,0.05485
1091.89122,0.05552
1089.83105,0.05629
1087.77088,0.05709
1085.71071,0.05772
1083.65053,0.05812
1081.59036,0.05857
1079.53019,0.05918
1077.47002,0.05977
1075.40985,0.06026
1073.34967,0.06072
1071.28950,0.06112
1069.22933,0.06142
1067.16916,0.06147
1065.10898,0.06120
1063.04881,0.06090
1060.98864,0.06068
1058.92847,0.06038
1056.86830,0.05993
1054.80812,0.05924
1052.74795,0.05826
1050.68778,0.05710
1048.62761,0.05592
1046.56744,0.05479
1044.50726,0.05361
1042.44709,0.05228
1040.38692,0.05082
1038.32675,0.04943
1036.26657,0.04808
1034.20640,0.04662
1032.14623,0.04524
1030.08606,0.04420
1028.02589,0.04337
1025.96571,0.04256
1023.90554,0.04174
1021.84537,0.04103
1019.78520,0.04051
1017.72503,0.04011
1015.66485,0.03991
1013.60468,0.03994
1011.54451,0.04013
1009.48434,0.04050
1007.42417,0.04098
1005.36399,0.04147
1003.30382,0.04212
1001.24365,0.04307
999.18348,0.04414
997.12330,0.04511
995.06313,0.04591
993.00296,0.04662
990.94279,0.04743
988.88262,0.04825
986.82244,0.04884
984.76227,0.04925
982.70210,0.04962
980.64193,0.04999
978.58176,0.05031
976.52158,0.05048
974.46141,0.05058
972.40124,0.05059
970.34107,0.05039
968.28089,0.04990
966.22072,0.04917
964.16055,0.04849
962.10038,0.04783
960.04021,0.04708
957.98003,0.04640
955.91986,0.04579
953.85969,0.04512
951.79952,0.04446
949.73935,0.04384
947.67917,0.04324
945.61900,0.04268
943.55883,0.04203
941.49866,0.04130
939.43849,0.04066
937.37831,0.04019
935.31814,0.03973
933.25797,0.03912
931.19780,0.03852
929.13762,0.03802
927.07745,0.03758
925.01728,0.03725
922.95711,0.03698
920.89694,0.03659
918.83676,0.03610
916.77659,0.03569
914.71642,0.03525
912.65625,0.03483
910.59608,0.03467
908.53590,0.03457
906.47573,0.03435
904.41556,0.03429
902.35539,0.03444
900.29522,0.03448
898.23504,0.03442
896.17487,0.03449
894.11470,0.03471
892.05453,0.03512
889.99435,0.03565
887.93418,0.03603
885.87401,0.03637
883.81384,0.03681
881.75367,0.03716
879.69349,0.03741
877.63332,0.03779
875.57315,0.03836
873.51298,0.03905
871.45281,0.03978
869.39263,0.04038
867.33246,0.04069
865.27229,0.04103
863.21212,0.04161
861.15194,0.04200
859.09177,0.04203
857.03160,0.04202
854.97143,0.04205
852.91126,0.04199
850.85108,0.04190
848.79091,0.04172
846.73074,0.04141
844.67057,0.04120
842.61040,0.04101
840.55022,0.04060
838.49005,0.03990
836.42988,0.03902
834.36971,0.03835
832.30954,0.03809
830.24936,0.03792
828.18919,0.03759
826.12902,0.03704
824.06885,0.03641
822.00867,0.03603
819.94850,0.03587
817.88833,0.03562
815.82816,0.03525
813.76799,0.03490
811.70781,0.03449
809.64764,0.03394
807.58747,0.03350
805.52730,0.03335
803.46713,0.03344
801.40695,0.03344
799.34678,0.03310
797.28661,0.03242
795.22644,0.03190
793.16627,0.03199
791.10609,0.03221
789.04592,0.03199
786.98575,0.03161
784.92558,0.03144
782.86540,0.03133
780.80523,0.03107
778.74506,0.03085
776.68489,0.03100
774.62472,0.03099
772.56454,0.03054
770.50437,0.03039
768.44420,0.03041
766.38403,0.03011
764.32386,0.02995
762.26368,0.02996
760.20351,0.02982
758.14334,0.02973
756.08317,0.02967
754.02299,0.02946
751.96282,0.02945
749.90265,0.02959
747.84248,0.02939
745.78231,0.02885
743.72213,0.02846
741.66196,0.02827
739.60179,0.02800
737.54162,0.02796
735.48145,0.02833
733.42127,0.02849
731.36110,0.02818
729.30093,0.02794
727.24076,0.02798
725.18059,0.02792
723.12041,0.02806
721.06024,0.02646
719.00007,0.02826
716.93990,0.02815
714.87972,0.02776
712.81955,0.02780
710.75938,0.02749
708.69921,0.02698
706.63904,0.02705
704.57886,0.02800
702.51869,0.02904
700.45852,0.02960
698.39835,0.02958
696.33818,0.02934
694.27800,0.02964
692.21783,0.03055
690.15766,0.03150
688.09749,0.03217
686.03731,0.03278
683.97714,0.03354
681.91697,0.03419
679.85680,0.03422
677.79663,0.03347
675.73645,0.03236
673.67628,0.03551
671.61611,0.05088
669.55594,0.04646
667.49577,0.00000
665.43559,0.04010
663.37542,0.03773
661.31525,0.02844
659.25508,0.02754
657.19491,0.02769
655.13473,0.02642
653.07456,0.02566
651.01439,0.02531
648.95422,0.02321
646.89404,0.02228
644.83387,0.02053
642.77370,0.01922
640.71353,0.01838
638.65336,0.01715
636.59318,0.01571
634.53301,0.01467
632.47284,0.01360
630.41267,0.01202
628.35250,0.01039
626.29232,0.00981
624.23215,0.00944
622.17198,0.00908
620.11181,0.00801
618.05164,0.00598
615.99146,0.00451
613.93129,0.00386
611.87112,0.00319
609.81095,0.00274
607.75077,0.00270
605.69060,0.00292
603.63043,0.00247
601.57026,0.00087
599.51009,0.00000
