3996.73391,0.00037
3994.67373,0.00009
3992.61356,0.00000
3990.55339,0.00028
3988.49322,0.00058
3986.43305,0.00062
3984.37287,0.00064
3982.31270,0.00085
3980.25253,0.00110
3978.19236,0.00129
3976.13219,0.00140
3974.07201,0.00142
3972.01184,0.00129
3969.95167,0.00109
3967.89150,0.00087
3965.83133,0.00067
3963.77115,0.00059
3961.71098,0.00082
3959.65081,0.00123
3957.59064,0.00143
3955.53046,0.00127
3953.47029,0.00101
3951.41012,0.00095
3949.34995,0.00098
3947.28978,0.00088
3945.22960,0.00072
3943.16943,0.00063
3941.10926,0.00078
3939.04909,0.00112
3936.98892,0.00136
3934.92874,0.00152
3932.86857,0.00171
3930.80840,0.00188
3928.74823,0.00188
3926.68805,0.00165
3924.62788,0.00140
3922.56771,0.00134
3920.50754,0.00120
3918.44737,0.00092
3916.38719,0.00076
3914.32702,0.00069
3912.26685,0.00059
3910.20668,0.00064
3908.14651,0.00082
3906.08633,0.00089
3904.02616,0.00065
3901.96599,0.00016
3899.90582,0.00000
3897.84565,0.00040
3895.78547,0.00115
3893.72530,0.00196
3891.66513,0.00224
3889.60496,0.00169
3887.54478,0.00106
3885.48461,0.00118
3883.42444,0.00184
3881.36427,0.00210
3879.30410,0.00167
3877.24392,0.00094
3875.18375,0.00043
3873.12358,0.00041
3871.06341,0.00075
3869.00324,0.00134
3866.94306,0.00218
3864.88289,0.00276
3862.82272,0.00242
3860.76255,0.00152
3858.70237,0.00090
3856.64220,0.00095
3854.58203,0.00170
3852.52186,0.00249
3850.46169,0.00240
3848.40151,0.00183
3846.34134,0.00139
3844.28117,0.00158
3842.22100,0.00244
3840.16083,0.00311
3838.10065,0.00303
3836.04048,0.00262
3833.98031,0.00218
3831.92014,0.00156
3829.85997,0.00095
3827.79979,0.00082
3825.73962,0.00118
3823.67945,0.00161
3821.61928,0.00214
3819.55910,0.00271
3817.49893,0.00269
3815.43876,0.00221
3813.37859,0.00190
3811.31842,0.00179
3809.25824,0.00164
3807.19807,0.00144
3805.13790,0.00145
3803.07773,0.00153
3801.01756,0.00132
3798.95738,0.00128
3796.89721,0.00154
3794.83704,0.00143
3792.77687,0.00127
3790.71670,0.00145
3788.65652,0.00158
3786.59635,0.00147
3784.53618,0.00139
3782.47601,0.00139
3780.41583,0.00125
3778.35566,0.00100
3776.29549,0.00072
3774.23532,0.00061
3772.17515,0.00104
3770.11497,0.00176
3768.05480,0.00210
3765.99463,0.00200
3763.93446,0.00177
3761.87429,0.00159
3759.81411,0.00160
3757.75394,0.00184
3755.69377,0.00231
3753.63360,0.00277
3751.57342,0.00282
3749.51325,0.00236
3747.45308,0.00204
3745.39291,0.00192
3743.33274,0.00153
3741.27256,0.00099
3739.21239,0.00045
3737.15222,0.00004
3735.09205,0.00047
3733.03188,0.00181
3730.97170,0.00275
3728.91153,0.00250
3726.85136,0.00153
3724.79119,0.00111
3722.73102,0.00148
3720.67084,0.00154
3718.61067,0.00104
3716.55050,0.00072
3714.49033,0.00108
3712.43015,0.00160
3710.36998,0.00131
3708.30981,0.00074
3706.24964,0.00092
3704.18947,0.00153
3702.12929,0.00177
3700.06912,0.00178
3698.00895,0.00203
3695.94878,0.00236
3693.88861,0.00248
3691.82843,0.00254
3689.76826,0.00289
3687.70809,0.00316
3685.64792,0.00298
3683.58775,0.00264
3681.52757,0.00230
3679.46740,0.00186
3677.40723,0.00173
3675.34706,0.00237
3673.28688,0.00333
3671.22671,0.00401
3669.16654,0.00439
3667.10637,0.00440
3665.04620,0.00406
3662.98602,0.00370
3660.92585,0.00362
3658.86568,0.00345
3656.80551,0.00287
3654.74534,0.00245
3652.68516,0.00250
3650.62499,0.00295
3648.56482,0.00402
3646.50465,0.00527
3644.44447,0.00592
3642.38430,0.00592
3640.32413,0.00566
3638.26396,0.00549
3636.20379,0.00559
3634.14361,0.00598
3632.08344,0.00645
3630.02327,0.00646
3627.96310,0.00577
3625.90293,0.00525
3623.84275,0.00570
3621.78258,0.00683
3619.72241,0.00758
3617.66224,0.00738
3615.60207,0.00713
3613.54189,0.00745
3611.48172,0.00790
3609.42155,0.00818
3607.36138,0.00853
3605.30120,0.00885
3603.24103,0.00899
3601.18086,0.00923
3599.12069,0.00968
3597.06052,0.01005
3595.00034,0.00994
3592.94017,0.00946
3590.88000,0.00921
3588.81983,0.00957
3586.75966,0.01025
3584.69948,0.01068
3582.63931,0.01087
3580.57914,0.01114
3578.51897,0.01142
3576.45879,0.01152
3574.39862,0.01167
3572.33845,0.01215
3570.27828,0.01284
3568.21811,0.01295
3566.15793,0.01199
3564.09776,0.01130
3562.03759,0.01190
3559.97742,0.01309
3557.91725,0.01404
3555.85707,0.01444
3553.79690,0.01437
3551.73673,0.01433
3549.67656,0.01461
3547.61639,0.01498
3545.55621,0.01535
3543.49604,0.01579
3541.43587,0.01596
3539.37570,0.01576
3537.31552,0.01553
3535.25535,0.01556
3533.19518,0.01582
3531.13501,0.01617
3529.07484,0.01650
3527.01466,0.01675
3524.95449,0.01683
3522.89432,0.01683
3520.83415,0.01698
3518.77398,0.01710
3516.71380,0.01686
3514.65363,0.01665
3512.59346,0.01688
3510.53329,0.01727
3508.47312,0.01773
3506.41294,0.01834
3504.35277,0.01879
3502.29260,0.01894
3500.23243,0.01898
3498.17225,0.01910
3496.11208,0.01933
3494.05191,0.01944
3491.99174,0.01937
3489.93157,0.01952
3487.87139,0.01972
3485.81122,0.01953
3483.75105,0.01951
3481.69088,0.02001
3479.63071,0.02061
3477.57053,0.02121
3475.51036,0.02183
3473.45019,0.02194
3471.39002,0.02137
3469.32984,0.02069
3467.26967,0.02037
3465.20950,0.02062
3463.14933,0.02126
3461.08916,0.02168
3459.02898,0.02168
3456.96881,0.02154
3454.90864,0.02148
3452.84847,0.02177
3450.78830,0.02242
3448.72812,0.02284
3446.66795,0.02284
3444.60778,0.02295
3442.54761,0.02336
3440.48744,0.02373
3438.42726,0.02369
3436.36709,0.02335
3434.30692,0.02328
3432.24675,0.02372
3430.18657,0.02408
3428.12640,0.02393
3426.06623,0.02367
3424.00606,0.02368
3421.94589,0.02383
3419.88571,0.02379
3417.82554,0.02376
3415.76537,0.02408
3413.70520,0.02444
3411.64503,0.02442
3409.58485,0.02403
3407.52468,0.02401
3405.46451,0.02465
3403.40434,0.02510
3401.34416,0.02486
3399.28399,0.02455
3397.22382,0.02472
3395.16365,0.02512
3393.10348,0.02533
3391.04330,0.02530
3388.98313,0.02518
3386.92296,0.02505
3384.86279,0.02516
3382.80262,0.02546
3380.74244,0.02556
3378.68227,0.02547
3376.62210,0.02545
3374.56193,0.02541
3372.50176,0.02544
3370.44158,0.02545
3368.38141,0.02529
3366.32124,0.02525
3364.26107,0.02540
3362.20089,0.02565
3360.14072,0.02607
3358.08055,0.02640
3356.02038,0.02635
3353.96021,0.02616
3351.90003,0.02612
3349.83986,0.02629
3347.77969,0.02632
3345.71952,0.02627
3343.65935,0.02653
3341.59917,0.02678
3339.53900,0.02659
3337.47883,0.02610
3335.41866,0.02570
3333.35849,0.02566
3331.29831,0.02572
3329.23814,0.02573
3327.17797,0.02582
3325.11780,0.02614
3323.05762,0.02647
3320.99745,0.02631
3318.93728,0.02600
3316.87711,0.02601
3314.81694,0.02617
3312.75676,0.02646
3310.69659,0.02674
3308.63642,0.02671
3306.57625,0.02650
3304.51608,0.02605
3302.45590,0.02543
3300.39573,0.02510
3298.33556,0.02528
3296.27539,0.02581
3294.21521,0.02623
3292.15504,0.02629
3290.09487,0.02631
3288.03470,0.02644
3285.97453,0.02647
3283.91435,0.02631
3281.85418,0.02597
3279.79401,0.02558
3277.73384,0.02550
3275.67367,0.02598
3273.61349,0.02644
3271.55332,0.02638
3269.49315,0.02631
3267.43298,0.02643
3265.37281,0.02632
3263.31263,0.02599
3261.25246,0.02586
3259.19229,0.02582
3257.13212,0.02560
3255.07194,0.02561
3253.01177,0.02607
3250.95160,0.02654
3248.89143,0.02649
3246.83126,0.02600
3244.77108,0.02560
3242.71091,0.02529
3240.65074,0.02505
3238.59057,0.02522
3236.53040,0.02581
3234.47022,0.02621
3232.41005,0.02614
3230.34988,0.02601
3228.28971,0.02616
3226.22954,0.02635
3224.16936,0.02638
3222.10919,0.02624
3220.04902,0.02584
3217.98885,0.02527
3215.92867,0.02495
3213.86850,0.02484
3211.80833,0.02451
3209.74816,0.02410
3207.68799,0.02389
3205.62781,0.02396
3203.56764,0.02431
3201.50747,0.02460
3199.44730,0.02467
3197.38713,0.02456
3195.32695,0.02417
3193.26678,0.02383
3191.20661,0.02388
3189.14644,0.02412
3187.08626,0.02424
3185.02609,0.02426
3182.96592,0.02440
3180.90575,0.02472
3178.84558,0.02488
3176.78540,0.02469
3174.72523,0.02423
3172.66506,0.02381
3170.60489,0.02380
3168.54472,0.02378
3166.48454,0.02330
3164.42437,0.02286
3162.36420,0.02300
3160.30403,0.02351
3158.24386,0.02383
3156.18368,0.02347
3154.12351,0.02277
3152.06334,0.02249
3150.00317,0.02260
3147.94299,0.02256
3145.88282,0.02241
3143.82265,0.02234
3141.76248,0.02227
3139.70231,0.02226
3137.64213,0.02227
3135.58196,0.02216
3133.52179,0.02213
3131.46162,0.02237
3129.40145,0.02238
3127.34127,0.02194
3125.28110,0.02152
3123.22093,0.02140
3121.16076,0.02162
3119.10058,0.02196
3117.04041,0.02203
3114.98024,0.02181
3112.92007,0.02142
3110.85990,0.02092
3108.79972,0.02073
3106.73955,0.02115
3104.67938,0.02165
3102.61921,0.02154
3100.55904,0.02106
3098.49886,0.02079
3096.43869,0.02054
3094.37852,0.02018
3092.31835,0.02004
3090.25818,0.02008
3088.19800,0.01993
3086.13783,0.01980
3084.07766,0.01990
3082.01749,0.01995
3079.95731,0.01987
3077.89714,0.01972
3075.83697,0.01959
3073.77680,0.01974
3071.71663,0.02006
3069.65645,0.02011
3067.59628,0.01980
3065.53611,0.01931
3063.47594,0.01886
3061.41577,0.01886
3059.35559,0.01916
3057.29542,0.01922
3055.23525,0.01902
3053.17508,0.01891
3051.11491,0.01895
3049.05473,0.01881
3046.99456,0.01847
3044.93439,0.01818
3042.87422,0.01798
3040.81404,0.01795
3038.75387,0.01809
3036.69370,0.01801
3034.63353,0.01760
3032.57336,0.01726
3030.51318,0.01722
3028.45301,0.01720
3026.39284,0.01700
3024.33267,0.01693
3022.27250,0.01708
3020.21232,0.01728
3018.15215,0.01745
3016.09198,0.01752
3014.03181,0.01738
3011.97163,0.01712
3009.91146,0.01695
3007.85129,0.01678
3005.79112,0.01643
3003.73095,0.01603
3001.67077,0.01592
2999.61060,0.01607
2997.55043,0.01610
2995.49026,0.01599
2993.43009,0.01602
2991.36991,0.01625
2989.30974,0.01650
2987.24957,0.01651
2985.18940,0.01598
2983.12923,0.01549
2981.06905,0.01563
2979.00888,0.01570
2976.94871,0.01550
2974.88854,0.01545
2972.82836,0.01538
2970.76819,0.01530
2968.70802,0.01552
2966.64785,0.01600
2964.58768,0.01620
2962.52750,0.01595
2960.46733,0.01575
2958.40716,0.01584
2956.34699,0.01612
2954.28682,0.01632
2952.22664,0.01611
2950.16647,0.01558
2948.10630,0.01517
2946.04613,0.01505
2943.98596,0.01521
2941.92578,0.01544
2939.86561,0.01529
2937.80544,0.01506
2935.74527,0.01522
2933.68509,0.01558
2931.62492,0.01564
2929.56475,0.01542
2927.50458,0.01518
2925.44441,0.01490
2923.38423,0.01469
2921.32406,0.01459
2919.26389,0.01453
2917.20372,0.01441
2915.14355,0.01409
2913.08337,0.01412
2911.02320,0.01449
2908.96303,0.01442
2906.90286,0.01404
2904.84268,0.01376
2902.78251,0.01356
2900.72234,0.01349
2898.66217,0.01358
2896.60200,0.01356
2894.54182,0.01323
2892.48165,0.01272
2890.42148,0.01246
2888.36131,0.01260
2886.30114,0.01266
2884.24096,0.01251
2882.18079,0.01260
2880.12062,0.01296
2878.06045,0.01300
2876.00028,0.01271
2873.94010,0.01245
2871.87993,0.01245
2869.81976,0.01263
2867.75959,0.01261
2865.69941,0.01235
2863.63924,0.01225
2861.57907,0.01214
2859.51890,0.01170
2857.45873,0.01144
2855.39855,0.01153
2853.33838,0.01147
2851.27821,0.01111
2849.21804,0.01085
2847.15787,0.01081
2845.09769,0.01070
2843.03752,0.01053
2840.97735,0.01041
2838.91718,0.01038
2836.85700,0.01036
2834.79683,0.01018
2832.73666,0.00995
2830.67649,0.00995
2828.61632,0.01008
2826.55614,0.01000
2824.49597,0.00997
2822.43580,0.01011
2820.37563,0.01007
2818.31546,0.00981
2816.25528,0.00957
2814.19511,0.00951
2812.13494,0.00949
2810.07477,0.00929
2808.01460,0.00909
2805.95442,0.00907
2803.89425,0.00905
2801.83408,0.00904
2799.77391,0.00912
2797.71373,0.00918
2795.65356,0.00917
2793.59339,0.00914
2791.53322,0.00900
2789.47305,0.00888
2787.41287,0.00888
2785.35270,0.00869
2783.29253,0.00831
2781.23236,0.00813
2779.17219,0.00840
2777.11201,0.00861
2775.05184,0.00821
2772.99167,0.00775
2770.93150,0.00786
2768.87133,0.00819
2766.81115,0.00831
2764.75098,0.00841
2762.69081,0.00836
2760.63064,0.00791
2758.57046,0.00750
2756.51029,0.00761
2754.45012,0.00784
2752.38995,0.00780
2750.32978,0.00775
2748.26960,0.00775
2746.20943,0.00776
2744.14926,0.00782
2742.08909,0.00780
2740.02892,0.00765
2737.96874,0.00756
2735.90857,0.00750
2733.84840,0.00732
2731.78823,0.00719
2729.72805,0.00725
2727.66788,0.00729
2725.60771,0.00712
2723.54754,0.00696
2721.48737,0.00699
2719.42719,0.00711
2717.36702,0.00713
2715.30685,0.00719
2713.24668,0.00736
2711.18651,0.00734
2709.12633,0.00706
2707.06616,0.00686
2705.00599,0.00690
2702.94582,0.00693
2700.88565,0.00688
2698.82547,0.00688
2696.76530,0.00693
2694.70513,0.00692
2692.64496,0.00689
2690.58478,0.00676
2688.52461,0.00652
2686.46444,0.00636
2684.40427,0.00626
2682.34410,0.00608
2680.28392,0.00605
2678.22375,0.00628
2676.16358,0.00635
2674.10341,0.00624
2672.04324,0.00621
2669.98306,0.00613
2667.92289,0.00596
2665.86272,0.00596
2663.80255,0.00610
2661.74238,0.00615
2659.68220,0.00603
2657.62203,0.00585
2655.56186,0.00578
2653.50169,0.00585
2651.44151,0.00599
2649.38134,0.00609
2647.32117,0.00594
2645.26100,0.00565
2643.20083,0.00568
2641.14065,0.00599
2639.08048,0.00621
2637.02031,0.00612
2634.96014,0.00596
2632.89997,0.00603
2630.83979,0.00615
2628.77962,0.00622
2626.71945,0.00628
2624.65928,0.00604
2622.59910,0.00572
2620.53893,0.00573
2618.47876,0.00555
2616.41859,0.00514
2614.35842,0.00512
2612.29824,0.00539
2610.23807,0.00578
2608.17790,0.00610
2606.11773,0.00611
2604.05756,0.00597
2601.99738,0.00556
2599.93721,0.00492
2597.87704,0.00456
2595.81687,0.00448
2593.75670,0.00451
2591.69652,0.00477
2589.63635,0.00501
2587.57618,0.00504
2585.51601,0.00508
2583.45583,0.00511
2581.39566,0.00480
2579.33549,0.00445
2577.27532,0.00449
2575.21515,0.00451
2573.15497,0.00454
2571.09480,0.00489
2569.03463,0.00508
2566.97446,0.00472
2564.91429,0.00427
2562.85411,0.00420
2560.79394,0.00444
2558.73377,0.00469
2556.67360,0.00439
2554.61342,0.00369
2552.55325,0.00362
2550.49308,0.00423
2548.43291,0.00464
2546.37274,0.00476
2544.31256,0.00468
2542.25239,0.00439
2540.19222,0.00440
2538.13205,0.00459
2536.07188,0.00464
2534.01170,0.00486
2531.95153,0.00510
2529.89136,0.00497
2527.83119,0.00447
2525.77102,0.00391
2523.71084,0.00369
2521.65067,0.00390
2519.59050,0.00437
2517.53033,0.00500
2515.47015,0.00549
2513.40998,0.00547
2511.34981,0.00520
2509.28964,0.00510
2507.22947,0.00531
2505.16929,0.00567
2503.10912,0.00562
2501.04895,0.00506
2498.98878,0.00481
2496.92861,0.00475
2494.86843,0.00430
2492.80826,0.00402
2490.74809,0.00406
2488.68792,0.00403
2486.62775,0.00427
2484.56757,0.00487
2482.50740,0.00519
2480.44723,0.00516
2478.38706,0.00521
2476.32688,0.00513
2474.26671,0.00457
2472.20654,0.00415
2470.14637,0.00452
2468.08620,0.00518
2466.02602,0.00520
2463.96585,0.00472
2461.90568,0.00448
2459.84551,0.00472
2457.78534,0.00507
2455.72516,0.00518
2453.66499,0.00524
2451.60482,0.00535
2449.54465,0.00521
2447.48447,0.00491
2445.42430,0.00485
2443.36413,0.00505
2441.30396,0.00501
2439.24379,0.00469
2437.18361,0.00469
2435.12344,0.00479
2433.06327,0.00466
2431.00310,0.00453
2428.94293,0.00450
2426.88275,0.00459
2424.82258,0.00478
2422.76241,0.00511
2420.70224,0.00554
2418.64207,0.00583
2416.58189,0.00590
2414.52172,0.00558
2412.46155,0.00493
2410.40138,0.00454
2408.34120,0.00458
2406.28103,0.00456
2404.22086,0.00432
2402.16069,0.00428
2400.10052,0.00463
2398.04034,0.00470
2395.98017,0.00423
2393.92000,0.00388
2391.85983,0.00424
2389.79966,0.00479
2387.73948,0.00480
2385.67931,0.00459
2383.61914,0.00475
2381.55897,0.00514
2379.49880,0.00522
2377.43862,0.00478
2375.37845,0.00471
2373.31828,0.00537
2371.25811,0.00622
2369.19793,0.00711
2367.13776,0.00774
2365.07759,0.00848
2363.01742,0.01020
2360.95725,0.01012
2358.89707,0.00911
2356.83690,0.00824
2354.77673,0.00768
2352.71656,0.00702
2350.65639,0.00476
2348.59621,0.00332
2346.53604,0.00515
2344.47587,0.00478
2342.41570,0.00407
2340.35552,0.00522
2338.29535,0.00646
2336.23518,0.00691
2334.17501,0.00687
2332.11484,0.00670
2330.05466,0.00561
2327.99449,0.00444
2325.93432,0.00392
2323.87415,0.00455
2321.81398,0.00504
2319.75380,0.00516
2317.69363,0.00432
2315.63346,0.00397
2313.57329,0.00473
2311.51312,0.00573
2309.45294,0.00611
2307.39277,0.00577
2305.33260,0.00514
2303.27243,0.00483
2301.21225,0.00517
2299.15208,0.00568
2297.09191,0.00610
2295.03174,0.00629
2292.97157,0.00624
2290.91139,0.00596
2288.85122,0.00554
2286.79105,0.00540
2284.73088,0.00564
2282.67071,0.00585
2280.61053,0.00577
2278.55036,0.00567
2276.49019,0.00587
2274.43002,0.00613
2272.36984,0.00593
2270.30967,0.00515
2268.24950,0.00449
2266.18933,0.00432
2264.12916,0.00457
2262.06898,0.00527
2260.00881,0.00595
2257.94864,0.00613
2255.88847,0.00593
2253.82830,0.00507
2251.76812,0.00406
2249.70795,0.00432
2247.64778,0.00555
2245.58761,0.00587
2243.52744,0.00509
2241.46726,0.00441
2239.40709,0.00471
2237.34692,0.00508
2235.28675,0.00464
2233.22657,0.00402
2231.16640,0.00397
2229.10623,0.00452
2227.04606,0.00481
2224.98589,0.00469
2222.92571,0.00438
2220.86554,0.00393
2218.80537,0.00442
2216.74520,0.00597
2214.68503,0.00698
2212.62485,0.00671
2210.56468,0.00552
2208.50451,0.00467
2206.44434,0.00518
2204.38417,0.00619
2202.32399,0.00636
2200.26382,0.00620
2198.20365,0.00660
2196.14348,0.00625
2194.08330,0.00471
2192.02313,0.00357
2189.96296,0.00311
2187.90279,0.00329
2185.84262,0.00327
2183.78244,0.00201
2181.72227,0.00145
2179.66210,0.00186
2177.60193,0.00149
2175.54176,0.00144
2173.48158,0.00228
2171.42141,0.00357
2169.36124,0.00521
2167.30107,0.00619
2165.24089,0.00637
2163.18072,0.00722
2161.12055,0.00828
2159.06038,0.00668
2157.00021,0.00348
2154.94003,0.00122
2152.87986,0.00000
2150.81969,0.00001
2148.75952,0.00115
2146.69935,0.00180
2144.63917,0.00116
2142.57900,0.00119
2140.51883,0.00291
2138.45866,0.00445
2136.39849,0.00469
2134.33831,0.00442
2132.27814,0.00433
2130.21797,0.00407
2128.15780,0.00332
2126.09762,0.00290
2124.03745,0.00330
2121.97728,0.00379
2119.91711,0.00408
2117.85694,0.00449
2115.79676,0.00493
2113.73659,0.00498
2111.67642,0.00465
2109.61625,0.00401
2107.55608,0.00355
2105.49590,0.00387
2103.43573,0.00445
2101.37556,0.00435
2099.31539,0.00351
2097.25521,0.00282
2095.19504,0.00257
2093.13487,0.00246
2091.07470,0.00277
2089.01453,0.00352
2086.95435,0.00370
2084.89418,0.00334
2082.83401,0.00324
2080.77384,0.00322
2078.71367,0.00345
2076.65349,0.00394
2074.59332,0.00432
2072.53315,0.00454
2070.47298,0.00461
2068.41281,0.00484
2066.35263,0.00512
2064.29246,0.00481
2062.23229,0.00427
2060.17212,0.00464
2058.11194,0.00543
2056.05177,0.00513
2053.99160,0.00422
2051.93143,0.00433
2049.87126,0.00482
2047.81108,0.00442
2045.75091,0.00419
2043.69074,0.00404
2041.63057,0.00288
2039.57040,0.00255
2037.51022,0.00359
2035.45005,0.00408
2033.38988,0.00351
2031.32971,0.00225
2029.26954,0.00111
2027.20936,0.00084
2025.14919,0.00226
2023.08902,0.00453
2021.02885,0.00495
2018.96867,0.00386
2016.90850,0.00276
2014.84833,0.00124
2012.78816,0.00017
2010.72799,0.00084
2008.66781,0.00226
2006.60764,0.00311
2004.54747,0.00285
2002.48730,0.00174
2000.42713,0.00113
1998.36695,0.00193
1996.30678,0.00331
1994.24661,0.00447
1992.18644,0.00532
1990.12626,0.00535
1988.06609,0.00479
1986.00592,0.00446
1983.94575,0.00443
1981.88558,0.00439
1979.82540,0.00322
1977.76523,0.00144
1975.70506,0.00111
1973.64489,0.00168
1971.58472,0.00184
1969.52454,0.00148
1967.46437,0.00098
1965.40420,0.00065
1963.34403,0.00083
1961.28386,0.00173
1959.22368,0.00251
1957.16351,0.00216
1955.10334,0.00174
1953.04317,0.00205
1950.98299,0.00149
1948.92282,0.00025
1946.86265,0.00000
1944.80248,0.00033
1942.74231,0.00067
1940.68213,0.00100
1938.62196,0.00109
1936.56179,0.00123
1934.50162,0.00181
1932.44145,0.00243
1930.38127,0.00236
1928.32110,0.00162
1926.26093,0.00129
1924.20076,0.00186
1922.14059,0.00225
1920.08041,0.00176
1918.02024,0.00136
1915.96007,0.00191
1913.89990,0.00255
1911.83972,0.00233
1909.77955,0.00188
1907.71938,0.00184
1905.65921,0.00191
1903.59904,0.00194
1901.53886,0.00209
1899.47869,0.00215
1897.41852,0.00212
1895.35835,0.00228
1893.29818,0.00240
1891.23800,0.00228
1889.17783,0.00209
1887.11766,0.00175
1885.05749,0.00139
1882.99731,0.00139
1880.93714,0.00168
1878.87697,0.00210
1876.81680,0.00234
1874.75663,0.00206
1872.69645,0.00158
1870.63628,0.00152
1868.57611,0.00188
1866.51594,0.00214
1864.45577,0.00201
1862.39559,0.00174
1860.33542,0.00167
1858.27525,0.00154
1856.21508,0.00103
1854.15491,0.00071
1852.09473,0.00102
1850.03456,0.00167
1847.97439,0.00206
1845.91422,0.00190
1843.85404,0.00144
1841.79387,0.00103
1839.73370,0.00093
1837.67353,0.00126
1835.61336,0.00171
1833.55318,0.00182
1831.49301,0.00154
1829.43284,0.00128
1827.37267,0.00130
1825.31250,0.00146
1823.25232,0.00159
1821.19215,0.00169
1819.13198,0.00177
1817.07181,0.00171
1815.01163,0.00150
1812.95146,0.00141
1810.89129,0.00151
1808.83112,0.00162
1806.77095,0.00158
1804.71077,0.00144
1802.65060,0.00132
1800.59043,0.00118
1798.53026,0.00113
1796.47009,0.00150
1794.40991,0.00223
1792.34974,0.00264
1790.28957,0.00220
1788.22940,0.00137
1786.16923,0.00094
1784.10905,0.00114
1782.04888,0.00150
1779.98871,0.00158
1777.92854,0.00153
1775.86836,0.00162
1773.80819,0.00182
1771.74802,0.00192
1769.68785,0.00183
1767.62768,0.00166
1765.56750,0.00162
1763.50733,0.00192
1761.44716,0.00249
1759.38699,0.00292
1757.32682,0.00295
1755.26664,0.00266
1753.20647,0.00240
1751.14630,0.00243
1749.08613,0.00267
1747.02596,0.00293
1744.96578,0.00311
1742.90561,0.00320
1740.84544,0.00329
1738.78527,0.00345
1736.72509,0.00372
1734.66492,0.00406
1732.60475,0.00418
1730.54458,0.00392
1728.48441,0.00357
1726.42423,0.00347
1724.36406,0.00367
1722.30389,0.00387
1720.24372,0.00393
1718.18355,0.00408
1716.12337,0.00435
1714.06320,0.00447
1712.00303,0.00452
1709.94286,0.00464
1707.88268,0.00477
1705.82251,0.00494
1703.76234,0.00539
1701.70217,0.00625
1699.64200,0.00710
1697.58182,0.00737
1695.52165,0.00718
1693.46148,0.00709
1691.40131,0.00750
1689.34114,0.00831
1687.28096,0.00908
1685.22079,0.00978
1683.16062,0.01055
1681.10045,0.01119
1679.04028,0.01162
1676.98010,0.01196
1674.91993,0.01240
1672.85976,0.01312
1670.79959,0.01407
1668.73941,0.01491
1666.67924,0.01542
1664.61907,0.01589
1662.55890,0.01654
1660.49873,0.01715
1658.43855,0.01754
1656.37838,0.01777
1654.31821,0.01782
1652.25804,0.01779
1650.19787,0.01808
1648.13769,0.01850
1646.07752,0.01865
1644.01735,0.01861
1641.95718,0.01874
1639.89701,0.01903
1637.83683,0.01908
1635.77666,0.01836
1633.71649,0.01735
1631.65632,0.01699
1629.59614,0.01694
1627.53597,0.01669
1625.47580,0.01621
1623.41563,0.01541
1621.35546,0.01444
1619.29528,0.01384
1617.23511,0.01345
1615.17494,0.01287
1613.11477,0.01225
1611.05460,0.01170
1608.99442,0.01119
1606.93425,0.01081
1604.87408,0.01057
1602.81391,0.01031
1600.75373,0.00998
1598.69356,0.00973
1596.63339,0.00967
1594.57322,0.00974
1592.51305,0.00973
1590.45287,0.00943
1588.39270,0.00883
1586.33253,0.00830
1584.27236,0.00808
1582.21219,0.00808
1580.15201,0.00831
1578.09184,0.00852
1576.03167,0.00829
1573.97150,0.00790
1571.91133,0.00782
1569.85115,0.00795
1567.79098,0.00798
1565.73081,0.00781
1563.67064,0.00765
1561.61046,0.00788
1559.55029,0.00854
1557.49012,0.00884
1555.42995,0.00850
1553.36978,0.00807
1551.30960,0.00781
1549.24943,0.00765
1547.18926,0.00765
1545.12909,0.00808
1543.06892,0.00882
1541.00874,0.00917
1538.94857,0.00857
1536.88840,0.00783
1534.82823,0.00741
1532.76805,0.00702
1530.70788,0.00660
1528.64771,0.00635
1526.58754,0.00619
1524.52737,0.00609
1522.46719,0.00596
1520.40702,0.00571
1518.34685,0.00550
1516.28668,0.00533
1514.22651,0.00507
1512.16633,0.00493
1510.10616,0.00521
1508.04599,0.00537
1505.98582,0.00458
1503.92565,0.00376
1501.86547,0.00348
1499.80530,0.00348
1497.74513,0.00360
1495.68496,0.00362
1493.62478,0.00353
1491.56461,0.00353
1489.50444,0.00349
1487.44427,0.00329
1485.38410,0.00311
1483.32392,0.00306
1481.26375,0.00312
1479.20358,0.00322
1477.14341,0.00334
1475.08324,0.00355
1473.02306,0.00385
1470.96289,0.00399
1468.90272,0.00408
1466.84255,0.00425
1464.78238,0.00434
1462.72220,0.00429
1460.66203,0.00434
1458.60186,0.00445
1456.54169,0.00428
1454.48151,0.00397
1452.42134,0.00388
1450.36117,0.00408
1448.30100,0.00436
1446.24083,0.00437
1444.18065,0.00405
1442.12048,0.00371
1440.06031,0.00357
1438.00014,0.00357
1435.93997,0.00352
1433.87979,0.00344
1431.81962,0.00346
1429.75945,0.00360
1427.69928,0.00373
1425.63910,0.00377
1423.57893,0.00380
1421.51876,0.00392
1419.45859,0.00402
1417.39842,0.00396
1415.33824,0.00388
1413.27807,0.00385
1411.21790,0.00386
1409.15773,0.00391
1407.09756,0.00393
1405.03738,0.00388
1402.97721,0.00381
1400.91704,0.00370
1398.85687,0.00349
1396.79670,0.00317
1394.73652,0.00290
1392.67635,0.00278
1390.61618,0.00282
1388.55601,0.00292
1386.49583,0.00296
1384.43566,0.00296
1382.37549,0.00296
1380.31532,0.00292
1378.25515,0.00288
1376.19497,0.00293
1374.13480,0.00298
1372.07463,0.00296
1370.01446,0.00293
1367.95429,0.00286
1365.89411,0.00270
1363.83394,0.00243
1361.77377,0.00206
1359.71360,0.00180
1357.65343,0.00170
1355.59325,0.00167
1353.53308,0.00170
1351.47291,0.00181
1349.41274,0.00195
1347.35256,0.00196
1345.29239,0.00180
1343.23222,0.00158
1341.17205,0.00146
1339.11188,0.00154
1337.05170,0.00172
1334.99153,0.00181
1332.93136,0.00171
1330.87119,0.00160
1328.81102,0.00166
1326.75084,0.00176
1324.69067,0.00179
1322.63050,0.00195
1320.57033,0.00222
1318.51015,0.00225
1316.44998,0.00202
1314.38981,0.00188
1312.32964,0.00189
1310.26947,0.00197
1308.20929,0.00209
1306.14912,0.00219
1304.08895,0.00225
1302.02878,0.00223
1299.96861,0.00227
1297.90843,0.00250
1295.84826,0.00280
1293.78809,0.00303
1291.72792,0.00308
1289.66775,0.00302
1287.60757,0.00304
1285.54740,0.00302
1283.48723,0.00278
1281.42706,0.00251
1279.36688,0.00235
1277.30671,0.00222
1275.24654,0.00226
1273.18637,0.00260
1271.12620,0.00290
1269.06602,0.00293
1267.00585,0.00291
1264.94568,0.00298
1262.88551,0.00302
1260.82534,0.00292
1258.76516,0.00276
1256.70499,0.00276
1254.64482,0.00293
1252.58465,0.00304
1250.52447,0.00296
1248.46430,0.00283
1246.40413,0.00279
1244.34396,0.00273
1242.28379,0.00259
1240.22361,0.00256
1238.16344,0.00260
1236.10327,0.00244
1234.04310,0.00230
1231.98293,0.00227
1229.92275,0.00213
1227.86258,0.00196
1225.80241,0.00199
1223.74224,0.00206
1221.68207,0.00183
1219.62189,0.00148
1217.56172,0.00133
1215.50155,0.00117
1213.44138,0.00086
1211.38120,0.00070
1209.32103,0.00058
1207.26086,0.00034
1205.20069,0.00018
1203.14052,0.00006
1201.08034,0.00000
1199.02017,0.00008
1196.96000,0.00018
1194.89983,0.00015
1192.83966,0.00003
1190.77948,0.00001
1188.71931,0.00002
1186.65914,-0.00006
1184.59897,-0.00005
1182.53880,0.00006
1180.47862,0.00009
1178.41845,0.00002
1176.35828,0.00003
1174.29811,0.00019
1172.23793,0.00029
1170.17776,0.00029
1168.11759,0.00033
1166.05742,0.00048
1163.99725,0.00084
1161.93707,0.00126
1159.87690,0.00149
1157.81673,0.00167
1155.75656,0.00195
1153.69639,0.00216
1151.63621,0.00236
1149.57604,0.00279
1147.51587,0.00329
1145.45570,0.00346
1143.39552,0.00328
1141.33535,0.00309
1139.27518,0.00332
1137.21501,0.00414
1135.15484,0.00508
1133.09466,0.00567
1131.03449,0.00600
1128.97432,0.00629
1126.91415,0.00668
1124.85398,0.00721
1122.79380,0.00774
1120.73363,0.00839
1118.67346,0.00913
1116.61329,0.00970
1114.55312,0.01022
1112.49294,0.01105
1110.43277,0.01218
1108.37260,0.01329
1106.31243,0.01431
1104.25225,0.01540
1102.19208,0.01623
1100.13191,0.01674
1098.07174,0.01732
1096.01157,0.01798
1093.95139,0.01851
1091.89122,0.01886
1089.83105,0.01910
1087.77088,0.01963
1085.71071,0.02044
1083.65053,0.02119
1081.59036,0.02169
1079.53019,0.02187
1077.47002,0.02219
1075.40985,0.02296
1073.34967,0.02370
1071.28950,0.02397
1069.22933,0.02387
1067.16916,0.02384
1065.10898,0.02391
1063.04881,0.02389
1060.98864,0.02397
1058.92847,0.02391
1056.86830,0.02345
1054.80812,0.02293
1052.74795,0.02247
1050.68778,0.02208
1048.62761,0.02187
1046.56744,0.02155
1044.50726,0.02079
1042.44709,0.01970
1040.38692,0.01868
1038.32675,0.01786
1036.26657,0.01721
1034.20640,0.01665
1032.14623,0.01610
1030.08606,0.01540
1028.02589,0.01452
1025.96571,0.01367
1023.90554,0.01294
1021.84537,0.01236
1019.78520,0.01208
1017.72503,0.01187
1015.66485,0.01150
1013.60468,0.01110
1011.54451,0.01080
1009.48434,0.01072
1007.42417,0.01081
1005.36399,0.01085
1003.30382,0.01078
1001.24365,0.01080
999.18348,0.01124
997.12330,0.01212
995.06313,0.01307
993.00296,0.01392
990.94279,0.01466
988.88262,0.01503
986.82244,0.01504
984.76227,0.01504
982.70210,0.01520
980.64193,0.01533
978.58176,0.01510
976.52158,0.01440
974.46141,0.01346
972.40124,0.01265
970.34107,0.01209
968.28089,0.01166
966.22072,0.01111
964.16055,0.01031
962.10038,0.00947
960.04021,0.00858
957.98003,0.00749
955.91986,0.00657
953.85969,0.00615
951.79952,0.00593
949.73935,0.00533
947.67917,0.00440
945.61900,0.00377
943.55883,0.00366
941.49866,0.00379
939.43849,0.00373
937.37831,0.00329
935.31814,0.00285
933.25797,0.00252
931.19780,0.00230
929.13762,0.00226
927.07745,0.00198
925.01728,0.00151
922.95711,0.00125
920.89694,0.00090
918.83676,0.00060
916.77659,0.00062
914.71642,0.00081
912.65625,0.00113
910.59608,0.00132
908.53590,0.00113
906.47573,0.00077
904.41556,0.00063
902.35539,0.00050
900.29522,0.00016
898.23504,0.00000
896.17487,0.00026
894.11470,0.00077
892.05453,0.00097
889.99435,0.00092
887.93418,0.00097
885.87401,0.00118
883.81384,0.00150
881.75367,0.00187
879.69349,0.00236
877.63332,0.00283
875.57315,0.00300
873.51298,0.00298
871.45281,0.00314
869.39263,0.00350
867.33246,0.00357
865.27229,0.00330
863.21212,0.00330
861.15194,0.00398
859.09177,0.00507
857.03160,0.00573
854.97143,0.00553
852.91126,0.00492
850.85108,0.00446
848.79091,0.00466
846.73074,0.00528
844.67057,0.00535
842.61040,0.00479
840.55022,0.00410
838.49005,0.00366
836.42988,0.00386
834.36971,0.00428
832.30954,0.00414
830.24936,0.00354
828.18919,0.00302
826.12902,0.00291
824.06885,0.00302
822.00867,0.00320
819.94850,0.00349
817.88833,0.00356
815.82816,0.00367
813.76799,0.00372
811.70781,0.00271
809.64764,0.00170
807.58747,0.00183
805.52730,0.00228
803.46713,0.00257
801.40695,0.00238
799.34678,0.00158
797.28661,0.00122
795.22644,0.00177
793.16627,0.00218
791.10609,0.00196
789.04592,0.00202
786.98575,0.00271
784.92558,0.00311
782.86540,0.00273
780.80523,0.00238
778.74506,0.00242
776.68489,0.00259
774.62472,0.00270
772.56454,0.00244
770.50437,0.00200
768.44420,0.00165
766.38403,0.00128
764.32386,0.00113
762.26368,0.00154
760.20351,0.00222
758.14334,0.00229
756.08317,0.00203
754.02299,0.00255
751.96282,0.00298
749.90265,0.00220
747.84248,0.00183
745.78231,0.00315
743.72213,0.00403
741.66196,0.00313
739.60179,0.00226
737.54162,0.00250
735.48145,0.00302
733.42127,0.00310
731.36110,0.00310
729.30093,0.00366
727.24076,0.00413
725.18059,0.00379
723.12041,0.00299
721.06024,0.00293
719.00007,0.00288
716.93990,0.00294
714.87972,0.00327
712.81955,0.00339
710.75938,0.00297
708.69921,0.00241
706.63904,0.00250
704.57886,0.00322
702.51869,0.00405
700.45852,0.00461
698.39835,0.00463
696.33818,0.00437
694.27800,0.00438
692.21783,0.00440
690.15766,0.00410
688.09749,0.00417
686.03731,0.00457
683.97714,0.00394
681.91697,0.00225
679.85680,0.00126
677.79663,0.00160
675.73645,0.00215
673.67628,0.00188
671.61611,0.00080
669.55594,0.00277
667.49577,0.00425
665.43559,0.00000
663.37542,0.00231
661.31525,0.00414
659.25508,0.00373
657.19491,0.00340
655.13473,0.00374
653.07456,0.00459
651.01439,0.00613
648.95422,0.00668
646.89404,0.00497
644.83387,0.00413
642.77370,0.00462
640.71353,0.00422
638.65336,0.00360
636.59318,0.00411
634.53301,0.00465
632.47284,0.00434
630.41267,0.00506
628.35250,0.00770
626.29232,0.00904
624.23215,0.00580
622.17198,0.00154
620.11181,0.00177
618.05164,0.00491
615.99146,0.00658
613.93129,0.00627
611.87112,0.00625
609.81095,0.00814
607.75077,0.00932
605.69060,0.00746
603.63043,0.00325
601.57026,0.00000
599.51009,0.00000
