3996.73391,0.00009
3994.67373,0.00003
3992.61356,0.00000
3990.55339,0.00032
3988.49322,0.00053
3986.43305,0.00038
3984.37287,0.00037
3982.31270,0.00047
3980.25253,0.00046
3978.19236,0.00069
3976.13219,0.00119
3974.07201,0.00140
3972.01184,0.00118
3969.95167,0.00088
3967.89150,0.00074
3965.83133,0.00061
3963.77115,0.00034
3961.71098,0.00027
3959.65081,0.00057
3957.59064,0.00091
3955.53046,0.00112
3953.47029,0.00133
3951.41012,0.00145
3949.34995,0.00148
3947.28978,0.00155
3945.22960,0.00160
3943.16943,0.00136
3941.10926,0.00097
3939.04909,0.00083
3936.98892,0.00081
3934.92874,0.00086
3932.86857,0.00123
3930.80840,0.00157
3928.74823,0.00144
3926.68805,0.00131
3924.62788,0.00167
3922.56771,0.00198
3920.50754,0.00154
3918.44737,0.00062
3916.38719,0.00017
3914.32702,0.00042
3912.26685,0.00093
3910.20668,0.00153
3908.14651,0.00210
3906.08633,0.00236
3904.02616,0.00222
3901.96599,0.00162
3899.90582,0.00080
3897.84565,0.00034
3895.78547,0.00043
3893.72530,0.00061
3891.66513,0.00054
3889.60496,0.00042
3887.54478,0.00054
3885.48461,0.00108
3883.42444,0.00193
3881.36427,0.00245
3879.30410,0.00224
3877.24392,0.00166
3875.18375,0.00117
3873.12358,0.00101
3871.06341,0.00113
3869.00324,0.00115
3866.94306,0.00113
3864.88289,0.00107
3862.82272,0.00076
3860.76255,0.00054
3858.70237,0.00062
3856.64220,0.00083
3854.58203,0.00116
3852.52186,0.00148
3850.46169,0.00138
3848.40151,0.00102
3846.34134,0.00076
3844.28117,0.00090
3842.22100,0.00124
3840.16083,0.00123
3838.10065,0.00089
3836.04048,0.00067
3833.98031,0.00065
3831.92014,0.00068
3829.85997,0.00063
3827.79979,0.00040
3825.73962,0.00031
3823.67945,0.00079
3821.61928,0.00159
3819.55910,0.00191
3817.49893,0.00152
3815.43876,0.00094
3813.37859,0.00067
3811.31842,0.00061
3809.25824,0.00037
3807.19807,0.00018
3805.13790,0.00058
3803.07773,0.00109
3801.01756,0.00113
3798.95738,0.00134
3796.89721,0.00170
3794.83704,0.00155
3792.77687,0.00121
3790.71670,0.00111
3788.65652,0.00116
3786.59635,0.00113
3784.53618,0.00093
3782.47601,0.00077
3780.41583,0.00075
3778.35566,0.00095
3776.29549,0.00117
3774.23532,0.00116
3772.17515,0.00119
3770.11497,0.00137
3768.05480,0.00142
3765.99463,0.00138
3763.93446,0.00142
3761.87429,0.00173
3759.81411,0.00217
3757.75394,0.00243
3755.69377,0.00262
3753.63360,0.00262
3751.57342,0.00197
3749.51325,0.00132
3747.45308,0.00144
3745.39291,0.00154
3743.33274,0.00108
3741.27256,0.00084
3739.21239,0.00134
3737.15222,0.00205
3735.09205,0.00225
3733.03188,0.00219
3730.97170,0.00235
3728.91153,0.00218
3726.85136,0.00174
3724.79119,0.00198
3722.73102,0.00261
3720.67084,0.00241
3718.61067,0.00161
3716.55050,0.00125
3714.49033,0.00170
3712.43015,0.00248
3710.36998,0.00255
3708.30981,0.00168
3706.24964,0.00085
3704.18947,0.00064
3702.12929,0.00097
3700.06912,0.00162
3698.00895,0.00233
3695.94878,0.00272
3693.88861,0.00255
3691.82843,0.00220
3689.76826,0.00210
3687.70809,0.00215
3685.64792,0.00221
3683.58775,0.00221
3681.52757,0.00190
3679.46740,0.00153
3677.40723,0.00212
3675.34706,0.00357
3673.28688,0.00413
3671.22671,0.00364
3669.16654,0.00327
3667.10637,0.00337
3665.04620,0.00358
3662.98602,0.00398
3660.92585,0.00446
3658.86568,0.00460
3656.80551,0.00424
3654.74534,0.00366
3652.68516,0.00366
3650.62499,0.00480
3648.56482,0.00643
3646.50465,0.00730
3644.44447,0.00776
3642.38430,0.00802
3640.32413,0.00773
3638.26396,0.00723
3636.20379,0.00729
3634.14361,0.00819
3632.08344,0.00949
3630.02327,0.01009
3627.96310,0.00930
3625.90293,0.00841
3623.84275,0.00876
3621.78258,0.01002
3619.72241,0.01127
3617.66224,0.01181
3615.60207,0.01168
3613.54189,0.01155
3611.48172,0.01215
3609.42155,0.01338
3607.36138,0.01418
3605.30120,0.01425
3603.24103,0.01438
3601.18086,0.01487
3599.12069,0.01542
3597.06052,0.01583
3595.00034,0.01599
3592.94017,0.01575
3590.88000,0.01541
3588.81983,0.01536
3586.75966,0.01578
3584.69948,0.01660
3582.63931,0.01745
3580.57914,0.01809
3578.51897,0.01842
3576.45879,0.01855
3574.39862,0.01897
3572.33845,0.01985
3570.27828,0.02060
3568.21811,0.02064
3566.15793,0.02013
3564.09776,0.01990
3562.03759,0.02048
3559.97742,0.02159
3557.91725,0.02268
3555.85707,0.02337
3553.79690,0.02365
3551.73673,0.02413
3549.67656,0.02513
3547.61639,0.02593
3545.55621,0.02596
3543.49604,0.02571
3541.43587,0.02575
3539.37570,0.02589
3537.31552,0.02575
3535.25535,0.02571
3533.19518,0.02623
3531.13501,0.02693
3529.07484,0.02744
3527.01466,0.02791
3524.95449,0.02846
3522.89432,0.02907
3520.83415,0.02956
3518.77398,0.02972
3516.71380,0.02965
3514.65363,0.02976
3512.59346,0.03014
3510.53329,0.03053
3508.47312,0.03113
3506.41294,0.03211
3504.35277,0.03294
3502.29260,0.03324
3500.23243,0.03326
3498.17225,0.03326
3496.11208,0.03336
3494.05191,0.03347
3491.99174,0.03329
3489.93157,0.03311
3487.87139,0.03362
3485.81122,0.03482
3483.75105,0.03589
3481.69088,0.03614
3479.63071,0.03599
3477.57053,0.03624
3475.51036,0.03673
3473.45019,0.03697
3471.39002,0.03708
3469.32984,0.03739
3467.26967,0.03762
3465.20950,0.03746
3463.14933,0.03729
3461.08916,0.03732
3459.02898,0.03766
3456.96881,0.03837
3454.90864,0.03899
3452.84847,0.03916
3450.78830,0.03926
3448.72812,0.03964
3446.66795,0.04016
3444.60778,0.04044
3442.54761,0.04035
3440.48744,0.04025
3438.42726,0.04028
3436.36709,0.04051
3434.30692,0.04108
3432.24675,0.04185
3430.18657,0.04223
3428.12640,0.04194
3426.06623,0.04158
3424.00606,0.04155
3421.94589,0.04163
3419.88571,0.04184
3417.82554,0.04243
3415.76537,0.04305
3413.70520,0.04341
3411.64503,0.04355
3409.58485,0.04351
3407.52468,0.04363
3405.46451,0.04436
3403.40434,0.04521
3401.34416,0.04527
3399.28399,0.04471
3397.22382,0.04413
3395.16365,0.04399
3393.10348,0.04442
3391.04330,0.04490
3388.98313,0.04514
3386.92296,0.04535
3384.86279,0.04556
3382.80262,0.04550
3380.74244,0.04527
3378.68227,0.04523
3376.62210,0.04524
3374.56193,0.04508
3372.50176,0.04495
3370.44158,0.04490
3368.38141,0.04490
3366.32124,0.04518
3364.26107,0.04562
3362.20089,0.04569
3360.14072,0.04552
3358.08055,0.04572
3356.02038,0.04606
3353.96021,0.04616
3351.90003,0.04619
3349.83986,0.04633
3347.77969,0.04663
3345.71952,0.04708
3343.65935,0.04719
3341.59917,0.04668
3339.53900,0.04622
3337.47883,0.04616
3335.41866,0.04595
3333.35849,0.04563
3331.29831,0.04558
3329.23814,0.04588
3327.17797,0.04634
3325.11780,0.04655
3323.05762,0.04644
3320.99745,0.04623
3318.93728,0.04628
3316.87711,0.04665
3314.81694,0.04706
3312.75676,0.04747
3310.69659,0.04763
3308.63642,0.04731
3306.57625,0.04701
3304.51608,0.04695
3302.45590,0.04684
3300.39573,0.04686
3298.33556,0.04706
3296.27539,0.04725
3294.21521,0.04754
3292.15504,0.04786
3290.09487,0.04787
3288.03470,0.04747
3285.97453,0.04710
3283.91435,0.04722
3281.85418,0.04761
3279.79401,0.04791
3277.73384,0.04789
3275.67367,0.04770
3273.61349,0.04769
3271.55332,0.04770
3269.49315,0.04747
3267.43298,0.04713
3265.37281,0.04685
3263.31263,0.04670
3261.25246,0.04674
3259.19229,0.04649
3257.13212,0.04606
3255.07194,0.04633
3253.01177,0.04704
3250.95160,0.04717
3248.89143,0.04689
3246.83126,0.04678
3244.77108,0.04676
3242.71091,0.04635
3240.65074,0.04582
3238.59057,0.04588
3236.53040,0.04627
3234.47022,0.04636
3232.41005,0.04629
3230.34988,0.04641
3228.28971,0.04642
3226.22954,0.04617
3224.16936,0.04600
3222.10919,0.04585
3220.04902,0.04553
3217.98885,0.04530
3215.92867,0.04532
3213.86850,0.04540
3211.80833,0.04520
3209.74816,0.04470
3207.68799,0.04451
3205.62781,0.04488
3203.56764,0.04522
3201.50747,0.04537
3199.44730,0.04562
3197.38713,0.04559
3195.32695,0.04510
3193.26678,0.04472
3191.20661,0.04457
3189.14644,0.04445
3187.08626,0.04449
3185.02609,0.04451
3182.96592,0.04431
3180.90575,0.04394
3178.84558,0.04353
3176.78540,0.04328
3174.72523,0.04325
3172.66506,0.04334
3170.60489,0.04348
3168.54472,0.04330
3166.48454,0.04271
3164.42437,0.04239
3162.36420,0.04259
3160.30403,0.04255
3158.24386,0.04208
3156.18368,0.04164
3154.12351,0.04137
3152.06334,0.04139
3150.00317,0.04130
3147.94299,0.04083
3145.88282,0.04048
3143.82265,0.04051
3141.76248,0.04074
3139.70231,0.04089
3137.64213,0.04073
3135.58196,0.04046
3133.52179,0.04032
3131.46162,0.04034
3129.40145,0.04026
3127.34127,0.03980
3125.28110,0.03926
3123.22093,0.03912
3121.16076,0.03924
3119.10058,0.03918
3117.04041,0.03899
3114.98024,0.03881
3112.92007,0.03832
3110.85990,0.03766
3108.79972,0.03745
3106.73955,0.03762
3104.67938,0.03759
3102.61921,0.03718
3100.55904,0.03664
3098.49886,0.03639
3096.43869,0.03639
3094.37852,0.03631
3092.31835,0.03638
3090.25818,0.03662
3088.19800,0.03632
3086.13783,0.03569
3084.07766,0.03546
3082.01749,0.03538
3079.95731,0.03509
3077.89714,0.03505
3075.83697,0.03538
3073.77680,0.03555
3071.71663,0.03535
3069.65645,0.03502
3067.59628,0.03486
3065.53611,0.03467
3063.47594,0.03420
3061.41577,0.03387
3059.35559,0.03361
3057.29542,0.03317
3055.23525,0.03296
3053.17508,0.03311
3051.11491,0.03324
3049.05473,0.03292
3046.99456,0.03235
3044.93439,0.03216
3042.87422,0.03219
3040.81404,0.03208
3038.75387,0.03195
3036.69370,0.03166
3034.63353,0.03121
3032.57336,0.03102
3030.51318,0.03093
3028.45301,0.03064
3026.39284,0.03047
3024.33267,0.03047
3022.27250,0.03036
3020.21232,0.03020
3018.15215,0.02996
3016.09198,0.02957
3014.03181,0.02933
3011.97163,0.02930
3009.91146,0.02904
3007.85129,0.02865
3005.79112,0.02841
3003.73095,0.02827
3001.67077,0.02835
2999.61060,0.02858
2997.55043,0.02854
2995.49026,0.02832
2993.43009,0.02821
2991.36991,0.02803
2989.30974,0.02763
2987.24957,0.02737
2985.18940,0.02753
2983.12923,0.02765
2981.06905,0.02744
2979.00888,0.02705
2976.94871,0.02685
2974.88854,0.02702
2972.82836,0.02729
2970.76819,0.02747
2968.70802,0.02753
2966.64785,0.02744
2964.58768,0.02709
2962.52750,0.02665
2960.46733,0.02651
2958.40716,0.02670
2956.34699,0.02711
2954.28682,0.02760
2952.22664,0.02760
2950.16647,0.02690
2948.10630,0.02630
2946.04613,0.02610
2943.98596,0.02611
2941.92578,0.02646
2939.86561,0.02678
2937.80544,0.02668
2935.74527,0.02644
2933.68509,0.02625
2931.62492,0.02607
2929.56475,0.02596
2927.50458,0.02593
2925.44441,0.02570
2923.38423,0.02549
2921.32406,0.02547
2919.26389,0.02542
2917.20372,0.02519
2915.14355,0.02475
2913.08337,0.02441
2911.02320,0.02415
2908.96303,0.02369
2906.90286,0.02342
2904.84268,0.02352
2902.78251,0.02358
2900.72234,0.02340
2898.66217,0.02315
2896.60200,0.02297
2894.54182,0.02274
2892.48165,0.02226
2890.42148,0.02182
2888.36131,0.02178
2886.30114,0.02173
2884.24096,0.02145
2882.18079,0.02146
2880.12062,0.02182
2878.06045,0.02196
2876.00028,0.02167
2873.94010,0.02134
2871.87993,0.02141
2869.81976,0.02152
2867.75959,0.02115
2865.69941,0.02061
2863.63924,0.02037
2861.57907,0.02013
2859.51890,0.01960
2857.45873,0.01932
2855.39855,0.01933
2853.33838,0.01903
2851.27821,0.01863
2849.21804,0.01850
2847.15787,0.01836
2845.09769,0.01805
2843.03752,0.01777
2840.97735,0.01750
2838.91718,0.01729
2836.85700,0.01729
2834.79683,0.01711
2832.73666,0.01664
2830.67649,0.01639
2828.61632,0.01635
2826.55614,0.01619
2824.49597,0.01607
2822.43580,0.01613
2820.37563,0.01620
2818.31546,0.01610
2816.25528,0.01587
2814.19511,0.01566
2812.13494,0.01549
2810.07477,0.01524
2808.01460,0.01494
2805.95442,0.01478
2803.89425,0.01468
2801.83408,0.01461
2799.77391,0.01455
2797.71373,0.01448
2795.65356,0.01459
2793.59339,0.01457
2791.53322,0.01442
2789.47305,0.01443
2787.41287,0.01431
2785.35270,0.01401
2783.29253,0.01375
2781.23236,0.01355
2779.17219,0.01366
2777.11201,0.01380
2775.05184,0.01344
2772.99167,0.01301
2770.93150,0.01307
2768.87133,0.01340
2766.81115,0.01346
2764.75098,0.01320
2762.69081,0.01293
2760.63064,0.01272
2758.57046,0.01254
2756.51029,0.01254
2754.45012,0.01265
2752.38995,0.01262
2750.32978,0.01253
2748.26960,0.01251
2746.20943,0.01255
2744.14926,0.01268
2742.08909,0.01263
2740.02892,0.01231
2737.96874,0.01217
2735.90857,0.01220
2733.84840,0.01180
2731.78823,0.01120
2729.72805,0.01107
2727.66788,0.01117
2725.60771,0.01108
2723.54754,0.01089
2721.48737,0.01075
2719.42719,0.01079
2717.36702,0.01090
2715.30685,0.01087
2713.24668,0.01074
2711.18651,0.01056
2709.12633,0.01034
2707.06616,0.01025
2705.00599,0.01029
2702.94582,0.01026
2700.88565,0.01008
2698.82547,0.00999
2696.76530,0.00999
2694.70513,0.00990
2692.64496,0.00985
2690.58478,0.00984
2688.52461,0.00967
2686.46444,0.00945
2684.40427,0.00927
2682.34410,0.00909
2680.28392,0.00901
2678.22375,0.00911
2676.16358,0.00936
2674.10341,0.00962
2672.04324,0.00944
2669.98306,0.00876
2667.92289,0.00827
2665.86272,0.00823
2663.80255,0.00825
2661.74238,0.00827
2659.68220,0.00840
2657.62203,0.00843
2655.56186,0.00825
2653.50169,0.00819
2651.44151,0.00834
2649.38134,0.00846
2647.32117,0.00827
2645.26100,0.00771
2643.20083,0.00733
2641.14065,0.00756
2639.08048,0.00797
2637.02031,0.00800
2634.96014,0.00781
2632.89997,0.00779
2630.83979,0.00789
2628.77962,0.00790
2626.71945,0.00781
2624.65928,0.00759
2622.59910,0.00745
2620.53893,0.00758
2618.47876,0.00752
2616.41859,0.00708
2614.35842,0.00679
2612.29824,0.00679
2610.23807,0.00674
2608.17790,0.00660
2606.11773,0.00673
2604.05756,0.00688
2601.99738,0.00654
2599.93721,0.00629
2597.87704,0.00669
2595.81687,0.00696
2593.75670,0.00651
2591.69652,0.00598
2589.63635,0.00590
2587.57618,0.00596
2585.51601,0.00611
2583.45583,0.00629
2581.39566,0.00607
2579.33549,0.00569
2577.27532,0.00564
2575.21515,0.00584
2573.15497,0.00604
2571.09480,0.00613
2569.03463,0.00621
2566.97446,0.00617
2564.91429,0.00566
2562.85411,0.00531
2560.79394,0.00580
2558.73377,0.00616
2556.67360,0.00556
2554.61342,0.00486
2552.55325,0.00507
2550.49308,0.00571
2548.43291,0.00587
2546.37274,0.00563
2544.31256,0.00544
2542.25239,0.00549
2540.19222,0.00573
2538.13205,0.00572
2536.07188,0.00554
2534.01170,0.00581
2531.95153,0.00637
2529.89136,0.00656
2527.83119,0.00615
2525.77102,0.00566
2523.71084,0.00558
2521.65067,0.00560
2519.59050,0.00541
2517.53033,0.00529
2515.47015,0.00555
2513.40998,0.00583
2511.34981,0.00579
2509.28964,0.00593
2507.22947,0.00643
2505.16929,0.00664
2503.10912,0.00638
2501.04895,0.00603
2498.98878,0.00615
2496.92861,0.00648
2494.86843,0.00637
2492.80826,0.00613
2490.74809,0.00586
2488.68792,0.00567
2486.62775,0.00620
2484.56757,0.00681
2482.50740,0.00660
2480.44723,0.00617
2478.38706,0.00621
2476.32688,0.00641
2474.26671,0.00628
2472.20654,0.00605
2470.14637,0.00616
2468.08620,0.00627
2466.02602,0.00609
2463.96585,0.00584
2461.90568,0.00576
2459.84551,0.00600
2457.78534,0.00636
2455.72516,0.00645
2453.66499,0.00638
2451.60482,0.00640
2449.54465,0.00647
2447.48447,0.00655
2445.42430,0.00672
2443.36413,0.00691
2441.30396,0.00673
2439.24379,0.00625
2437.18361,0.00610
2435.12344,0.00635
2433.06327,0.00663
2431.00310,0.00670
2428.94293,0.00647
2426.88275,0.00603
2424.82258,0.00564
2422.76241,0.00566
2420.70224,0.00622
2418.64207,0.00684
2416.58189,0.00678
2414.52172,0.00622
2412.46155,0.00609
2410.40138,0.00629
2408.34120,0.00648
2406.28103,0.00645
2404.22086,0.00618
2402.16069,0.00623
2400.10052,0.00664
2398.04034,0.00674
2395.98017,0.00641
2393.92000,0.00608
2391.85983,0.00614
2389.79966,0.00627
2387.73948,0.00595
2385.67931,0.00565
2383.61914,0.00609
2381.55897,0.00684
2379.49880,0.00710
2377.43862,0.00680
2375.37845,0.00647
2373.31828,0.00690
2371.25811,0.00802
2369.19793,0.00875
2367.13776,0.00889
2365.07759,0.00868
2363.01742,0.00755
2360.95725,0.00686
2358.89707,0.00817
2356.83690,0.00943
2354.77673,0.00895
2352.71656,0.00810
2350.65639,0.00779
2348.59621,0.00748
2346.53604,0.00670
2344.47587,0.00566
2342.41570,0.00526
2340.35552,0.00548
2338.29535,0.00524
2336.23518,0.00497
2334.17501,0.00558
2332.11484,0.00650
2330.05466,0.00684
2327.99449,0.00683
2325.93432,0.00682
2323.87415,0.00647
2321.81398,0.00593
2319.75380,0.00563
2317.69363,0.00560
2315.63346,0.00582
2313.57329,0.00609
2311.51312,0.00638
2309.45294,0.00669
2307.39277,0.00661
2305.33260,0.00603
2303.27243,0.00566
2301.21225,0.00595
2299.15208,0.00639
2297.09191,0.00638
2295.03174,0.00609
2292.97157,0.00609
2290.91139,0.00644
2288.85122,0.00678
2286.79105,0.00682
2284.73088,0.00661
2282.67071,0.00632
2280.61053,0.00597
2278.55036,0.00570
2276.49019,0.00586
2274.43002,0.00649
2272.36984,0.00693
2270.30967,0.00651
2268.24950,0.00581
2266.18933,0.00543
2264.12916,0.00532
2262.06898,0.00590
2260.00881,0.00691
2257.94864,0.00677
2255.88847,0.00526
2253.82830,0.00395
2251.76812,0.00373
2249.70795,0.00442
2247.64778,0.00534
2245.58761,0.00585
2243.52744,0.00583
2241.46726,0.00537
2239.40709,0.00516
2237.34692,0.00508
2235.28675,0.00429
2233.22657,0.00345
2231.16640,0.00370
2229.10623,0.00444
2227.04606,0.00454
2224.98589,0.00449
2222.92571,0.00487
2220.86554,0.00460
2218.80537,0.00417
2216.74520,0.00526
2214.68503,0.00649
2212.62485,0.00616
2210.56468,0.00565
2208.50451,0.00578
2206.44434,0.00546
2204.38417,0.00483
2202.32399,0.00429
2200.26382,0.00383
2198.20365,0.00440
2196.14348,0.00514
2194.08330,0.00458
2192.02313,0.00415
2189.96296,0.00465
2187.90279,0.00479
2185.84262,0.00347
2183.78244,0.00106
2181.72227,0.00000
2179.66210,0.00111
2177.60193,0.00261
2175.54176,0.00351
2173.48158,0.00393
2171.42141,0.00425
2169.36124,0.00496
2167.30107,0.00628
2165.24089,0.00720
2163.18072,0.00696
2161.12055,0.00565
2159.06038,0.00287
2157.00021,0.00052
2154.94003,0.00092
2152.87986,0.00194
2150.81969,0.00175
2148.75952,0.00154
2146.69935,0.00143
2144.63917,0.00103
2142.57900,0.00139
2140.51883,0.00266
2138.45866,0.00373
2136.39849,0.00427
2134.33831,0.00443
2132.27814,0.00435
2130.21797,0.00442
2128.15780,0.00429
2126.09762,0.00340
2124.03745,0.00265
2121.97728,0.00302
2119.91711,0.00390
2117.85694,0.00457
2115.79676,0.00499
2113.73659,0.00485
2111.67642,0.00419
2109.61625,0.00396
2107.55608,0.00449
2105.49590,0.00495
2103.43573,0.00478
2101.37556,0.00413
2099.31539,0.00380
2097.25521,0.00413
2095.19504,0.00408
2093.13487,0.00327
2091.07470,0.00336
2089.01453,0.00443
2086.95435,0.00469
2084.89418,0.00448
2082.83401,0.00464
2080.77384,0.00465
2078.71367,0.00479
2076.65349,0.00511
2074.59332,0.00484
2072.53315,0.00414
2070.47298,0.00330
2068.41281,0.00265
2066.35263,0.00288
2064.29246,0.00354
2062.23229,0.00360
2060.17212,0.00286
2058.11194,0.00244
2056.05177,0.00287
2053.99160,0.00339
2051.93143,0.00388
2049.87126,0.00406
2047.81108,0.00370
2045.75091,0.00378
2043.69074,0.00393
2041.63057,0.00304
2039.57040,0.00278
2037.51022,0.00381
2035.45005,0.00322
2033.38988,0.00093
2031.32971,0.00000
2029.26954,0.00092
2027.20936,0.00212
2025.14919,0.00300
2023.08902,0.00342
2021.02885,0.00291
2018.96867,0.00265
2016.90850,0.00307
2014.84833,0.00204
2012.78816,0.00020
2010.72799,-0.00013
2008.66781,0.00005
2006.60764,-0.00025
2004.54747,0.00011
2002.48730,0.00101
2000.42713,0.00123
1998.36695,0.00140
1996.30678,0.00226
1994.24661,0.00251
1992.18644,0.00224
1990.12626,0.00236
1988.06609,0.00246
1986.00592,0.00242
1983.94575,0.00317
1981.88558,0.00436
1979.82540,0.00331
1977.76523,0.00086
1975.70506,0.00036
1973.64489,0.00099
1971.58472,0.00135
1969.52454,0.00118
1967.46437,0.00054
1965.40420,0.00052
1963.34403,0.00090
1961.28386,0.00099
1959.22368,0.00084
1957.16351,0.00035
1955.10334,0.00040
1953.04317,0.00153
1950.98299,0.00210
1948.92282,0.00141
1946.86265,0.00093
1944.80248,0.00158
1942.74231,0.00223
1940.68213,0.00164
1938.62196,0.00097
1936.56179,0.00126
1934.50162,0.00168
1932.44145,0.00165
1930.38127,0.00158
1928.32110,0.00145
1926.26093,0.00147
1924.20076,0.00197
1922.14059,0.00230
1920.08041,0.00184
1918.02024,0.00120
1915.96007,0.00136
1913.89990,0.00188
1911.83972,0.00177
1909.77955,0.00109
1907.71938,0.00073
1905.65921,0.00113
1903.59904,0.00177
1901.53886,0.00205
1899.47869,0.00180
1897.41852,0.00146
1895.35835,0.00135
1893.29818,0.00127
1891.23800,0.00119
1889.17783,0.00131
1887.11766,0.00139
1885.05749,0.00123
1882.99731,0.00129
1880.93714,0.00180
1878.87697,0.00220
1876.81680,0.00192
1874.75663,0.00106
1872.69645,0.00025
1870.63628,0.00000
1868.57611,0.00032
1866.51594,0.00099
1864.45577,0.00162
1862.39559,0.00175
1860.33542,0.00147
1858.27525,0.00105
1856.21508,0.00074
1854.15491,0.00089
1852.09473,0.00132
1850.03456,0.00143
1847.97439,0.00107
1845.91422,0.00067
1843.85404,0.00058
1841.79387,0.00080
1839.73370,0.00106
1837.67353,0.00117
1835.61336,0.00122
1833.55318,0.00135
1831.49301,0.00137
1829.43284,0.00109
1827.37267,0.00101
1825.31250,0.00140
1823.25232,0.00167
1821.19215,0.00157
1819.13198,0.00154
1817.07181,0.00168
1815.01163,0.00176
1812.95146,0.00176
1810.89129,0.00166
1808.83112,0.00155
1806.77095,0.00164
1804.71077,0.00189
1802.65060,0.00209
1800.59043,0.00198
1798.53026,0.00168
1796.47009,0.00166
1794.40991,0.00198
1792.34974,0.00220
1790.28957,0.00196
1788.22940,0.00146
1786.16923,0.00106
1784.10905,0.00111
1782.04888,0.00169
1779.98871,0.00227
1777.92854,0.00232
1775.86836,0.00198
1773.80819,0.00174
1771.74802,0.00176
1769.68785,0.00178
1767.62768,0.00170
1765.56750,0.00189
1763.50733,0.00255
1761.44716,0.00328
1759.38699,0.00359
1757.32682,0.00343
1755.26664,0.00318
1753.20647,0.00321
1751.14630,0.00361
1749.08613,0.00410
1747.02596,0.00444
1744.96578,0.00466
1742.90561,0.00477
1740.84544,0.00483
1738.78527,0.00501
1736.72509,0.00532
1734.66492,0.00559
1732.60475,0.00569
1730.54458,0.00573
1728.48441,0.00580
1726.42423,0.00582
1724.36406,0.00581
1722.30389,0.00580
1720.24372,0.00597
1718.18355,0.00649
1716.12337,0.00691
1714.06320,0.00686
1712.00303,0.00678
1709.94286,0.00687
1707.88268,0.00696
1705.82251,0.00701
1703.76234,0.00720
1701.70217,0.00785
1699.64200,0.00903
1697.58182,0.01013
1695.52165,0.01080
1693.46148,0.01146
1691.40131,0.01236
1689.34114,0.01332
1687.28096,0.01411
1685.22079,0.01500
1683.16062,0.01613
1681.10045,0.01712
1679.04028,0.01798
1676.98010,0.01893
1674.91993,0.02002
1672.85976,0.02110
1670.79959,0.02227
1668.73941,0.02363
1666.67924,0.02479
1664.61907,0.02578
1662.55890,0.02682
1660.49873,0.02758
1658.43855,0.02803
1656.37838,0.02849
1654.31821,0.02885
1652.25804,0.02890
1650.19787,0.02908
1648.13769,0.02948
1646.07752,0.02969
1644.01735,0.02954
1641.95718,0.02937
1639.89701,0.02924
1637.83683,0.02886
1635.77666,0.02804
1633.71649,0.02722
1631.65632,0.02674
1629.59614,0.02614
1627.53597,0.02515
1625.47580,0.02419
1623.41563,0.02338
1621.35546,0.02263
1619.29528,0.02204
1617.23511,0.02143
1615.17494,0.02057
1613.11477,0.01971
1611.05460,0.01891
1608.99442,0.01823
1606.93425,0.01778
1604.87408,0.01747
1602.81391,0.01706
1600.75373,0.01648
1598.69356,0.01589
1596.63339,0.01540
1594.57322,0.01504
1592.51305,0.01474
1590.45287,0.01433
1588.39270,0.01380
1586.33253,0.01340
1584.27236,0.01311
1582.21219,0.01280
1580.15201,0.01260
1578.09184,0.01247
1576.03167,0.01221
1573.97150,0.01185
1571.91133,0.01166
1569.85115,0.01179
1567.79098,0.01205
1565.73081,0.01216
1563.67064,0.01209
1561.61046,0.01182
1559.55029,0.01163
1557.49012,0.01177
1555.42995,0.01182
1553.36978,0.01158
1551.30960,0.01138
1549.24943,0.01147
1547.18926,0.01167
1545.12909,0.01172
1543.06892,0.01155
1541.00874,0.01122
1538.94857,0.01097
1536.88840,0.01092
1534.82823,0.01076
1532.76805,0.01028
1530.70788,0.00968
1528.64771,0.00916
1526.58754,0.00883
1524.52737,0.00876
1522.46719,0.00864
1520.40702,0.00826
1518.34685,0.00796
1516.28668,0.00779
1514.22651,0.00756
1512.16633,0.00734
1510.10616,0.00730
1508.04599,0.00732
1505.98582,0.00684
1503.92565,0.00616
1501.86547,0.00574
1499.80530,0.00542
1497.74513,0.00501
1495.68496,0.00468
1493.62478,0.00471
1491.56461,0.00488
1489.50444,0.00491
1487.44427,0.00476
1485.38410,0.00445
1483.32392,0.00417
1481.26375,0.00408
1479.20358,0.00418
1477.14341,0.00451
1475.08324,0.00514
1473.02306,0.00579
1470.96289,0.00595
1468.90272,0.00585
1466.84255,0.00596
1464.78238,0.00623
1462.72220,0.00632
1460.66203,0.00629
1458.60186,0.00631
1456.54169,0.00622
1454.48151,0.00601
1452.42134,0.00595
1450.36117,0.00605
1448.30100,0.00625
1446.24083,0.00643
1444.18065,0.00646
1442.12048,0.00633
1440.06031,0.00616
1438.00014,0.00594
1435.93997,0.00563
1433.87979,0.00543
1431.81962,0.00553
1429.75945,0.00575
1427.69928,0.00586
1425.63910,0.00587
1423.57893,0.00601
1421.51876,0.00639
1419.45859,0.00676
1417.39842,0.00676
1415.33824,0.00656
1413.27807,0.00647
1411.21790,0.00641
1409.15773,0.00629
1407.09756,0.00618
1405.03738,0.00608
1402.97721,0.00607
1400.91704,0.00616
1398.85687,0.00603
1396.79670,0.00555
1394.73652,0.00508
1392.67635,0.00485
1390.61618,0.00478
1388.55601,0.00479
1386.49583,0.00484
1384.43566,0.00484
1382.37549,0.00479
1380.31532,0.00476
1378.25515,0.00477
1376.19497,0.00474
1374.13480,0.00465
1372.07463,0.00455
1370.01446,0.00443
1367.95429,0.00421
1365.89411,0.00395
1363.83394,0.00372
1361.77377,0.00359
1359.71360,0.00354
1357.65343,0.00343
1355.59325,0.00316
1353.53308,0.00291
1351.47291,0.00284
1349.41274,0.00291
1347.35256,0.00292
1345.29239,0.00279
1343.23222,0.00261
1341.17205,0.00244
1339.11188,0.00239
1337.05170,0.00250
1334.99153,0.00262
1332.93136,0.00261
1330.87119,0.00265
1328.81102,0.00284
1326.75084,0.00296
1324.69067,0.00288
1322.63050,0.00289
1320.57033,0.00326
1318.51015,0.00360
1316.44998,0.00359
1314.38981,0.00345
1312.32964,0.00338
1310.26947,0.00338
1308.20929,0.00341
1306.14912,0.00355
1304.08895,0.00378
1302.02878,0.00387
1299.96861,0.00388
1297.90843,0.00415
1295.84826,0.00470
1293.78809,0.00514
1291.72792,0.00518
1289.66775,0.00498
1287.60757,0.00485
1285.54740,0.00483
1283.48723,0.00473
1281.42706,0.00460
1279.36688,0.00455
1277.30671,0.00458
1275.24654,0.00470
1273.18637,0.00488
1271.12620,0.00503
1269.06602,0.00506
1267.00585,0.00506
1264.94568,0.00508
1262.88551,0.00510
1260.82534,0.00515
1258.76516,0.00519
1256.70499,0.00516
1254.64482,0.00527
1252.58465,0.00559
1250.52447,0.00574
1248.46430,0.00547
1246.40413,0.00520
1244.34396,0.00523
1242.28379,0.00527
1240.22361,0.00521
1238.16344,0.00512
1236.10327,0.00491
1234.04310,0.00465
1231.98293,0.00452
1229.92275,0.00446
1227.86258,0.00435
1225.80241,0.00411
1223.74224,0.00375
1221.68207,0.00325
1219.62189,0.00283
1217.56172,0.00264
1215.50155,0.00234
1213.44138,0.00189
1211.38120,0.00174
1209.32103,0.00175
1207.26086,0.00158
1205.20069,0.00121
1203.14052,0.00064
1201.08034,0.00024
1199.02017,0.00028
1196.96000,0.00026
1194.89983,0.00004
1192.83966,0.00000
1190.77948,0.00006
1188.71931,0.00016
1186.65914,0.00035
1184.59897,0.00063
1182.53880,0.00086
1180.47862,0.00086
1178.41845,0.00076
1176.35828,0.00093
1174.29811,0.00135
1172.23793,0.00171
1170.17776,0.00194
1168.11759,0.00226
1166.05742,0.00272
1163.99725,0.00312
1161.93707,0.00346
1159.87690,0.00399
1157.81673,0.00469
1155.75656,0.00522
1153.69639,0.00543
1151.63621,0.00576
1149.57604,0.00659
1147.51587,0.00766
1145.45570,0.00843
1143.39552,0.00891
1141.33535,0.00941
1139.27518,0.00998
1137.21501,0.01078
1135.15484,0.01190
1133.09466,0.01310
1131.03449,0.01412
1128.97432,0.01521
1126.91415,0.01658
1124.85398,0.01801
1122.79380,0.01938
1120.73363,0.02098
1118.67346,0.02270
1116.61329,0.02423
1114.55312,0.02580
1112.49294,0.02749
1110.43277,0.02918
1108.37260,0.03081
1106.31243,0.03254
1104.25225,0.03432
1102.19208,0.03582
1100.13191,0.03693
1098.07174,0.03801
1096.01157,0.03924
1093.95139,0.04039
1091.89122,0.04150
1089.83105,0.04269
1087.77088,0.04380
1085.71071,0.04474
1083.65053,0.04557
1081.59036,0.04619
1079.53019,0.04659
1077.47002,0.04718
1075.40985,0.04800
1073.34967,0.04873
1071.28950,0.04917
1069.22933,0.04941
1067.16916,0.04954
1065.10898,0.04920
1063.04881,0.04851
1060.98864,0.04813
1058.92847,0.04770
1056.86830,0.04675
1054.80812,0.04545
1052.74795,0.04394
1050.68778,0.04242
1048.62761,0.04119
1046.56744,0.04006
1044.50726,0.03857
1042.44709,0.03681
1040.38692,0.03513
1038.32675,0.03356
1036.26657,0.03190
1034.20640,0.03034
1032.14623,0.02908
1030.08606,0.02781
1028.02589,0.02624
1025.96571,0.02464
1023.90554,0.02347
1021.84537,0.02275
1019.78520,0.02222
1017.72503,0.02161
1015.66485,0.02091
1013.60468,0.02034
1011.54451,0.02003
1009.48434,0.02002
1007.42417,0.02026
1005.36399,0.02052
1003.30382,0.02091
1001.24365,0.02143
999.18348,0.02227
997.12330,0.02361
995.06313,0.02489
993.00296,0.02598
990.94279,0.02709
988.88262,0.02787
986.82244,0.02806
984.76227,0.02797
982.70210,0.02814
980.64193,0.02841
978.58176,0.02802
976.52158,0.02698
974.46141,0.02590
972.40124,0.02478
970.34107,0.02326
968.28089,0.02148
966.22072,0.01992
964.16055,0.01859
962.10038,0.01727
960.04021,0.01585
957.98003,0.01436
955.91986,0.01305
953.85969,0.01188
951.79952,0.01045
949.73935,0.00896
947.67917,0.00776
945.61900,0.00663
943.55883,0.00562
941.49866,0.00506
939.43849,0.00478
937.37831,0.00469
935.31814,0.00456
933.25797,0.00404
931.19780,0.00349
929.13762,0.00292
927.07745,0.00205
925.01728,0.00134
922.95711,0.00091
920.89694,0.00056
918.83676,0.00030
916.77659,0.00000
914.71642,-0.00007
912.65625,0.00012
910.59608,0.00014
908.53590,0.00004
906.47573,0.00000
904.41556,0.00007
902.35539,-0.00002
900.29522,-0.00020
898.23504,0.00020
896.17487,0.00078
894.11470,0.00108
892.05453,0.00119
889.99435,0.00114
887.93418,0.00146
885.87401,0.00224
883.81384,0.00286
881.75367,0.00324
879.69349,0.00387
877.63332,0.00482
875.57315,0.00560
873.51298,0.00602
871.45281,0.00642
869.39263,0.00685
867.33246,0.00696
865.27229,0.00671
863.21212,0.00670
861.15194,0.00746
859.09177,0.00828
857.03160,0.00850
854.97143,0.00859
852.91126,0.00845
850.85108,0.00804
848.79091,0.00826
846.73074,0.00881
844.67057,0.00861
842.61040,0.00774
840.55022,0.00665
838.49005,0.00579
836.42988,0.00590
834.36971,0.00638
832.30954,0.00601
830.24936,0.00521
828.18919,0.00486
826.12902,0.00480
824.06885,0.00471
822.00867,0.00440
819.94850,0.00384
817.88833,0.00316
815.82816,0.00292
813.76799,0.00329
811.70781,0.00315
809.64764,0.00256
807.58747,0.00265
805.52730,0.00294
803.46713,0.00260
801.40695,0.00191
799.34678,0.00138
797.28661,0.00120
795.22644,0.00158
793.16627,0.00211
791.10609,0.00236
789.04592,0.00238
786.98575,0.00240
784.92558,0.00256
782.86540,0.00230
780.80523,0.00177
778.74506,0.00136
776.68489,0.00127
774.62472,0.00162
772.56454,0.00177
770.50437,0.00134
768.44420,0.00096
766.38403,0.00117
764.32386,0.00146
762.26368,0.00126
760.20351,0.00091
758.14334,0.00084
756.08317,0.00140
754.02299,0.00236
751.96282,0.00230
749.90265,0.00095
747.84248,0.00000
745.78231,0.00057
743.72213,0.00185
741.66196,0.00195
739.60179,0.00085
737.54162,0.00057
735.48145,0.00152
733.42127,0.00205
731.36110,0.00174
729.30093,0.00178
727.24076,0.00179
725.18059,0.00085
723.12041,0.00018
721.06024,0.00059
719.00007,0.00160
716.93990,0.00251
714.87972,0.00293
712.81955,0.00269
710.75938,0.00204
708.69921,0.00130
706.63904,0.00074
704.57886,0.00112
702.51869,0.00238
700.45852,0.00321
698.39835,0.00266
696.33818,0.00134
694.27800,0.00074
692.21783,0.00134
690.15766,0.00230
688.09749,0.00288
686.03731,0.00276
683.97714,0.00182
681.91697,0.00076
679.85680,0.00047
677.79663,0.00089
675.73645,0.00161
673.67628,0.00231
671.61611,0.00276
669.55594,0.00267
667.49577,0.00190
665.43559,0.00168
663.37542,0.00224
661.31525,0.00217
659.25508,0.00166
657.19491,0.00210
655.13473,0.00295
653.07456,0.00314
651.01439,0.00246
648.95422,0.00111
646.89404,0.00000
644.83387,0.00004
642.77370,0.00099
640.71353,0.00218
638.65336,0.00294
636.59318,0.00230
634.53301,0.00070
632.47284,-0.00005
630.41267,0.00170
628.35250,0.00561
626.29232,0.00762
624.23215,0.00412
622.17198,0.00060
620.11181,0.00107
618.05164,0.00171
615.99146,0.00164
613.93129,0.00428
611.87112,0.00680
609.81095,0.00628
607.75077,0.00583
605.69060,0.00713
603.63043,0.00729
601.57026,0.00384
599.51009,0.00000
