3996.73391,0.00000
3994.67373,0.00026
3992.61356,0.00053
3990.55339,0.00075
3988.49322,0.00083
3986.43305,0.00072
3984.37287,0.00057
3982.31270,0.00061
3980.25253,0.00067
3978.19236,0.00068
3976.13219,0.00070
3974.07201,0.00067
3972.01184,0.00057
3969.95167,0.00043
3967.89150,0.00044
3965.83133,0.00060
3963.77115,0.00058
3961.71098,0.00044
3959.65081,0.00043
3957.59064,0.00043
3955.53046,0.00045
3953.47029,0.00071
3951.41012,0.00111
3949.34995,0.00135
3947.28978,0.00151
3945.22960,0.00162
3943.16943,0.00148
3941.10926,0.00125
3939.04909,0.00117
3936.98892,0.00118
3934.92874,0.00142
3932.86857,0.00197
3930.80840,0.00234
3928.74823,0.00213
3926.68805,0.00181
3924.62788,0.00195
3922.56771,0.00213
3920.50754,0.00170
3918.44737,0.00113
3916.38719,0.00114
3914.32702,0.00132
3912.26685,0.00119
3910.20668,0.00107
3908.14651,0.00113
3906.08633,0.00121
3904.02616,0.00129
3901.96599,0.00129
3899.90582,0.00120
3897.84565,0.00124
3895.78547,0.00144
3893.72530,0.00162
3891.66513,0.00159
3889.60496,0.00120
3887.54478,0.00080
3885.48461,0.00086
3883.42444,0.00110
3881.36427,0.00109
3879.30410,0.00101
3877.24392,0.00084
3875.18375,0.00062
3873.12358,0.00056
3871.06341,0.00061
3869.00324,0.00083
3866.94306,0.00121
3864.88289,0.00147
3862.82272,0.00143
3860.76255,0.00137
3858.70237,0.00154
3856.64220,0.00192
3854.58203,0.00223
3852.52186,0.00201
3850.46169,0.00154
3848.40151,0.00139
3846.34134,0.00143
3844.28117,0.00137
3842.22100,0.00117
3840.16083,0.00103
3838.10065,0.00118
3836.04048,0.00152
3833.98031,0.00176
3831.92014,0.00174
3829.85997,0.00134
3827.79979,0.00087
3825.73962,0.00087
3823.67945,0.00127
3821.61928,0.00167
3819.55910,0.00184
3817.49893,0.00177
3815.43876,0.00167
3813.37859,0.00160
3811.31842,0.00134
3809.25824,0.00088
3807.19807,0.00067
3805.13790,0.00091
3803.07773,0.00116
3801.01756,0.00114
3798.95738,0.00095
3796.89721,0.00071
3794.83704,0.00067
3792.77687,0.00100
3790.71670,0.00141
3788.65652,0.00152
3786.59635,0.00129
3784.53618,0.00112
3782.47601,0.00118
3780.41583,0.00112
3778.35566,0.00107
3776.29549,0.00142
3774.23532,0.00180
3772.17515,0.00169
3770.11497,0.00137
3768.05480,0.00149
3765.99463,0.00191
3763.93446,0.00189
3761.87429,0.00141
3759.81411,0.00108
3757.75394,0.00123
3755.69377,0.00162
3753.63360,0.00174
3751.57342,0.00188
3749.51325,0.00256
3747.45308,0.00297
3745.39291,0.00263
3743.33274,0.00208
3741.27256,0.00192
3739.21239,0.00195
3737.15222,0.00187
3735.09205,0.00174
3733.03188,0.00178
3730.97170,0.00191
3728.91153,0.00171
3726.85136,0.00134
3724.79119,0.00173
3722.73102,0.00258
3720.67084,0.00266
3718.61067,0.00200
3716.55050,0.00130
3714.49033,0.00094
3712.43015,0.00085
3710.36998,0.00071
3708.30981,0.00089
3706.24964,0.00162
3704.18947,0.00225
3702.12929,0.00213
3700.06912,0.00177
3698.00895,0.00182
3695.94878,0.00199
3693.88861,0.00196
3691.82843,0.00205
3689.76826,0.00252
3687.70809,0.00278
3685.64792,0.00260
3683.58775,0.00226
3681.52757,0.00172
3679.46740,0.00100
3677.40723,0.00104
3675.34706,0.00236
3673.28688,0.00350
3671.22671,0.00374
3669.16654,0.00403
3667.10637,0.00432
3665.04620,0.00413
3662.98602,0.00392
3660.92585,0.00404
3658.86568,0.00406
3656.80551,0.00363
3654.74534,0.00315
3652.68516,0.00321
3650.62499,0.00399
3648.56482,0.00537
3646.50465,0.00653
3644.44447,0.00687
3642.38430,0.00662
3640.32413,0.00629
3638.26396,0.00622
3636.20379,0.00633
3634.14361,0.00665
3632.08344,0.00722
3630.02327,0.00755
3627.96310,0.00724
3625.90293,0.00701
3623.84275,0.00732
3621.78258,0.00780
3619.72241,0.00810
3617.66224,0.00825
3615.60207,0.00838
3613.54189,0.00861
3611.48172,0.00919
3609.42155,0.01001
3607.36138,0.01046
3605.30120,0.01055
3603.24103,0.01079
3601.18086,0.01144
3599.12069,0.01231
3597.06052,0.01296
3595.00034,0.01298
3592.94017,0.01240
3590.88000,0.01173
3588.81983,0.01146
3586.75966,0.01180
3584.69948,0.01257
3582.63931,0.01316
3580.57914,0.01349
3578.51897,0.01369
3576.45879,0.01379
3574.39862,0.01413
3572.33845,0.01511
3570.27828,0.01610
3568.21811,0.01593
3566.15793,0.01475
3564.09776,0.01439
3562.03759,0.01540
3559.97742,0.01683
3557.91725,0.01795
3555.85707,0.01853
3553.79690,0.01851
3551.73673,0.01853
3549.67656,0.01905
3547.61639,0.01943
3545.55621,0.01932
3543.49604,0.01911
3541.43587,0.01907
3539.37570,0.01924
3537.31552,0.01946
3535.25535,0.01957
3533.19518,0.01981
3531.13501,0.02039
3529.07484,0.02097
3527.01466,0.02113
3524.95449,0.02108
3522.89432,0.02120
3520.83415,0.02153
3518.77398,0.02192
3516.71380,0.02221
3514.65363,0.02240
3512.59346,0.02266
3510.53329,0.02292
3508.47312,0.02321
3506.41294,0.02373
3504.35277,0.02445
3502.29260,0.02491
3500.23243,0.02494
3498.17225,0.02505
3496.11208,0.02539
3494.05191,0.02555
3491.99174,0.02533
3489.93157,0.02520
3487.87139,0.02541
3485.81122,0.02573
3483.75105,0.02611
3481.69088,0.02658
3479.63071,0.02701
3477.57053,0.02744
3475.51036,0.02774
3473.45019,0.02765
3471.39002,0.02735
3469.32984,0.02739
3467.26967,0.02770
3465.20950,0.02785
3463.14933,0.02794
3461.08916,0.02813
3459.02898,0.02828
3456.96881,0.02858
3454.90864,0.02903
3452.84847,0.02918
3450.78830,0.02918
3448.72812,0.02946
3446.66795,0.02979
3444.60778,0.02979
3442.54761,0.02956
3440.48744,0.02954
3438.42726,0.02960
3436.36709,0.02955
3434.30692,0.03007
3432.24675,0.03116
3430.18657,0.03157
3428.12640,0.03089
3426.06623,0.03019
3424.00606,0.03036
3421.94589,0.03080
3419.88571,0.03074
3417.82554,0.03082
3415.76537,0.03117
3413.70520,0.03142
3411.64503,0.03183
3409.58485,0.03215
3407.52468,0.03207
3405.46451,0.03221
3403.40434,0.03275
3401.34416,0.03302
3399.28399,0.03275
3397.22382,0.03246
3395.16365,0.03282
3393.10348,0.03355
3391.04330,0.03373
3388.98313,0.03322
3386.92296,0.03264
3384.86279,0.03255
3382.80262,0.03299
3380.74244,0.03358
3378.68227,0.03374
3376.62210,0.03332
3374.56193,0.03288
3372.50176,0.03281
3370.44158,0.03298
3368.38141,0.03309
3366.32124,0.03315
3364.26107,0.03328
3362.20089,0.03333
3360.14072,0.03320
3358.08055,0.03322
3356.02038,0.03337
3353.96021,0.03343
3351.90003,0.03358
3349.83986,0.03372
3347.77969,0.03361
3345.71952,0.03349
3343.65935,0.03364
3341.59917,0.03403
3339.53900,0.03433
3337.47883,0.03405
3335.41866,0.03328
3333.35849,0.03275
3331.29831,0.03272
3329.23814,0.03294
3327.17797,0.03322
3325.11780,0.03347
3323.05762,0.03377
3320.99745,0.03385
3318.93728,0.03364
3316.87711,0.03352
3314.81694,0.03365
3312.75676,0.03387
3310.69659,0.03374
3308.63642,0.03339
3306.57625,0.03347
3304.51608,0.03373
3302.45590,0.03380
3300.39573,0.03398
3298.33556,0.03416
3296.27539,0.03385
3294.21521,0.03339
3292.15504,0.03332
3290.09487,0.03362
3288.03470,0.03405
3285.97453,0.03440
3283.91435,0.03447
3281.85418,0.03419
3279.79401,0.03390
3277.73384,0.03382
3275.67367,0.03385
3273.61349,0.03392
3271.55332,0.03397
3269.49315,0.03381
3267.43298,0.03339
3265.37281,0.03309
3263.31263,0.03306
3261.25246,0.03306
3259.19229,0.03311
3257.13212,0.03327
3255.07194,0.03341
3253.01177,0.03352
3250.95160,0.03363
3248.89143,0.03346
3246.83126,0.03317
3244.77108,0.03304
3242.71091,0.03275
3240.65074,0.03252
3238.59057,0.03283
3236.53040,0.03311
3234.47022,0.03309
3232.41005,0.03311
3230.34988,0.03317
3228.28971,0.03308
3226.22954,0.03285
3224.16936,0.03256
3222.10919,0.03225
3220.04902,0.03208
3217.98885,0.03203
3215.92867,0.03197
3213.86850,0.03190
3211.80833,0.03168
3209.74816,0.03137
3207.68799,0.03148
3205.62781,0.03202
3203.56764,0.03234
3201.50747,0.03233
3199.44730,0.03248
3197.38713,0.03258
3195.32695,0.03218
3193.26678,0.03159
3191.20661,0.03116
3189.14644,0.03096
3187.08626,0.03106
3185.02609,0.03112
3182.96592,0.03098
3180.90575,0.03101
3178.84558,0.03105
3176.78540,0.03083
3174.72523,0.03055
3172.66506,0.03041
3170.60489,0.03038
3168.54472,0.03025
3166.48454,0.02996
3164.42437,0.02994
3162.36420,0.03037
3160.30403,0.03060
3158.24386,0.03031
3156.18368,0.02986
3154.12351,0.02965
3152.06334,0.02962
3150.00317,0.02925
3147.94299,0.02857
3145.88282,0.02836
3143.82265,0.02877
3141.76248,0.02917
3139.70231,0.02915
3137.64213,0.02880
3135.58196,0.02836
3133.52179,0.02811
3131.46162,0.02813
3129.40145,0.02830
3127.34127,0.02835
3125.28110,0.02795
3123.22093,0.02725
3121.16076,0.02704
3119.10058,0.02737
3117.04041,0.02764
3114.98024,0.02769
3112.92007,0.02745
3110.85990,0.02700
3108.79972,0.02685
3106.73955,0.02712
3104.67938,0.02724
3102.61921,0.02695
3100.55904,0.02658
3098.49886,0.02633
3096.43869,0.02603
3094.37852,0.02565
3092.31835,0.02547
3090.25818,0.02555
3088.19800,0.02542
3086.13783,0.02515
3084.07766,0.02525
3082.01749,0.02553
3079.95731,0.02544
3077.89714,0.02505
3075.83697,0.02487
3073.77680,0.02510
3071.71663,0.02540
3069.65645,0.02536
3067.59628,0.02506
3065.53611,0.02468
3063.47594,0.02444
3061.41577,0.02443
3059.35559,0.02425
3057.29542,0.02371
3055.23525,0.02340
3053.17508,0.02375
3051.11491,0.02411
3049.05473,0.02371
3046.99456,0.02316
3044.93439,0.02311
3042.87422,0.02319
3040.81404,0.02310
3038.75387,0.02285
3036.69370,0.02261
3034.63353,0.02244
3032.57336,0.02219
3030.51318,0.02183
3028.45301,0.02153
3026.39284,0.02154
3024.33267,0.02161
3022.27250,0.02153
3020.21232,0.02158
3018.15215,0.02168
3016.09198,0.02150
3014.03181,0.02118
3011.97163,0.02097
3009.91146,0.02090
3007.85129,0.02076
3005.79112,0.02039
3003.73095,0.02002
3001.67077,0.02004
2999.61060,0.02029
2997.55043,0.02017
2995.49026,0.01994
2993.43009,0.02015
2991.36991,0.02054
2989.30974,0.02071
2987.24957,0.02066
2985.18940,0.02035
2983.12923,0.01986
2981.06905,0.01952
2979.00888,0.01920
2976.94871,0.01893
2974.88854,0.01893
2972.82836,0.01901
2970.76819,0.01911
2968.70802,0.01926
2966.64785,0.01936
2964.58768,0.01945
2962.52750,0.01958
2960.46733,0.01969
2958.40716,0.01956
2956.34699,0.01940
2954.28682,0.01953
2952.22664,0.01948
2950.16647,0.01902
2948.10630,0.01876
2946.04613,0.01876
2943.98596,0.01879
2941.92578,0.01888
2939.86561,0.01886
2937.80544,0.01872
2935.74527,0.01875
2933.68509,0.01884
2931.62492,0.01878
2929.56475,0.01866
2927.50458,0.01864
2925.44441,0.01853
2923.38423,0.01812
2921.32406,0.01766
2919.26389,0.01750
2917.20372,0.01738
2915.14355,0.01692
2913.08337,0.01664
2911.02320,0.01674
2908.96303,0.01679
2906.90286,0.01668
2904.84268,0.01667
2902.78251,0.01680
2900.72234,0.01685
2898.66217,0.01670
2896.60200,0.01649
2894.54182,0.01621
2892.48165,0.01580
2890.42148,0.01542
2888.36131,0.01533
2886.30114,0.01539
2884.24096,0.01536
2882.18079,0.01541
2880.12062,0.01549
2878.06045,0.01529
2876.00028,0.01497
2873.94010,0.01487
2871.87993,0.01508
2869.81976,0.01535
2867.75959,0.01525
2865.69941,0.01478
2863.63924,0.01439
2861.57907,0.01432
2859.51890,0.01430
2857.45873,0.01409
2855.39855,0.01389
2853.33838,0.01370
2851.27821,0.01339
2849.21804,0.01308
2847.15787,0.01296
2845.09769,0.01289
2843.03752,0.01286
2840.97735,0.01290
2838.91718,0.01282
2836.85700,0.01260
2834.79683,0.01235
2832.73666,0.01204
2830.67649,0.01183
2828.61632,0.01188
2826.55614,0.01192
2824.49597,0.01184
2822.43580,0.01196
2820.37563,0.01219
2818.31546,0.01211
2816.25528,0.01172
2814.19511,0.01137
2812.13494,0.01125
2810.07477,0.01119
2808.01460,0.01114
2805.95442,0.01122
2803.89425,0.01124
2801.83408,0.01098
2799.77391,0.01072
2797.71373,0.01077
2795.65356,0.01088
2793.59339,0.01073
2791.53322,0.01043
2789.47305,0.01023
2787.41287,0.01021
2785.35270,0.01018
2783.29253,0.01004
2781.23236,0.00997
2779.17219,0.01008
2777.11201,0.01012
2775.05184,0.00983
2772.99167,0.00954
2770.93150,0.00963
2768.87133,0.00988
2766.81115,0.00995
2764.75098,0.00983
2762.69081,0.00963
2760.63064,0.00951
2758.57046,0.00943
2756.51029,0.00941
2754.45012,0.00946
2752.38995,0.00945
2750.32978,0.00942
2748.26960,0.00931
2746.20943,0.00906
2744.14926,0.00885
2742.08909,0.00877
2740.02892,0.00873
2737.96874,0.00877
2735.90857,0.00881
2733.84840,0.00857
2731.78823,0.00830
2729.72805,0.00838
2727.66788,0.00865
2725.60771,0.00867
2723.54754,0.00841
2721.48737,0.00819
2719.42719,0.00811
2717.36702,0.00809
2715.30685,0.00819
2713.24668,0.00840
2711.18651,0.00860
2709.12633,0.00853
2707.06616,0.00821
2705.00599,0.00792
2702.94582,0.00782
2700.88565,0.00789
2698.82547,0.00796
2696.76530,0.00803
2694.70513,0.00811
2692.64496,0.00798
2690.58478,0.00764
2688.52461,0.00742
2686.46444,0.00750
2684.40427,0.00746
2682.34410,0.00723
2680.28392,0.00726
2678.22375,0.00750
2676.16358,0.00764
2674.10341,0.00779
2672.04324,0.00788
2669.98306,0.00756
2667.92289,0.00698
2665.86272,0.00666
2663.80255,0.00663
2661.74238,0.00665
2659.68220,0.00665
2657.62203,0.00663
2655.56186,0.00656
2653.50169,0.00645
2651.44151,0.00642
2649.38134,0.00655
2647.32117,0.00659
2645.26100,0.00641
2643.20083,0.00638
2641.14065,0.00658
2639.08048,0.00671
2637.02031,0.00659
2634.96014,0.00634
2632.89997,0.00617
2630.83979,0.00612
2628.77962,0.00604
2626.71945,0.00576
2624.65928,0.00554
2622.59910,0.00570
2620.53893,0.00596
2618.47876,0.00583
2616.41859,0.00534
2614.35842,0.00509
2612.29824,0.00529
2610.23807,0.00564
2608.17790,0.00578
2606.11773,0.00571
2604.05756,0.00562
2601.99738,0.00544
2599.93721,0.00521
2597.87704,0.00511
2595.81687,0.00498
2593.75670,0.00483
2591.69652,0.00480
2589.63635,0.00476
2587.57618,0.00463
2585.51601,0.00460
2583.45583,0.00485
2581.39566,0.00524
2579.33549,0.00550
2577.27532,0.00551
2575.21515,0.00537
2573.15497,0.00531
2571.09480,0.00539
2569.03463,0.00532
2566.97446,0.00494
2564.91429,0.00451
2562.85411,0.00443
2560.79394,0.00453
2558.73377,0.00416
2556.67360,0.00344
2554.61342,0.00327
2552.55325,0.00395
2550.49308,0.00473
2548.43291,0.00497
2546.37274,0.00494
2544.31256,0.00487
2542.25239,0.00468
2540.19222,0.00466
2538.13205,0.00469
2536.07188,0.00478
2534.01170,0.00531
2531.95153,0.00584
2529.89136,0.00570
2527.83119,0.00505
2525.77102,0.00475
2523.71084,0.00495
2521.65067,0.00492
2519.59050,0.00473
2517.53033,0.00484
2515.47015,0.00529
2513.40998,0.00560
2511.34981,0.00526
2509.28964,0.00490
2507.22947,0.00527
2505.16929,0.00597
2503.10912,0.00622
2501.04895,0.00593
2498.98878,0.00557
2496.92861,0.00512
2494.86843,0.00469
2492.80826,0.00489
2490.74809,0.00506
2488.68792,0.00461
2486.62775,0.00468
2484.56757,0.00504
2482.50740,0.00461
2480.44723,0.00450
2478.38706,0.00527
2476.32688,0.00563
2474.26671,0.00535
2472.20654,0.00522
2470.14637,0.00529
2468.08620,0.00545
2466.02602,0.00553
2463.96585,0.00496
2461.90568,0.00447
2459.84551,0.00508
2457.78534,0.00592
2455.72516,0.00587
2453.66499,0.00535
2451.60482,0.00517
2449.54465,0.00532
2447.48447,0.00546
2445.42430,0.00562
2443.36413,0.00582
2441.30396,0.00568
2439.24379,0.00510
2437.18361,0.00463
2435.12344,0.00460
2433.06327,0.00495
2431.00310,0.00519
2428.94293,0.00504
2426.88275,0.00495
2424.82258,0.00506
2422.76241,0.00520
2420.70224,0.00561
2418.64207,0.00607
2416.58189,0.00598
2414.52172,0.00544
2412.46155,0.00509
2410.40138,0.00519
2408.34120,0.00552
2406.28103,0.00547
2404.22086,0.00480
2402.16069,0.00449
2400.10052,0.00513
2398.04034,0.00538
2395.98017,0.00484
2393.92000,0.00452
2391.85983,0.00506
2389.79966,0.00551
2387.73948,0.00518
2385.67931,0.00476
2383.61914,0.00495
2381.55897,0.00547
2379.49880,0.00598
2377.43862,0.00631
2375.37845,0.00673
2373.31828,0.00740
2371.25811,0.00780
2369.19793,0.00723
2367.13776,0.00516
2365.07759,0.00273
2363.01742,0.00177
2360.95725,0.00145
2358.89707,0.00308
2356.83690,0.00531
2354.77673,0.00627
2352.71656,0.00611
2350.65639,0.00410
2348.59621,0.00321
2346.53604,0.00594
2344.47587,0.00670
2342.41570,0.00590
2340.35552,0.00517
2338.29535,0.00423
2336.23518,0.00428
2334.17501,0.00557
2332.11484,0.00662
2330.05466,0.00613
2327.99449,0.00569
2325.93432,0.00579
2323.87415,0.00638
2321.81398,0.00677
2319.75380,0.00659
2317.69363,0.00562
2315.63346,0.00557
2313.57329,0.00629
2311.51312,0.00648
2309.45294,0.00586
2307.39277,0.00502
2305.33260,0.00445
2303.27243,0.00422
2301.21225,0.00466
2299.15208,0.00539
2297.09191,0.00579
2295.03174,0.00595
2292.97157,0.00607
2290.91139,0.00599
2288.85122,0.00564
2286.79105,0.00540
2284.73088,0.00545
2282.67071,0.00566
2280.61053,0.00582
2278.55036,0.00590
2276.49019,0.00624
2274.43002,0.00671
2272.36984,0.00679
2270.30967,0.00625
2268.24950,0.00550
2266.18933,0.00496
2264.12916,0.00477
2262.06898,0.00517
2260.00881,0.00576
2257.94864,0.00560
2255.88847,0.00483
2253.82830,0.00428
2251.76812,0.00423
2249.70795,0.00479
2247.64778,0.00576
2245.58761,0.00604
2243.52744,0.00525
2241.46726,0.00435
2239.40709,0.00412
2237.34692,0.00416
2235.28675,0.00424
2233.22657,0.00430
2231.16640,0.00397
2229.10623,0.00404
2227.04606,0.00483
2224.98589,0.00503
2222.92571,0.00442
2220.86554,0.00446
2218.80537,0.00578
2216.74520,0.00716
2214.68503,0.00731
2212.62485,0.00654
2210.56468,0.00564
2208.50451,0.00511
2206.44434,0.00557
2204.38417,0.00639
2202.32399,0.00614
2200.26382,0.00526
2198.20365,0.00526
2196.14348,0.00521
2194.08330,0.00420
2192.02313,0.00365
2189.96296,0.00311
2187.90279,0.00239
2185.84262,0.00255
2183.78244,0.00262
2181.72227,0.00314
2179.66210,0.00419
2177.60193,0.00436
2175.54176,0.00505
2173.48158,0.00655
2171.42141,0.00685
2169.36124,0.00573
2167.30107,0.00455
2165.24089,0.00439
2163.18072,0.00535
2161.12055,0.00621
2159.06038,0.00479
2157.00021,0.00213
2154.94003,0.00119
2152.87986,0.00175
2150.81969,0.00269
2148.75952,0.00325
2146.69935,0.00204
2144.63917,0.00000
2142.57900,0.00043
2140.51883,0.00300
2138.45866,0.00465
2136.39849,0.00501
2134.33831,0.00481
2132.27814,0.00435
2130.21797,0.00448
2128.15780,0.00451
2126.09762,0.00353
2124.03745,0.00315
2121.97728,0.00404
2119.91711,0.00472
2117.85694,0.00465
2115.79676,0.00379
2113.73659,0.00282
2111.67642,0.00278
2109.61625,0.00339
2107.55608,0.00413
2105.49590,0.00466
2103.43573,0.00467
2101.37556,0.00444
2099.31539,0.00443
2097.25521,0.00445
2095.19504,0.00443
2093.13487,0.00425
2091.07470,0.00373
2089.01453,0.00366
2086.95435,0.00410
2084.89418,0.00413
2082.83401,0.00377
2080.77384,0.00358
2078.71367,0.00406
2076.65349,0.00459
2074.59332,0.00409
2072.53315,0.00343
2070.47298,0.00402
2068.41281,0.00545
2066.35263,0.00664
2064.29246,0.00667
2062.23229,0.00557
2060.17212,0.00466
2058.11194,0.00431
2056.05177,0.00417
2053.99160,0.00408
2051.93143,0.00433
2049.87126,0.00494
2047.81108,0.00528
2045.75091,0.00521
2043.69074,0.00414
2041.63057,0.00213
2039.57040,0.00166
2037.51022,0.00302
2035.45005,0.00340
2033.38988,0.00227
2031.32971,0.00119
2029.26954,0.00081
2027.20936,0.00113
2025.14919,0.00199
2023.08902,0.00312
2021.02885,0.00405
2018.96867,0.00416
2016.90850,0.00345
2014.84833,0.00282
2012.78816,0.00286
2010.72799,0.00313
2008.66781,0.00285
2006.60764,0.00243
2004.54747,0.00249
2002.48730,0.00300
2000.42713,0.00356
1998.36695,0.00376
1996.30678,0.00374
1994.24661,0.00315
1992.18644,0.00249
1990.12626,0.00320
1988.06609,0.00477
1986.00592,0.00556
1983.94575,0.00560
1981.88558,0.00554
1979.82540,0.00396
1977.76523,0.00163
1975.70506,0.00134
1973.64489,0.00227
1971.58472,0.00263
1969.52454,0.00200
1967.46437,0.00072
1965.40420,0.00000
1963.34403,0.00061
1961.28386,0.00214
1959.22368,0.00294
1957.16351,0.00216
1955.10334,0.00146
1953.04317,0.00212
1950.98299,0.00248
1948.92282,0.00160
1946.86265,0.00082
1944.80248,0.00088
1942.74231,0.00145
1940.68213,0.00183
1938.62196,0.00187
1936.56179,0.00196
1934.50162,0.00207
1932.44145,0.00210
1930.38127,0.00199
1928.32110,0.00164
1926.26093,0.00157
1924.20076,0.00218
1922.14059,0.00281
1920.08041,0.00268
1918.02024,0.00222
1915.96007,0.00251
1913.89990,0.00344
1911.83972,0.00381
1909.77955,0.00324
1907.71938,0.00255
1905.65921,0.00220
1903.59904,0.00206
1901.53886,0.00221
1899.47869,0.00232
1897.41852,0.00208
1895.35835,0.00186
1893.29818,0.00173
1891.23800,0.00170
1889.17783,0.00200
1887.11766,0.00232
1885.05749,0.00240
1882.99731,0.00263
1880.93714,0.00303
1878.87697,0.00322
1876.81680,0.00304
1874.75663,0.00253
1872.69645,0.00191
1870.63628,0.00154
1868.57611,0.00157
1866.51594,0.00190
1864.45577,0.00230
1862.39559,0.00249
1860.33542,0.00237
1858.27525,0.00191
1856.21508,0.00136
1854.15491,0.00118
1852.09473,0.00135
1850.03456,0.00141
1847.97439,0.00126
1845.91422,0.00121
1843.85404,0.00133
1841.79387,0.00150
1839.73370,0.00188
1837.67353,0.00237
1835.61336,0.00248
1833.55318,0.00205
1831.49301,0.00154
1829.43284,0.00141
1827.37267,0.00166
1825.31250,0.00194
1823.25232,0.00211
1821.19215,0.00222
1819.13198,0.00213
1817.07181,0.00178
1815.01163,0.00146
1812.95146,0.00142
1810.89129,0.00152
1808.83112,0.00162
1806.77095,0.00176
1804.71077,0.00206
1802.65060,0.00230
1800.59043,0.00209
1798.53026,0.00166
1796.47009,0.00162
1794.40991,0.00185
1792.34974,0.00201
1790.28957,0.00207
1788.22940,0.00193
1786.16923,0.00163
1784.10905,0.00154
1782.04888,0.00185
1779.98871,0.00215
1777.92854,0.00216
1775.86836,0.00194
1773.80819,0.00165
1771.74802,0.00153
1769.68785,0.00181
1767.62768,0.00216
1765.56750,0.00228
1763.50733,0.00247
1761.44716,0.00294
1759.38699,0.00326
1757.32682,0.00311
1755.26664,0.00281
1753.20647,0.00263
1751.14630,0.00268
1749.08613,0.00298
1747.02596,0.00339
1744.96578,0.00357
1742.90561,0.00348
1740.84544,0.00349
1738.78527,0.00373
1736.72509,0.00392
1734.66492,0.00390
1732.60475,0.00376
1730.54458,0.00392
1728.48441,0.00426
1726.42423,0.00447
1724.36406,0.00454
1722.30389,0.00456
1720.24372,0.00456
1718.18355,0.00464
1716.12337,0.00487
1714.06320,0.00511
1712.00303,0.00521
1709.94286,0.00523
1707.88268,0.00524
1705.82251,0.00526
1703.76234,0.00550
1701.70217,0.00618
1699.64200,0.00715
1697.58182,0.00797
1695.52165,0.00841
1693.46148,0.00865
1691.40131,0.00901
1689.34114,0.00956
1687.28096,0.01020
1685.22079,0.01098
1683.16062,0.01180
1681.10045,0.01239
1679.04028,0.01283
1676.98010,0.01329
1674.91993,0.01386
1672.85976,0.01464
1670.79959,0.01560
1668.73941,0.01658
1666.67924,0.01740
1664.61907,0.01808
1662.55890,0.01862
1660.49873,0.01905
1658.43855,0.01951
1656.37838,0.02002
1654.31821,0.02018
1652.25804,0.01970
1650.19787,0.01934
1648.13769,0.01947
1646.07752,0.01969
1644.01735,0.01973
1641.95718,0.01978
1639.89701,0.01976
1637.83683,0.01937
1635.77666,0.01872
1633.71649,0.01843
1631.65632,0.01846
1629.59614,0.01822
1627.53597,0.01760
1625.47580,0.01690
1623.41563,0.01626
1621.35546,0.01572
1619.29528,0.01541
1617.23511,0.01517
1615.17494,0.01473
1613.11477,0.01410
1611.05460,0.01336
1608.99442,0.01275
1606.93425,0.01243
1604.87408,0.01217
1602.81391,0.01178
1600.75373,0.01129
1598.69356,0.01084
1596.63339,0.01056
1594.57322,0.01050
1592.51305,0.01043
1590.45287,0.01014
1588.39270,0.00972
1586.33253,0.00939
1584.27236,0.00914
1582.21219,0.00891
1580.15201,0.00881
1578.09184,0.00878
1576.03167,0.00864
1573.97150,0.00850
1571.91133,0.00840
1569.85115,0.00834
1567.79098,0.00848
1565.73081,0.00870
1563.67064,0.00879
1561.61046,0.00869
1559.55029,0.00851
1557.49012,0.00851
1555.42995,0.00864
1553.36978,0.00859
1551.30960,0.00840
1549.24943,0.00829
1547.18926,0.00834
1545.12909,0.00850
1543.06892,0.00863
1541.00874,0.00857
1538.94857,0.00828
1536.88840,0.00779
1534.82823,0.00728
1532.76805,0.00697
1530.70788,0.00689
1528.64771,0.00679
1526.58754,0.00655
1524.52737,0.00629
1522.46719,0.00616
1520.40702,0.00606
1518.34685,0.00570
1516.28668,0.00512
1514.22651,0.00474
1512.16633,0.00486
1510.10616,0.00527
1508.04599,0.00531
1505.98582,0.00455
1503.92565,0.00403
1501.86547,0.00408
1499.80530,0.00414
1497.74513,0.00391
1495.68496,0.00371
1493.62478,0.00381
1491.56461,0.00400
1489.50444,0.00398
1487.44427,0.00371
1485.38410,0.00352
1483.32392,0.00355
1481.26375,0.00356
1479.20358,0.00349
1477.14341,0.00347
1475.08324,0.00369
1473.02306,0.00420
1470.96289,0.00466
1468.90272,0.00478
1466.84255,0.00465
1464.78238,0.00438
1462.72220,0.00423
1460.66203,0.00437
1458.60186,0.00455
1456.54169,0.00446
1454.48151,0.00433
1452.42134,0.00438
1450.36117,0.00455
1448.30100,0.00470
1446.24083,0.00467
1444.18065,0.00447
1442.12048,0.00429
1440.06031,0.00424
1438.00014,0.00421
1435.93997,0.00402
1433.87979,0.00377
1431.81962,0.00359
1429.75945,0.00349
1427.69928,0.00347
1425.63910,0.00353
1423.57893,0.00379
1421.51876,0.00417
1419.45859,0.00431
1417.39842,0.00424
1415.33824,0.00425
1413.27807,0.00433
1411.21790,0.00439
1409.15773,0.00436
1407.09756,0.00421
1405.03738,0.00406
1402.97721,0.00405
1400.91704,0.00404
1398.85687,0.00382
1396.79670,0.00355
1394.73652,0.00347
1392.67635,0.00342
1390.61618,0.00333
1388.55601,0.00331
1386.49583,0.00330
1384.43566,0.00314
1382.37549,0.00283
1380.31532,0.00254
1378.25515,0.00258
1376.19497,0.00291
1374.13480,0.00313
1372.07463,0.00304
1370.01446,0.00289
1367.95429,0.00287
1365.89411,0.00292
1363.83394,0.00289
1361.77377,0.00263
1359.71360,0.00228
1357.65343,0.00205
1355.59325,0.00192
1353.53308,0.00184
1351.47291,0.00187
1349.41274,0.00202
1347.35256,0.00210
1345.29239,0.00199
1343.23222,0.00182
1341.17205,0.00180
1339.11188,0.00195
1337.05170,0.00220
1334.99153,0.00230
1332.93136,0.00219
1330.87119,0.00210
1328.81102,0.00219
1326.75084,0.00229
1324.69067,0.00224
1322.63050,0.00219
1320.57033,0.00224
1318.51015,0.00221
1316.44998,0.00206
1314.38981,0.00202
1312.32964,0.00215
1310.26947,0.00228
1308.20929,0.00234
1306.14912,0.00244
1304.08895,0.00253
1302.02878,0.00245
1299.96861,0.00237
1297.90843,0.00243
1295.84826,0.00261
1293.78809,0.00290
1291.72792,0.00316
1289.66775,0.00331
1287.60757,0.00337
1285.54740,0.00327
1283.48723,0.00302
1281.42706,0.00276
1279.36688,0.00260
1277.30671,0.00259
1275.24654,0.00272
1273.18637,0.00292
1271.12620,0.00309
1269.06602,0.00307
1267.00585,0.00298
1264.94568,0.00297
1262.88551,0.00300
1260.82534,0.00306
1258.76516,0.00314
1256.70499,0.00328
1254.64482,0.00348
1252.58465,0.00359
1250.52447,0.00352
1248.46430,0.00323
1246.40413,0.00286
1244.34396,0.00265
1242.28379,0.00259
1240.22361,0.00266
1238.16344,0.00278
1236.10327,0.00277
1234.04310,0.00271
1231.98293,0.00270
1229.92275,0.00262
1227.86258,0.00245
1225.80241,0.00228
1223.74224,0.00223
1221.68207,0.00219
1219.62189,0.00205
1217.56172,0.00191
1215.50155,0.00176
1213.44138,0.00157
1211.38120,0.00144
1209.32103,0.00123
1207.26086,0.00087
1205.20069,0.00063
1203.14052,0.00044
1201.08034,0.00023
1199.02017,0.00017
1196.96000,0.00013
1194.89983,0.00000
1192.83966,0.00008
1190.77948,0.00022
1188.71931,0.00008
1186.65914,0.00005
1184.59897,0.00035
1182.53880,0.00062
1180.47862,0.00063
1178.41845,0.00053
1176.35828,0.00052
1174.29811,0.00063
1172.23793,0.00071
1170.17776,0.00084
1168.11759,0.00115
1166.05742,0.00150
1163.99725,0.00185
1161.93707,0.00219
1159.87690,0.00244
1157.81673,0.00265
1155.75656,0.00282
1153.69639,0.00284
1151.63621,0.00310
1149.57604,0.00388
1147.51587,0.00451
1145.45570,0.00465
1143.39552,0.00481
1141.33535,0.00521
1139.27518,0.00562
1137.21501,0.00606
1135.15484,0.00670
1133.09466,0.00753
1131.03449,0.00833
1128.97432,0.00917
1126.91415,0.01013
1124.85398,0.01085
1122.79380,0.01126
1120.73363,0.01175
1118.67346,0.01248
1116.61329,0.01347
1114.55312,0.01450
1112.49294,0.01543
1110.43277,0.01663
1108.37260,0.01810
1106.31243,0.01947
1104.25225,0.02065
1102.19208,0.02141
1100.13191,0.02198
1098.07174,0.02288
1096.01157,0.02385
1093.95139,0.02468
1091.89122,0.02543
1089.83105,0.02591
1087.77088,0.02631
1085.71071,0.02704
1083.65053,0.02780
1081.59036,0.02810
1079.53019,0.02813
1077.47002,0.02849
1075.40985,0.02908
1073.34967,0.02940
1071.28950,0.02942
1069.22933,0.02943
1067.16916,0.02948
1065.10898,0.02934
1063.04881,0.02910
1060.98864,0.02911
1058.92847,0.02896
1056.86830,0.02838
1054.80812,0.02765
1052.74795,0.02681
1050.68778,0.02593
1048.62761,0.02530
1046.56744,0.02463
1044.50726,0.02338
1042.44709,0.02190
1040.38692,0.02084
1038.32675,0.02014
1036.26657,0.01950
1034.20640,0.01877
1032.14623,0.01780
1030.08606,0.01681
1028.02589,0.01607
1025.96571,0.01531
1023.90554,0.01445
1021.84537,0.01381
1019.78520,0.01333
1017.72503,0.01296
1015.66485,0.01268
1013.60468,0.01238
1011.54451,0.01211
1009.48434,0.01209
1007.42417,0.01230
1005.36399,0.01258
1003.30382,0.01291
1001.24365,0.01324
999.18348,0.01370
997.12330,0.01457
995.06313,0.01561
993.00296,0.01650
990.94279,0.01712
988.88262,0.01733
986.82244,0.01730
984.76227,0.01737
982.70210,0.01748
980.64193,0.01747
978.58176,0.01723
976.52158,0.01669
974.46141,0.01588
972.40124,0.01507
970.34107,0.01436
968.28089,0.01357
966.22072,0.01252
964.16055,0.01131
962.10038,0.01018
960.04021,0.00917
957.98003,0.00832
955.91986,0.00773
953.85969,0.00723
951.79952,0.00649
949.73935,0.00562
947.67917,0.00489
945.61900,0.00417
943.55883,0.00356
941.49866,0.00333
939.43849,0.00328
937.37831,0.00329
935.31814,0.00322
933.25797,0.00260
931.19780,0.00174
929.13762,0.00136
927.07745,0.00136
925.01728,0.00126
922.95711,0.00104
920.89694,0.00081
918.83676,0.00048
916.77659,0.00004
914.71642,0.00000
912.65625,0.00054
910.59608,0.00089
908.53590,0.00069
906.47573,0.00056
904.41556,0.00066
902.35539,0.00040
900.29522,0.00000
898.23504,0.00006
896.17487,0.00023
894.11470,0.00042
892.05453,0.00079
889.99435,0.00104
887.93418,0.00134
885.87401,0.00195
883.81384,0.00240
881.75367,0.00235
879.69349,0.00226
877.63332,0.00267
875.57315,0.00313
873.51298,0.00316
871.45281,0.00365
869.39263,0.00471
867.33246,0.00507
865.27229,0.00459
863.21212,0.00425
861.15194,0.00459
859.09177,0.00532
857.03160,0.00579
854.97143,0.00599
852.91126,0.00583
850.85108,0.00514
848.79091,0.00498
846.73074,0.00533
844.67057,0.00488
842.61040,0.00407
840.55022,0.00390
838.49005,0.00399
836.42988,0.00416
834.36971,0.00427
832.30954,0.00380
830.24936,0.00308
828.18919,0.00297
826.12902,0.00342
824.06885,0.00360
822.00867,0.00325
819.94850,0.00290
817.88833,0.00251
815.82816,0.00227
813.76799,0.00254
811.70781,0.00241
809.64764,0.00176
807.58747,0.00178
805.52730,0.00215
803.46713,0.00214
801.40695,0.00219
799.34678,0.00227
797.28661,0.00201
795.22644,0.00182
793.16627,0.00183
791.10609,0.00173
789.04592,0.00182
786.98575,0.00211
784.92558,0.00226
782.86540,0.00223
780.80523,0.00219
778.74506,0.00222
776.68489,0.00219
774.62472,0.00207
772.56454,0.00185
770.50437,0.00162
768.44420,0.00190
766.38403,0.00251
764.32386,0.00257
762.26368,0.00208
760.20351,0.00163
758.14334,0.00150
756.08317,0.00185
754.02299,0.00236
751.96282,0.00208
749.90265,0.00080
747.84248,0.00025
745.78231,0.00195
743.72213,0.00412
741.66196,0.00411
739.60179,0.00253
737.54162,0.00187
735.48145,0.00250
733.42127,0.00279
731.36110,0.00221
729.30093,0.00227
727.24076,0.00308
725.18059,0.00306
723.12041,0.00231
721.06024,0.00215
719.00007,0.00212
716.93990,0.00249
714.87972,0.00295
712.81955,0.00264
710.75938,0.00190
708.69921,0.00175
706.63904,0.00258
704.57886,0.00349
702.51869,0.00366
700.45852,0.00328
698.39835,0.00287
696.33818,0.00283
694.27800,0.00299
692.21783,0.00295
690.15766,0.00297
688.09749,0.00338
686.03731,0.00359
683.97714,0.00264
681.91697,0.00105
679.85680,0.00053
677.79663,0.00162
675.73645,0.00325
673.67628,0.00338
671.61611,0.00215
669.55594,0.00498
667.49577,0.00681
665.43559,0.00061
663.37542,0.00000
661.31525,0.00064
659.25508,0.00078
657.19491,0.00167
655.13473,0.00304
653.07456,0.00378
651.01439,0.00377
648.95422,0.00285
646.89404,0.00097
644.83387,0.00064
642.77370,0.00236
640.71353,0.00388
638.65336,0.00467
636.59318,0.00514
634.53301,0.00495
632.47284,0.00461
630.41267,0.00542
628.35250,0.00708
626.29232,0.00741
624.23215,0.00540
622.17198,0.00325
620.11181,0.00250
618.05164,0.00341
615.99146,0.00514
613.93129,0.00483
611.87112,0.00353
609.81095,0.00528
607.75077,0.00863
605.69060,0.00911
603.63043,0.00497
601.57026,0.00001
599.51009,0.00000
