3996.73391,0.00055
3994.67373,0.00028
3992.61356,0.00049
3990.55339,0.00057
3988.49322,0.00023
3986.43305,0.00001
3984.37287,0.00000
3982.31270,0.00007
3980.25253,0.00030
3978.19236,0.00050
3976.13219,0.00047
3974.07201,0.00049
3972.01184,0.00070
3969.95167,0.00086
3967.89150,0.00082
3965.83133,0.00063
3963.77115,0.00057
3961.71098,0.00075
3959.65081,0.00081
3957.59064,0.00063
3955.53046,0.00052
3953.47029,0.00056
3951.41012,0.00064
3949.34995,0.00077
3947.28978,0.00088
3945.22960,0.00088
3943.16943,0.00077
3941.10926,0.00068
3939.04909,0.00073
3936.98892,0.00099
3934.92874,0.00134
3932.86857,0.00136
3930.80840,0.00085
3928.74823,0.00019
3926.68805,-0.00011
3924.62788,0.00013
3922.56771,0.00059
3920.50754,0.00083
3918.44737,0.00087
3916.38719,0.00091
3914.32702,0.00097
3912.26685,0.00104
3910.20668,0.00097
3908.14651,0.00064
3906.08633,0.00021
3904.02616,0.00000
3901.96599,0.00001
3899.90582,0.00012
3897.84565,0.00046
3895.78547,0.00076
3893.72530,0.00075
3891.66513,0.00081
3889.60496,0.00114
3887.54478,0.00114
3885.48461,0.00069
3883.42444,0.00037
3881.36427,0.00052
3879.30410,0.00096
3877.24392,0.00117
3875.18375,0.00103
3873.12358,0.00071
3871.06341,0.00045
3869.00324,0.00051
3866.94306,0.00057
3864.88289,0.00062
3862.82272,0.00100
3860.76255,0.00128
3858.70237,0.00101
3856.64220,0.00048
3854.58203,0.00044
3852.52186,0.00103
3850.46169,0.00115
3848.40151,0.00082
3846.34134,0.00060
3844.28117,0.00060
3842.22100,0.00068
3840.16083,0.00073
3838.10065,0.00082
3836.04048,0.00099
3833.98031,0.00118
3831.92014,0.00140
3829.85997,0.00149
3827.79979,0.00134
3825.73962,0.00103
3823.67945,0.00060
3821.61928,0.00033
3819.55910,0.00043
3817.49893,0.00060
3815.43876,0.00091
3813.37859,0.00153
3811.31842,0.00196
3809.25824,0.00176
3807.19807,0.00108
3805.13790,0.00037
3803.07773,0.00000
3801.01756,0.00027
3798.95738,0.00083
3796.89721,0.00128
3794.83704,0.00154
3792.77687,0.00156
3790.71670,0.00152
3788.65652,0.00148
3786.59635,0.00136
3784.53618,0.00121
3782.47601,0.00108
3780.41583,0.00101
3778.35566,0.00124
3776.29549,0.00172
3774.23532,0.00187
3772.17515,0.00135
3770.11497,0.00080
3768.05480,0.00093
3765.99463,0.00137
3763.93446,0.00139
3761.87429,0.00106
3759.81411,0.00096
3757.75394,0.00113
3755.69377,0.00090
3753.63360,0.00025
3751.57342,0.00000
3749.51325,0.00034
3747.45308,0.00045
3745.39291,0.00061
3743.33274,0.00112
3741.27256,0.00126
3739.21239,0.00086
3737.15222,0.00038
3735.09205,0.00032
3733.03188,0.00074
3730.97170,0.00111
3728.91153,0.00121
3726.85136,0.00135
3724.79119,0.00159
3722.73102,0.00155
3720.67084,0.00129
3718.61067,0.00105
3716.55050,0.00099
3714.49033,0.00108
3712.43015,0.00110
3710.36998,0.00121
3708.30981,0.00157
3706.24964,0.00184
3704.18947,0.00162
3702.12929,0.00134
3700.06912,0.00159
3698.00895,0.00220
3695.94878,0.00270
3693.88861,0.00269
3691.82843,0.00213
3689.76826,0.00166
3687.70809,0.00155
3685.64792,0.00143
3683.58775,0.00147
3681.52757,0.00157
3679.46740,0.00130
3677.40723,0.00088
3675.34706,0.00106
3673.28688,0.00154
3671.22671,0.00175
3669.16654,0.00203
3667.10637,0.00236
3665.04620,0.00236
3662.98602,0.00224
3660.92585,0.00222
3658.86568,0.00222
3656.80551,0.00245
3654.74534,0.00277
3652.68516,0.00261
3650.62499,0.00231
3648.56482,0.00282
3646.50465,0.00357
3644.44447,0.00363
3642.38430,0.00348
3640.32413,0.00357
3638.26396,0.00372
3636.20379,0.00399
3634.14361,0.00445
3632.08344,0.00463
3630.02327,0.00461
3627.96310,0.00522
3625.90293,0.00604
3623.84275,0.00625
3621.78258,0.00614
3619.72241,0.00612
3617.66224,0.00598
3615.60207,0.00563
3613.54189,0.00585
3611.48172,0.00662
3609.42155,0.00700
3607.36138,0.00699
3605.30120,0.00716
3603.24103,0.00757
3601.18086,0.00795
3599.12069,0.00820
3597.06052,0.00840
3595.00034,0.00855
3592.94017,0.00860
3590.88000,0.00864
3588.81983,0.00873
3586.75966,0.00904
3584.69948,0.00945
3582.63931,0.00964
3580.57914,0.00972
3578.51897,0.00992
3576.45879,0.01024
3574.39862,0.01057
3572.33845,0.01068
3570.27828,0.01037
3568.21811,0.00982
3566.15793,0.00978
3564.09776,0.01059
3562.03759,0.01155
3559.97742,0.01210
3557.91725,0.01236
3555.85707,0.01265
3553.79690,0.01284
3551.73673,0.01284
3549.67656,0.01283
3547.61639,0.01295
3545.55621,0.01326
3543.49604,0.01372
3541.43587,0.01412
3539.37570,0.01443
3537.31552,0.01456
3535.25535,0.01438
3533.19518,0.01422
3531.13501,0.01447
3529.07484,0.01506
3527.01466,0.01556
3524.95449,0.01577
3522.89432,0.01589
3520.83415,0.01597
3518.77398,0.01593
3516.71380,0.01605
3514.65363,0.01651
3512.59346,0.01691
3510.53329,0.01688
3508.47312,0.01664
3506.41294,0.01657
3504.35277,0.01662
3502.29260,0.01676
3500.23243,0.01720
3498.17225,0.01789
3496.11208,0.01838
3494.05191,0.01834
3491.99174,0.01815
3489.93157,0.01822
3487.87139,0.01847
3485.81122,0.01872
3483.75105,0.01896
3481.69088,0.01932
3479.63071,0.01980
3477.57053,0.02009
3475.51036,0.02020
3473.45019,0.02053
3471.39002,0.02096
3469.32984,0.02117
3467.26967,0.02117
3465.20950,0.02104
3463.14933,0.02108
3461.08916,0.02144
3459.02898,0.02165
3456.96881,0.02144
3454.90864,0.02123
3452.84847,0.02149
3450.78830,0.02195
3448.72812,0.02220
3446.66795,0.02231
3444.60778,0.02233
3442.54761,0.02221
3440.48744,0.02217
3438.42726,0.02231
3436.36709,0.02242
3434.30692,0.02243
3432.24675,0.02256
3430.18657,0.02299
3428.12640,0.02349
3426.06623,0.02382
3424.00606,0.02384
3421.94589,0.02370
3419.88571,0.02374
3417.82554,0.02395
3415.76537,0.02422
3413.70520,0.02447
3411.64503,0.02454
3409.58485,0.02456
3407.52468,0.02466
3405.46451,0.02468
3403.40434,0.02466
3401.34416,0.02466
3399.28399,0.02485
3397.22382,0.02516
3395.16365,0.02543
3393.10348,0.02543
3391.04330,0.02532
3388.98313,0.02533
3386.92296,0.02550
3384.86279,0.02582
3382.80262,0.02608
3380.74244,0.02599
3378.68227,0.02572
3376.62210,0.02564
3374.56193,0.02586
3372.50176,0.02613
3370.44158,0.02621
3368.38141,0.02620
3366.32124,0.02614
3364.26107,0.02616
3362.20089,0.02634
3360.14072,0.02652
3358.08055,0.02655
3356.02038,0.02651
3353.96021,0.02662
3351.90003,0.02668
3349.83986,0.02659
3347.77969,0.02651
3345.71952,0.02639
3343.65935,0.02637
3341.59917,0.02649
3339.53900,0.02655
3337.47883,0.02674
3335.41866,0.02712
3333.35849,0.02740
3331.29831,0.02750
3329.23814,0.02741
3327.17797,0.02721
3325.11780,0.02718
3323.05762,0.02720
3320.99745,0.02708
3318.93728,0.02697
3316.87711,0.02698
3314.81694,0.02725
3312.75676,0.02752
3310.69659,0.02749
3308.63642,0.02743
3306.57625,0.02739
3304.51608,0.02739
3302.45590,0.02760
3300.39573,0.02781
3298.33556,0.02773
3296.27539,0.02744
3294.21521,0.02714
3292.15504,0.02695
3290.09487,0.02684
3288.03470,0.02685
3285.97453,0.02736
3283.91435,0.02801
3281.85418,0.02803
3279.79401,0.02800
3277.73384,0.02851
3275.67367,0.02885
3273.61349,0.02857
3271.55332,0.02818
3269.49315,0.02806
3267.43298,0.02810
3265.37281,0.02805
3263.31263,0.02797
3261.25246,0.02816
3259.19229,0.02857
3257.13212,0.02880
3255.07194,0.02872
3253.01177,0.02856
3250.95160,0.02843
3248.89143,0.02833
3246.83126,0.02813
3244.77108,0.02779
3242.71091,0.02747
3240.65074,0.02727
3238.59057,0.02736
3236.53040,0.02772
3234.47022,0.02789
3232.41005,0.02771
3230.34988,0.02745
3228.28971,0.02730
3226.22954,0.02739
3224.16936,0.02762
3222.10919,0.02767
3220.04902,0.02756
3217.98885,0.02754
3215.92867,0.02750
3213.86850,0.02733
3211.80833,0.02728
3209.74816,0.02745
3207.68799,0.02761
3205.62781,0.02766
3203.56764,0.02768
3201.50747,0.02767
3199.44730,0.02744
3197.38713,0.02714
3195.32695,0.02720
3193.26678,0.02741
3191.20661,0.02739
3189.14644,0.02723
3187.08626,0.02720
3185.02609,0.02739
3182.96592,0.02734
3180.90575,0.02685
3178.84558,0.02638
3176.78540,0.02632
3174.72523,0.02659
3172.66506,0.02683
3170.60489,0.02677
3168.54472,0.02653
3166.48454,0.02638
3164.42437,0.02636
3162.36420,0.02639
3160.30403,0.02644
3158.24386,0.02638
3156.18368,0.02616
3154.12351,0.02607
3152.06334,0.02621
3150.00317,0.02614
3147.94299,0.02581
3145.88282,0.02564
3143.82265,0.02566
3141.76248,0.02566
3139.70231,0.02564
3137.64213,0.02565
3135.58196,0.02550
3133.52179,0.02523
3131.46162,0.02519
3129.40145,0.02528
3127.34127,0.02520
3125.28110,0.02510
3123.22093,0.02511
3121.16076,0.02503
3119.10058,0.02487
3117.04041,0.02483
3114.98024,0.02484
3112.92007,0.02482
3110.85990,0.02473
3108.79972,0.02454
3106.73955,0.02438
3104.67938,0.02426
3102.61921,0.02409
3100.55904,0.02395
3098.49886,0.02395
3096.43869,0.02394
3094.37852,0.02378
3092.31835,0.02363
3090.25818,0.02366
3088.19800,0.02387
3086.13783,0.02408
3084.07766,0.02398
3082.01749,0.02361
3079.95731,0.02337
3077.89714,0.02339
3075.83697,0.02342
3073.77680,0.02333
3071.71663,0.02314
3069.65645,0.02278
3067.59628,0.02246
3065.53611,0.02240
3063.47594,0.02244
3061.41577,0.02236
3059.35559,0.02216
3057.29542,0.02192
3055.23525,0.02163
3053.17508,0.02139
3051.11491,0.02133
3049.05473,0.02128
3046.99456,0.02114
3044.93439,0.02120
3042.87422,0.02143
3040.81404,0.02135
3038.75387,0.02107
3036.69370,0.02103
3034.63353,0.02110
3032.57336,0.02098
3030.51318,0.02087
3028.45301,0.02079
3026.39284,0.02059
3024.33267,0.02054
3022.27250,0.02068
3020.21232,0.02057
3018.15215,0.02022
3016.09198,0.02008
3014.03181,0.01998
3011.97163,0.01966
3009.91146,0.01942
3007.85129,0.01937
3005.79112,0.01933
3003.73095,0.01920
3001.67077,0.01909
2999.61060,0.01903
2997.55043,0.01902
2995.49026,0.01913
2993.43009,0.01932
2991.36991,0.01933
2989.30974,0.01909
2987.24957,0.01883
2985.18940,0.01871
2983.12923,0.01865
2981.06905,0.01859
2979.00888,0.01870
2976.94871,0.01888
2974.88854,0.01885
2972.82836,0.01876
2970.76819,0.01878
2968.70802,0.01887
2966.64785,0.01896
2964.58768,0.01899
2962.52750,0.01897
2960.46733,0.01892
2958.40716,0.01875
2956.34699,0.01851
2954.28682,0.01853
2952.22664,0.01883
2950.16647,0.01901
2948.10630,0.01902
2946.04613,0.01902
2943.98596,0.01902
2941.92578,0.01903
2939.86561,0.01897
2937.80544,0.01871
2935.74527,0.01837
2933.68509,0.01819
2931.62492,0.01824
2929.56475,0.01842
2927.50458,0.01856
2925.44441,0.01869
2923.38423,0.01890
2921.32406,0.01888
2919.26389,0.01854
2917.20372,0.01832
2915.14355,0.01824
2913.08337,0.01801
2911.02320,0.01773
2908.96303,0.01762
2906.90286,0.01763
2904.84268,0.01752
2902.78251,0.01725
2900.72234,0.01708
2898.66217,0.01710
2896.60200,0.01711
2894.54182,0.01703
2892.48165,0.01697
2890.42148,0.01694
2888.36131,0.01691
2886.30114,0.01689
2884.24096,0.01685
2882.18079,0.01669
2880.12062,0.01657
2878.06045,0.01650
2876.00028,0.01637
2873.94010,0.01627
2871.87993,0.01628
2869.81976,0.01624
2867.75959,0.01605
2865.69941,0.01588
2863.63924,0.01577
2861.57907,0.01553
2859.51890,0.01537
2857.45873,0.01544
2855.39855,0.01537
2853.33838,0.01522
2851.27821,0.01518
2849.21804,0.01496
2847.15787,0.01461
2845.09769,0.01440
2843.03752,0.01432
2840.97735,0.01421
2838.91718,0.01404
2836.85700,0.01389
2834.79683,0.01388
2832.73666,0.01386
2830.67649,0.01359
2828.61632,0.01332
2826.55614,0.01327
2824.49597,0.01326
2822.43580,0.01319
2820.37563,0.01312
2818.31546,0.01306
2816.25528,0.01293
2814.19511,0.01280
2812.13494,0.01269
2810.07477,0.01257
2808.01460,0.01257
2805.95442,0.01271
2803.89425,0.01277
2801.83408,0.01278
2799.77391,0.01283
2797.71373,0.01273
2795.65356,0.01246
2793.59339,0.01230
2791.53322,0.01224
2789.47305,0.01201
2787.41287,0.01167
2785.35270,0.01139
2783.29253,0.01129
2781.23236,0.01141
2779.17219,0.01151
2777.11201,0.01150
2775.05184,0.01144
2772.99167,0.01140
2770.93150,0.01142
2768.87133,0.01136
2766.81115,0.01110
2764.75098,0.01077
2762.69081,0.01062
2760.63064,0.01074
2758.57046,0.01099
2756.51029,0.01121
2754.45012,0.01133
2752.38995,0.01120
2750.32978,0.01090
2748.26960,0.01076
2746.20943,0.01084
2744.14926,0.01089
2742.08909,0.01070
2740.02892,0.01042
2737.96874,0.01036
2735.90857,0.01040
2733.84840,0.01030
2731.78823,0.01019
2729.72805,0.01008
2727.66788,0.00991
2725.60771,0.00971
2723.54754,0.00964
2721.48737,0.00977
2719.42719,0.00992
2717.36702,0.00999
2715.30685,0.00988
2713.24668,0.00967
2711.18651,0.00955
2709.12633,0.00957
2707.06616,0.00963
2705.00599,0.00953
2702.94582,0.00931
2700.88565,0.00927
2698.82547,0.00942
2696.76530,0.00945
2694.70513,0.00931
2692.64496,0.00912
2690.58478,0.00899
2688.52461,0.00892
2686.46444,0.00889
2684.40427,0.00896
2682.34410,0.00912
2680.28392,0.00922
2678.22375,0.00907
2676.16358,0.00876
2674.10341,0.00860
2672.04324,0.00860
2669.98306,0.00860
2667.92289,0.00868
2665.86272,0.00877
2663.80255,0.00871
2661.74238,0.00862
2659.68220,0.00855
2657.62203,0.00856
2655.56186,0.00862
2653.50169,0.00853
2651.44151,0.00843
2649.38134,0.00838
2647.32117,0.00823
2645.26100,0.00807
2643.20083,0.00802
2641.14065,0.00808
2639.08048,0.00825
2637.02031,0.00835
2634.96014,0.00810
2632.89997,0.00772
2630.83979,0.00758
2628.77962,0.00765
2626.71945,0.00765
2624.65928,0.00756
2622.59910,0.00756
2620.53893,0.00762
2618.47876,0.00765
2616.41859,0.00778
2614.35842,0.00794
2612.29824,0.00794
2610.23807,0.00775
2608.17790,0.00746
2606.11773,0.00727
2604.05756,0.00716
2601.99738,0.00706
2599.93721,0.00689
2597.87704,0.00673
2595.81687,0.00672
2593.75670,0.00680
2591.69652,0.00678
2589.63635,0.00674
2587.57618,0.00688
2585.51601,0.00699
2583.45583,0.00694
2581.39566,0.00684
2579.33549,0.00677
2577.27532,0.00686
2575.21515,0.00695
2573.15497,0.00696
2571.09480,0.00703
2569.03463,0.00696
2566.97446,0.00679
2564.91429,0.00689
2562.85411,0.00704
2560.79394,0.00700
2558.73377,0.00689
2556.67360,0.00666
2554.61342,0.00639
2552.55325,0.00635
2550.49308,0.00641
2548.43291,0.00633
2546.37274,0.00623
2544.31256,0.00622
2542.25239,0.00615
2540.19222,0.00602
2538.13205,0.00619
2536.07188,0.00656
2534.01170,0.00685
2531.95153,0.00694
2529.89136,0.00682
2527.83119,0.00664
2525.77102,0.00669
2523.71084,0.00688
2521.65067,0.00682
2519.59050,0.00650
2517.53033,0.00623
2515.47015,0.00621
2513.40998,0.00626
2511.34981,0.00620
2509.28964,0.00622
2507.22947,0.00637
2505.16929,0.00642
2503.10912,0.00640
2501.04895,0.00637
2498.98878,0.00624
2496.92861,0.00619
2494.86843,0.00642
2492.80826,0.00657
2490.74809,0.00650
2488.68792,0.00666
2486.62775,0.00683
2484.56757,0.00658
2482.50740,0.00621
2480.44723,0.00612
2478.38706,0.00643
2476.32688,0.00687
2474.26671,0.00693
2472.20654,0.00663
2470.14637,0.00646
2468.08620,0.00642
2466.02602,0.00635
2463.96585,0.00669
2461.90568,0.00730
2459.84551,0.00742
2457.78534,0.00733
2455.72516,0.00740
2453.66499,0.00731
2451.60482,0.00712
2449.54465,0.00700
2447.48447,0.00688
2445.42430,0.00680
2443.36413,0.00673
2441.30396,0.00674
2439.24379,0.00700
2437.18361,0.00708
2435.12344,0.00680
2433.06327,0.00669
2431.00310,0.00694
2428.94293,0.00696
2426.88275,0.00656
2424.82258,0.00642
2422.76241,0.00677
2420.70224,0.00709
2418.64207,0.00715
2416.58189,0.00712
2414.52172,0.00703
2412.46155,0.00700
2410.40138,0.00709
2408.34120,0.00709
2406.28103,0.00696
2404.22086,0.00690
2402.16069,0.00677
2400.10052,0.00648
2398.04034,0.00639
2395.98017,0.00661
2393.92000,0.00684
2391.85983,0.00689
2389.79966,0.00683
2387.73948,0.00681
2385.67931,0.00680
2383.61914,0.00667
2381.55897,0.00639
2379.49880,0.00607
2377.43862,0.00564
2375.37845,0.00499
2373.31828,0.00468
2371.25811,0.00502
2369.19793,0.00553
2367.13776,0.00624
2365.07759,0.00716
2363.01742,0.00725
2360.95725,0.00700
2358.89707,0.00607
2356.83690,0.00530
2354.77673,0.00570
2352.71656,0.00654
2350.65639,0.00715
2348.59621,0.00694
2346.53604,0.00546
2344.47587,0.00532
2342.41570,0.00598
2340.35552,0.00648
2338.29535,0.00640
2336.23518,0.00595
2334.17501,0.00599
2332.11484,0.00661
2330.05466,0.00741
2327.99449,0.00777
2325.93432,0.00765
2323.87415,0.00689
2321.81398,0.00657
2319.75380,0.00683
2317.69363,0.00730
2315.63346,0.00746
2313.57329,0.00763
2311.51312,0.00777
2309.45294,0.00758
2307.39277,0.00740
2305.33260,0.00741
2303.27243,0.00731
2301.21225,0.00704
2299.15208,0.00703
2297.09191,0.00720
2295.03174,0.00717
2292.97157,0.00702
2290.91139,0.00698
2288.85122,0.00708
2286.79105,0.00704
2284.73088,0.00659
2282.67071,0.00592
2280.61053,0.00562
2278.55036,0.00574
2276.49019,0.00608
2274.43002,0.00652
2272.36984,0.00658
2270.30967,0.00585
2268.24950,0.00487
2266.18933,0.00459
2264.12916,0.00526
2262.06898,0.00604
2260.00881,0.00612
2257.94864,0.00603
2255.88847,0.00644
2253.82830,0.00666
2251.76812,0.00617
2249.70795,0.00585
2247.64778,0.00642
2245.58761,0.00700
2243.52744,0.00688
2241.46726,0.00623
2239.40709,0.00567
2237.34692,0.00580
2235.28675,0.00623
2233.22657,0.00635
2231.16640,0.00647
2229.10623,0.00626
2227.04606,0.00583
2224.98589,0.00593
2222.92571,0.00632
2220.86554,0.00648
2218.80537,0.00581
2216.74520,0.00451
2214.68503,0.00408
2212.62485,0.00440
2210.56468,0.00402
2208.50451,0.00333
2206.44434,0.00350
2204.38417,0.00410
2202.32399,0.00480
2200.26382,0.00612
2198.20365,0.00687
2196.14348,0.00579
2194.08330,0.00419
2192.02313,0.00353
2189.96296,0.00339
2187.90279,0.00356
2185.84262,0.00459
2183.78244,0.00555
2181.72227,0.00572
2179.66210,0.00525
2177.60193,0.00442
2175.54176,0.00459
2173.48158,0.00536
2171.42141,0.00580
2169.36124,0.00611
2167.30107,0.00556
2165.24089,0.00473
2163.18072,0.00430
2161.12055,0.00270
2159.06038,0.00067
2157.00021,0.00000
2154.94003,0.00019
2152.87986,0.00089
2150.81969,0.00154
2148.75952,0.00193
2146.69935,0.00283
2144.63917,0.00393
2142.57900,0.00435
2140.51883,0.00393
2138.45866,0.00292
2136.39849,0.00257
2134.33831,0.00335
2132.27814,0.00395
2130.21797,0.00385
2128.15780,0.00346
2126.09762,0.00355
2124.03745,0.00418
2121.97728,0.00434
2119.91711,0.00412
2117.85694,0.00440
2115.79676,0.00494
2113.73659,0.00507
2111.67642,0.00483
2109.61625,0.00468
2107.55608,0.00457
2105.49590,0.00376
2103.43573,0.00261
2101.37556,0.00250
2099.31539,0.00323
2097.25521,0.00351
2095.19504,0.00332
2093.13487,0.00359
2091.07470,0.00424
2089.01453,0.00476
2086.95435,0.00475
2084.89418,0.00453
2082.83401,0.00456
2080.77384,0.00450
2078.71367,0.00417
2076.65349,0.00373
2074.59332,0.00339
2072.53315,0.00361
2070.47298,0.00416
2068.41281,0.00417
2066.35263,0.00320
2064.29246,0.00229
2062.23229,0.00241
2060.17212,0.00282
2058.11194,0.00335
2056.05177,0.00413
2053.99160,0.00410
2051.93143,0.00319
2049.87126,0.00275
2047.81108,0.00313
2045.75091,0.00371
2043.69074,0.00428
2041.63057,0.00437
2039.57040,0.00426
2037.51022,0.00405
2035.45005,0.00303
2033.38988,0.00274
2031.32971,0.00361
2029.26954,0.00320
2027.20936,0.00184
2025.14919,0.00203
2023.08902,0.00335
2021.02885,0.00369
2018.96867,0.00293
2016.90850,0.00241
2014.84833,0.00248
2012.78816,0.00301
2010.72799,0.00356
2008.66781,0.00297
2006.60764,0.00162
2004.54747,0.00129
2002.48730,0.00251
2000.42713,0.00393
1998.36695,0.00423
1996.30678,0.00379
1994.24661,0.00352
1992.18644,0.00337
1990.12626,0.00271
1988.06609,0.00163
1986.00592,0.00119
1983.94575,0.00215
1981.88558,0.00306
1979.82540,0.00203
1977.76523,0.00030
1975.70506,0.00000
1973.64489,0.00092
1971.58472,0.00161
1969.52454,0.00171
1967.46437,0.00182
1965.40420,0.00195
1963.34403,0.00212
1961.28386,0.00196
1959.22368,0.00136
1957.16351,0.00141
1955.10334,0.00201
1953.04317,0.00183
1950.98299,0.00134
1948.92282,0.00223
1946.86265,0.00370
1944.80248,0.00353
1942.74231,0.00198
1940.68213,0.00129
1938.62196,0.00171
1936.56179,0.00166
1934.50162,0.00092
1932.44145,0.00065
1930.38127,0.00128
1928.32110,0.00190
1926.26093,0.00170
1924.20076,0.00133
1922.14059,0.00152
1920.08041,0.00156
1918.02024,0.00121
1915.96007,0.00137
1913.89990,0.00202
1911.83972,0.00227
1909.77955,0.00198
1907.71938,0.00184
1905.65921,0.00198
1903.59904,0.00213
1901.53886,0.00227
1899.47869,0.00237
1897.41852,0.00229
1895.35835,0.00193
1893.29818,0.00148
1891.23800,0.00119
1889.17783,0.00114
1887.11766,0.00138
1885.05749,0.00165
1882.99731,0.00174
1880.93714,0.00191
1878.87697,0.00229
1876.81680,0.00265
1874.75663,0.00279
1872.69645,0.00264
1870.63628,0.00220
1868.57611,0.00169
1866.51594,0.00142
1864.45577,0.00138
1862.39559,0.00148
1860.33542,0.00175
1858.27525,0.00206
1856.21508,0.00222
1854.15491,0.00221
1852.09473,0.00214
1850.03456,0.00202
1847.97439,0.00185
1845.91422,0.00181
1843.85404,0.00196
1841.79387,0.00202
1839.73370,0.00187
1837.67353,0.00163
1835.61336,0.00149
1833.55318,0.00130
1831.49301,0.00096
1829.43284,0.00096
1827.37267,0.00148
1825.31250,0.00189
1823.25232,0.00194
1821.19215,0.00186
1819.13198,0.00189
1817.07181,0.00200
1815.01163,0.00192
1812.95146,0.00160
1810.89129,0.00135
1808.83112,0.00140
1806.77095,0.00154
1804.71077,0.00151
1802.65060,0.00147
1800.59043,0.00160
1798.53026,0.00169
1796.47009,0.00155
1794.40991,0.00124
1792.34974,0.00113
1790.28957,0.00145
1788.22940,0.00195
1786.16923,0.00229
1784.10905,0.00227
1782.04888,0.00194
1779.98871,0.00163
1777.92854,0.00154
1775.86836,0.00147
1773.80819,0.00128
1771.74802,0.00118
1769.68785,0.00146
1767.62768,0.00186
1765.56750,0.00203
1763.50733,0.00203
1761.44716,0.00214
1759.38699,0.00250
1757.32682,0.00295
1755.26664,0.00314
1753.20647,0.00290
1751.14630,0.00260
1749.08613,0.00271
1747.02596,0.00300
1744.96578,0.00316
1742.90561,0.00326
1740.84544,0.00336
1738.78527,0.00336
1736.72509,0.00318
1734.66492,0.00291
1732.60475,0.00294
1730.54458,0.00344
1728.48441,0.00399
1726.42423,0.00424
1724.36406,0.00424
1722.30389,0.00408
1720.24372,0.00365
1718.18355,0.00317
1716.12337,0.00331
1714.06320,0.00402
1712.00303,0.00464
1709.94286,0.00493
1707.88268,0.00500
1705.82251,0.00502
1703.76234,0.00502
1701.70217,0.00496
1699.64200,0.00498
1697.58182,0.00538
1695.52165,0.00638
1693.46148,0.00756
1691.40131,0.00834
1689.34114,0.00858
1687.28096,0.00834
1685.22079,0.00807
1683.16062,0.00863
1681.10045,0.00979
1679.04028,0.01074
1676.98010,0.01143
1674.91993,0.01212
1672.85976,0.01274
1670.79959,0.01327
1668.73941,0.01413
1666.67924,0.01509
1664.61907,0.01563
1662.55890,0.01612
1660.49873,0.01697
1658.43855,0.01768
1656.37838,0.01778
1654.31821,0.01761
1652.25804,0.01793
1650.19787,0.01817
1648.13769,0.01778
1646.07752,0.01760
1644.01735,0.01809
1641.95718,0.01850
1639.89701,0.01845
1637.83683,0.01808
1635.77666,0.01766
1633.71649,0.01745
1631.65632,0.01732
1629.59614,0.01701
1627.53597,0.01651
1625.47580,0.01597
1623.41563,0.01546
1621.35546,0.01503
1619.29528,0.01460
1617.23511,0.01414
1615.17494,0.01387
1613.11477,0.01376
1611.05460,0.01355
1608.99442,0.01326
1606.93425,0.01304
1604.87408,0.01283
1602.81391,0.01253
1600.75373,0.01221
1598.69356,0.01198
1596.63339,0.01179
1594.57322,0.01154
1592.51305,0.01119
1590.45287,0.01086
1588.39270,0.01065
1586.33253,0.01051
1584.27236,0.01035
1582.21219,0.01018
1580.15201,0.00989
1578.09184,0.00941
1576.03167,0.00905
1573.97150,0.00905
1571.91133,0.00901
1569.85115,0.00882
1567.79098,0.00881
1565.73081,0.00886
1563.67064,0.00861
1561.61046,0.00782
1559.55029,0.00693
1557.49012,0.00716
1555.42995,0.00804
1553.36978,0.00859
1551.30960,0.00872
1549.24943,0.00860
1547.18926,0.00824
1545.12909,0.00756
1543.06892,0.00674
1541.00874,0.00632
1538.94857,0.00661
1536.88840,0.00698
1534.82823,0.00701
1532.76805,0.00688
1530.70788,0.00675
1528.64771,0.00649
1526.58754,0.00618
1524.52737,0.00590
1522.46719,0.00548
1520.40702,0.00508
1518.34685,0.00490
1516.28668,0.00494
1514.22651,0.00502
1512.16633,0.00479
1510.10616,0.00425
1508.04599,0.00391
1505.98582,0.00426
1503.92565,0.00474
1501.86547,0.00479
1499.80530,0.00446
1497.74513,0.00408
1495.68496,0.00394
1493.62478,0.00382
1491.56461,0.00342
1489.50444,0.00304
1487.44427,0.00318
1485.38410,0.00354
1483.32392,0.00370
1481.26375,0.00367
1479.20358,0.00356
1477.14341,0.00326
1475.08324,0.00291
1473.02306,0.00308
1470.96289,0.00383
1468.90272,0.00440
1466.84255,0.00455
1464.78238,0.00469
1462.72220,0.00485
1460.66203,0.00456
1458.60186,0.00400
1456.54169,0.00415
1454.48151,0.00484
1452.42134,0.00518
1450.36117,0.00515
1448.30100,0.00510
1446.24083,0.00518
1444.18065,0.00531
1442.12048,0.00539
1440.06031,0.00533
1438.00014,0.00512
1435.93997,0.00491
1433.87979,0.00484
1431.81962,0.00484
1429.75945,0.00489
1427.69928,0.00503
1425.63910,0.00516
1423.57893,0.00520
1421.51876,0.00511
1419.45859,0.00497
1417.39842,0.00509
1415.33824,0.00540
1413.27807,0.00552
1411.21790,0.00537
1409.15773,0.00524
1407.09756,0.00527
1405.03738,0.00541
1402.97721,0.00542
1400.91704,0.00513
1398.85687,0.00466
1396.79670,0.00423
1394.73652,0.00407
1392.67635,0.00424
1390.61618,0.00442
1388.55601,0.00441
1386.49583,0.00438
1384.43566,0.00447
1382.37549,0.00458
1380.31532,0.00460
1378.25515,0.00444
1376.19497,0.00414
1374.13480,0.00397
1372.07463,0.00403
1370.01446,0.00410
1367.95429,0.00403
1365.89411,0.00384
1363.83394,0.00352
1361.77377,0.00333
1359.71360,0.00348
1357.65343,0.00364
1355.59325,0.00360
1353.53308,0.00346
1351.47291,0.00333
1349.41274,0.00323
1347.35256,0.00311
1345.29239,0.00291
1343.23222,0.00265
1341.17205,0.00241
1339.11188,0.00236
1337.05170,0.00260
1334.99153,0.00290
1332.93136,0.00296
1330.87119,0.00287
1328.81102,0.00289
1326.75084,0.00309
1324.69067,0.00325
1322.63050,0.00314
1320.57033,0.00285
1318.51015,0.00273
1316.44998,0.00282
1314.38981,0.00290
1312.32964,0.00299
1310.26947,0.00312
1308.20929,0.00316
1306.14912,0.00307
1304.08895,0.00300
1302.02878,0.00312
1299.96861,0.00338
1297.90843,0.00366
1295.84826,0.00398
1293.78809,0.00431
1291.72792,0.00445
1289.66775,0.00430
1287.60757,0.00411
1285.54740,0.00411
1283.48723,0.00421
1281.42706,0.00430
1279.36688,0.00431
1277.30671,0.00419
1275.24654,0.00409
1273.18637,0.00416
1271.12620,0.00425
1269.06602,0.00417
1267.00585,0.00395
1264.94568,0.00378
1262.88551,0.00379
1260.82534,0.00396
1258.76516,0.00418
1256.70499,0.00431
1254.64482,0.00427
1252.58465,0.00411
1250.52447,0.00394
1248.46430,0.00398
1246.40413,0.00419
1244.34396,0.00429
1242.28379,0.00422
1240.22361,0.00410
1238.16344,0.00392
1236.10327,0.00366
1234.04310,0.00351
1231.98293,0.00349
1229.92275,0.00339
1227.86258,0.00322
1225.80241,0.00310
1223.74224,0.00289
1221.68207,0.00254
1219.62189,0.00219
1217.56172,0.00189
1215.50155,0.00164
1213.44138,0.00142
1211.38120,0.00125
1209.32103,0.00109
1207.26086,0.00085
1205.20069,0.00063
1203.14052,0.00063
1201.08034,0.00063
1199.02017,0.00048
1196.96000,0.00044
1194.89983,0.00047
1192.83966,0.00032
1190.77948,0.00019
1188.71931,0.00013
1186.65914,0.00000
1184.59897,-0.00001
1182.53880,0.00021
1180.47862,0.00042
1178.41845,0.00048
1176.35828,0.00050
1174.29811,0.00067
1172.23793,0.00105
1170.17776,0.00143
1168.11759,0.00169
1166.05742,0.00197
1163.99725,0.00224
1161.93707,0.00252
1159.87690,0.00282
1157.81673,0.00306
1155.75656,0.00331
1153.69639,0.00368
1151.63621,0.00417
1149.57604,0.00461
1147.51587,0.00491
1145.45570,0.00524
1143.39552,0.00575
1141.33535,0.00633
1139.27518,0.00696
1137.21501,0.00761
1135.15484,0.00809
1133.09466,0.00858
1131.03449,0.00921
1128.97432,0.00992
1126.91415,0.01061
1124.85398,0.01138
1122.79380,0.01247
1120.73363,0.01374
1118.67346,0.01489
1116.61329,0.01584
1114.55312,0.01676
1112.49294,0.01778
1110.43277,0.01874
1108.37260,0.01961
1106.31243,0.02047
1104.25225,0.02140
1102.19208,0.02240
1100.13191,0.02331
1098.07174,0.02413
1096.01157,0.02499
1093.95139,0.02587
1091.89122,0.02662
1089.83105,0.02717
1087.77088,0.02761
1085.71071,0.02815
1083.65053,0.02892
1081.59036,0.02975
1079.53019,0.03034
1077.47002,0.03081
1075.40985,0.03138
1073.34967,0.03194
1071.28950,0.03241
1069.22933,0.03268
1067.16916,0.03262
1065.10898,0.03239
1063.04881,0.03222
1060.98864,0.03206
1058.92847,0.03183
1056.86830,0.03155
1054.80812,0.03107
1052.74795,0.03039
1050.68778,0.02972
1048.62761,0.02901
1046.56744,0.02814
1044.50726,0.02716
1042.44709,0.02611
1040.38692,0.02488
1038.32675,0.02350
1036.26657,0.02221
1034.20640,0.02112
1032.14623,0.02024
1030.08606,0.01947
1028.02589,0.01867
1025.96571,0.01785
1023.90554,0.01700
1021.84537,0.01611
1019.78520,0.01540
1017.72503,0.01497
1015.66485,0.01465
1013.60468,0.01431
1011.54451,0.01409
1009.48434,0.01394
1007.42417,0.01385
1005.36399,0.01394
1003.30382,0.01417
1001.24365,0.01465
999.18348,0.01536
997.12330,0.01600
995.06313,0.01653
993.00296,0.01707
990.94279,0.01775
988.88262,0.01856
986.82244,0.01925
984.76227,0.01956
982.70210,0.01959
980.64193,0.01945
978.58176,0.01915
976.52158,0.01886
974.46141,0.01854
972.40124,0.01786
970.34107,0.01682
968.28089,0.01571
966.22072,0.01484
964.16055,0.01413
962.10038,0.01343
960.04021,0.01274
957.98003,0.01186
955.91986,0.01086
953.85969,0.00993
951.79952,0.00908
949.73935,0.00816
947.67917,0.00727
945.61900,0.00662
943.55883,0.00614
941.49866,0.00556
939.43849,0.00494
937.37831,0.00443
935.31814,0.00406
933.25797,0.00361
931.19780,0.00300
929.13762,0.00248
927.07745,0.00224
925.01728,0.00217
922.95711,0.00196
920.89694,0.00177
918.83676,0.00172
916.77659,0.00152
914.71642,0.00121
912.65625,0.00109
910.59608,0.00097
908.53590,0.00070
906.47573,0.00056
904.41556,0.00061
902.35539,0.00071
900.29522,0.00096
898.23504,0.00121
896.17487,0.00123
894.11470,0.00126
892.05453,0.00168
889.99435,0.00213
887.93418,0.00210
885.87401,0.00206
883.81384,0.00244
881.75367,0.00294
879.69349,0.00338
877.63332,0.00378
875.57315,0.00416
873.51298,0.00437
871.45281,0.00434
869.39263,0.00437
867.33246,0.00482
865.27229,0.00556
863.21212,0.00596
861.15194,0.00579
859.09177,0.00560
857.03160,0.00572
854.97143,0.00581
852.91126,0.00571
850.85108,0.00571
848.79091,0.00566
846.73074,0.00538
844.67057,0.00521
842.61040,0.00537
840.55022,0.00557
838.49005,0.00530
836.42988,0.00456
834.36971,0.00392
832.30954,0.00355
830.24936,0.00330
828.18919,0.00316
826.12902,0.00297
824.06885,0.00276
822.00867,0.00270
819.94850,0.00236
817.88833,0.00150
815.82816,0.00086
813.76799,0.00076
811.70781,0.00089
809.64764,0.00124
807.58747,0.00164
805.52730,0.00175
803.46713,0.00153
801.40695,0.00137
799.34678,0.00156
797.28661,0.00148
795.22644,0.00085
793.16627,0.00047
791.10609,0.00039
789.04592,0.00018
786.98575,0.00000
784.92558,-0.00005
782.86540,0.00002
780.80523,0.00013
778.74506,0.00006
776.68489,-0.00008
774.62472,0.00007
772.56454,0.00045
770.50437,0.00090
768.44420,0.00109
766.38403,0.00077
764.32386,0.00029
762.26368,-0.00032
760.20351,-0.00079
758.14334,-0.00041
756.08317,0.00041
754.02299,0.00084
751.96282,0.00080
749.90265,0.00055
747.84248,0.00046
745.78231,0.00071
743.72213,0.00106
741.66196,0.00110
739.60179,0.00093
737.54162,0.00106
735.48145,0.00132
733.42127,0.00106
731.36110,0.00047
729.30093,0.00004
727.24076,-0.00006
725.18059,0.00007
723.12041,0.00009
721.06024,-0.00023
719.00007,-0.00004
716.93990,0.00052
714.87972,0.00088
712.81955,0.00076
710.75938,0.00044
708.69921,0.00042
706.63904,0.00052
704.57886,0.00045
702.51869,0.00069
700.45852,0.00141
698.39835,0.00190
696.33818,0.00213
694.27800,0.00252
692.21783,0.00269
690.15766,0.00219
688.09749,0.00178
686.03731,0.00201
683.97714,0.00217
681.91697,0.00223
679.85680,0.00269
677.79663,0.00298
675.73645,0.00263
673.67628,0.00270
671.61611,0.00402
669.55594,0.00356
667.49577,0.00164
665.43559,0.00386
663.37542,0.00385
661.31525,0.00310
659.25508,0.00259
657.19491,0.00270
655.13473,0.00324
653.07456,0.00342
651.01439,0.00295
648.95422,0.00289
646.89404,0.00401
644.83387,0.00483
642.77370,0.00478
640.71353,0.00492
638.65336,0.00488
636.59318,0.00353
634.53301,0.00158
632.47284,0.00055
630.41267,0.00086
628.35250,0.00154
626.29232,0.00135
624.23215,0.00055
622.17198,0.00000
620.11181,0.00005
618.05164,0.00176
615.99146,0.00337
613.93129,0.00212
611.87112,-0.00048
609.81095,-0.00131
607.75077,-0.00067
605.69060,-0.00035
603.63043,0.00024
601.57026,0.00091
599.51009,0.00000
