3996.73391,0.00000
3994.67373,0.00017
3992.61356,0.00026
3990.55339,0.00017
3988.49322,0.00008
3986.43305,0.00014
3984.37287,0.00032
3982.31270,0.00059
3980.25253,0.00080
3978.19236,0.00089
3976.13219,0.00088
3974.07201,0.00083
3972.01184,0.00073
3969.95167,0.00058
3967.89150,0.00044
3965.83133,0.00046
3963.77115,0.00062
3961.71098,0.00076
3959.65081,0.00081
3957.59064,0.00084
3955.53046,0.00072
3953.47029,0.00047
3951.41012,0.00036
3949.34995,0.00053
3947.28978,0.00075
3945.22960,0.00079
3943.16943,0.00081
3941.10926,0.00092
3939.04909,0.00091
3936.98892,0.00076
3934.92874,0.00075
3932.86857,0.00106
3930.80840,0.00129
3928.74823,0.00117
3926.68805,0.00098
3924.62788,0.00087
3922.56771,0.00077
3920.50754,0.00072
3918.44737,0.00069
3916.38719,0.00064
3914.32702,0.00060
3912.26685,0.00052
3910.20668,0.00040
3908.14651,0.00033
3906.08633,0.00040
3904.02616,0.00058
3901.96599,0.00088
3899.90582,0.00119
3897.84565,0.00133
3895.78547,0.00129
3893.72530,0.00105
3891.66513,0.00068
3889.60496,0.00052
3887.54478,0.00070
3885.48461,0.00090
3883.42444,0.00084
3881.36427,0.00072
3879.30410,0.00077
3877.24392,0.00082
3875.18375,0.00071
3873.12358,0.00058
3871.06341,0.00053
3869.00324,0.00067
3866.94306,0.00097
3864.88289,0.00117
3862.82272,0.00109
3860.76255,0.00091
3858.70237,0.00088
3856.64220,0.00114
3854.58203,0.00147
3852.52186,0.00128
3850.46169,0.00076
3848.40151,0.00048
3846.34134,0.00037
3844.28117,0.00025
3842.22100,0.00031
3840.16083,0.00065
3838.10065,0.00106
3836.04048,0.00133
3833.98031,0.00136
3831.92014,0.00120
3829.85997,0.00099
3827.79979,0.00085
3825.73962,0.00075
3823.67945,0.00055
3821.61928,0.00046
3819.55910,0.00061
3817.49893,0.00076
3815.43876,0.00093
3813.37859,0.00106
3811.31842,0.00106
3809.25824,0.00106
3807.19807,0.00107
3805.13790,0.00094
3803.07773,0.00063
3801.01756,0.00041
3798.95738,0.00050
3796.89721,0.00083
3794.83704,0.00114
3792.77687,0.00123
3790.71670,0.00115
3788.65652,0.00104
3786.59635,0.00096
3784.53618,0.00101
3782.47601,0.00119
3780.41583,0.00134
3778.35566,0.00132
3776.29549,0.00123
3774.23532,0.00118
3772.17515,0.00112
3770.11497,0.00106
3768.05480,0.00097
3765.99463,0.00082
3763.93446,0.00065
3761.87429,0.00056
3759.81411,0.00065
3757.75394,0.00088
3755.69377,0.00102
3753.63360,0.00119
3751.57342,0.00149
3749.51325,0.00161
3747.45308,0.00144
3745.39291,0.00132
3743.33274,0.00133
3741.27256,0.00126
3739.21239,0.00124
3737.15222,0.00147
3735.09205,0.00147
3733.03188,0.00113
3730.97170,0.00095
3728.91153,0.00133
3726.85136,0.00184
3724.79119,0.00208
3722.73102,0.00231
3720.67084,0.00218
3718.61067,0.00193
3716.55050,0.00153
3714.49033,0.00114
3712.43015,0.00116
3710.36998,0.00109
3708.30981,0.00134
3706.24964,0.00153
3704.18947,0.00160
3702.12929,0.00164
3700.06912,0.00169
3698.00895,0.00191
3695.94878,0.00204
3693.88861,0.00200
3691.82843,0.00188
3689.76826,0.00219
3687.70809,0.00240
3685.64792,0.00230
3683.58775,0.00200
3681.52757,0.00186
3679.46740,0.00171
3677.40723,0.00163
3675.34706,0.00173
3673.28688,0.00184
3671.22671,0.00181
3669.16654,0.00188
3667.10637,0.00211
3665.04620,0.00225
3662.98602,0.00221
3660.92585,0.00213
3658.86568,0.00213
3656.80551,0.00213
3654.74534,0.00215
3652.68516,0.00224
3650.62499,0.00220
3648.56482,0.00208
3646.50465,0.00233
3644.44447,0.00294
3642.38430,0.00331
3640.32413,0.00332
3638.26396,0.00322
3636.20379,0.00307
3634.14361,0.00292
3632.08344,0.00287
3630.02327,0.00316
3627.96310,0.00353
3625.90293,0.00373
3623.84275,0.00356
3621.78258,0.00334
3619.72241,0.00333
3617.66224,0.00336
3615.60207,0.00345
3613.54189,0.00340
3611.48172,0.00350
3609.42155,0.00374
3607.36138,0.00411
3605.30120,0.00447
3603.24103,0.00447
3601.18086,0.00460
3599.12069,0.00490
3597.06052,0.00516
3595.00034,0.00500
3592.94017,0.00495
3590.88000,0.00469
3588.81983,0.00436
3586.75966,0.00423
3584.69948,0.00456
3582.63931,0.00503
3580.57914,0.00522
3578.51897,0.00521
3576.45879,0.00520
3574.39862,0.00527
3572.33845,0.00532
3570.27828,0.00525
3568.21811,0.00510
3566.15793,0.00522
3564.09776,0.00555
3562.03759,0.00587
3559.97742,0.00618
3557.91725,0.00651
3555.85707,0.00693
3553.79690,0.00735
3551.73673,0.00746
3549.67656,0.00721
3547.61639,0.00704
3545.55621,0.00719
3543.49604,0.00736
3541.43587,0.00742
3539.37570,0.00744
3537.31552,0.00741
3535.25535,0.00737
3533.19518,0.00745
3531.13501,0.00761
3529.07484,0.00790
3527.01466,0.00821
3524.95449,0.00825
3522.89432,0.00814
3520.83415,0.00827
3518.77398,0.00850
3516.71380,0.00851
3514.65363,0.00832
3512.59346,0.00817
3510.53329,0.00828
3508.47312,0.00857
3506.41294,0.00873
3504.35277,0.00878
3502.29260,0.00886
3500.23243,0.00897
3498.17225,0.00917
3496.11208,0.00945
3494.05191,0.00950
3491.99174,0.00933
3489.93157,0.00928
3487.87139,0.00939
3485.81122,0.00954
3483.75105,0.00974
3481.69088,0.01002
3479.63071,0.01025
3477.57053,0.01030
3475.51036,0.01017
3473.45019,0.00998
3471.39002,0.01002
3469.32984,0.01033
3467.26967,0.01051
3465.20950,0.01045
3463.14933,0.01040
3461.08916,0.01046
3459.02898,0.01062
3456.96881,0.01082
3454.90864,0.01101
3452.84847,0.01121
3450.78830,0.01138
3448.72812,0.01144
3446.66795,0.01135
3444.60778,0.01124
3442.54761,0.01125
3440.48744,0.01130
3438.42726,0.01130
3436.36709,0.01129
3434.30692,0.01145
3432.24675,0.01158
3430.18657,0.01150
3428.12640,0.01142
3426.06623,0.01136
3424.00606,0.01142
3421.94589,0.01172
3419.88571,0.01198
3417.82554,0.01210
3415.76537,0.01230
3413.70520,0.01259
3411.64503,0.01279
3409.58485,0.01275
3407.52468,0.01247
3405.46451,0.01239
3403.40434,0.01258
3401.34416,0.01270
3399.28399,0.01272
3397.22382,0.01286
3395.16365,0.01303
3393.10348,0.01309
3391.04330,0.01307
3388.98313,0.01307
3386.92296,0.01315
3384.86279,0.01328
3382.80262,0.01334
3380.74244,0.01331
3378.68227,0.01333
3376.62210,0.01347
3374.56193,0.01361
3372.50176,0.01362
3370.44158,0.01355
3368.38141,0.01352
3366.32124,0.01364
3364.26107,0.01374
3362.20089,0.01361
3360.14072,0.01342
3358.08055,0.01345
3356.02038,0.01363
3353.96021,0.01368
3351.90003,0.01362
3349.83986,0.01370
3347.77969,0.01389
3345.71952,0.01395
3343.65935,0.01393
3341.59917,0.01396
3339.53900,0.01395
3337.47883,0.01387
3335.41866,0.01385
3333.35849,0.01394
3331.29831,0.01402
3329.23814,0.01408
3327.17797,0.01421
3325.11780,0.01418
3323.05762,0.01397
3320.99745,0.01395
3318.93728,0.01419
3316.87711,0.01448
3314.81694,0.01475
3312.75676,0.01493
3310.69659,0.01494
3308.63642,0.01483
3306.57625,0.01478
3304.51608,0.01477
3302.45590,0.01464
3300.39573,0.01451
3298.33556,0.01462
3296.27539,0.01490
3294.21521,0.01503
3292.15504,0.01496
3290.09487,0.01478
3288.03470,0.01455
3285.97453,0.01450
3283.91435,0.01467
3281.85418,0.01487
3279.79401,0.01503
3277.73384,0.01502
3275.67367,0.01478
3273.61349,0.01451
3271.55332,0.01446
3269.49315,0.01466
3267.43298,0.01494
3265.37281,0.01507
3263.31263,0.01500
3261.25246,0.01492
3259.19229,0.01487
3257.13212,0.01486
3255.07194,0.01495
3253.01177,0.01503
3250.95160,0.01506
3248.89143,0.01525
3246.83126,0.01539
3244.77108,0.01527
3242.71091,0.01512
3240.65074,0.01509
3238.59057,0.01492
3236.53040,0.01463
3234.47022,0.01466
3232.41005,0.01499
3230.34988,0.01511
3228.28971,0.01508
3226.22954,0.01520
3224.16936,0.01523
3222.10919,0.01510
3220.04902,0.01509
3217.98885,0.01523
3215.92867,0.01523
3213.86850,0.01512
3211.80833,0.01511
3209.74816,0.01504
3207.68799,0.01492
3205.62781,0.01496
3203.56764,0.01505
3201.50747,0.01505
3199.44730,0.01501
3197.38713,0.01489
3195.32695,0.01484
3193.26678,0.01498
3191.20661,0.01493
3189.14644,0.01472
3187.08626,0.01475
3185.02609,0.01490
3182.96592,0.01491
3180.90575,0.01486
3178.84558,0.01491
3176.78540,0.01495
3174.72523,0.01497
3172.66506,0.01500
3170.60489,0.01499
3168.54472,0.01492
3166.48454,0.01483
3164.42437,0.01468
3162.36420,0.01458
3160.30403,0.01461
3158.24386,0.01471
3156.18368,0.01491
3154.12351,0.01514
3152.06334,0.01510
3150.00317,0.01473
3147.94299,0.01438
3145.88282,0.01436
3143.82265,0.01450
3141.76248,0.01459
3139.70231,0.01462
3137.64213,0.01458
3135.58196,0.01442
3133.52179,0.01427
3131.46162,0.01432
3129.40145,0.01446
3127.34127,0.01449
3125.28110,0.01447
3123.22093,0.01444
3121.16076,0.01439
3119.10058,0.01440
3117.04041,0.01434
3114.98024,0.01413
3112.92007,0.01399
3110.85990,0.01410
3108.79972,0.01423
3106.73955,0.01421
3104.67938,0.01413
3102.61921,0.01398
3100.55904,0.01386
3098.49886,0.01390
3096.43869,0.01394
3094.37852,0.01390
3092.31835,0.01392
3090.25818,0.01397
3088.19800,0.01395
3086.13783,0.01390
3084.07766,0.01389
3082.01749,0.01392
3079.95731,0.01384
3077.89714,0.01365
3075.83697,0.01355
3073.77680,0.01358
3071.71663,0.01360
3069.65645,0.01352
3067.59628,0.01341
3065.53611,0.01335
3063.47594,0.01336
3061.41577,0.01341
3059.35559,0.01342
3057.29542,0.01335
3055.23525,0.01332
3053.17508,0.01334
3051.11491,0.01333
3049.05473,0.01328
3046.99456,0.01326
3044.93439,0.01326
3042.87422,0.01324
3040.81404,0.01311
3038.75387,0.01296
3036.69370,0.01283
3034.63353,0.01279
3032.57336,0.01293
3030.51318,0.01306
3028.45301,0.01309
3026.39284,0.01311
3024.33267,0.01298
3022.27250,0.01271
3020.21232,0.01258
3018.15215,0.01268
3016.09198,0.01276
3014.03181,0.01264
3011.97163,0.01247
3009.91146,0.01254
3007.85129,0.01271
3005.79112,0.01265
3003.73095,0.01250
3001.67077,0.01252
2999.61060,0.01261
2997.55043,0.01264
2995.49026,0.01276
2993.43009,0.01282
2991.36991,0.01264
2989.30974,0.01238
2987.24957,0.01227
2985.18940,0.01231
2983.12923,0.01234
2981.06905,0.01235
2979.00888,0.01237
2976.94871,0.01246
2974.88854,0.01263
2972.82836,0.01267
2970.76819,0.01253
2968.70802,0.01233
2966.64785,0.01214
2964.58768,0.01207
2962.52750,0.01214
2960.46733,0.01213
2958.40716,0.01201
2956.34699,0.01198
2954.28682,0.01209
2952.22664,0.01218
2950.16647,0.01215
2948.10630,0.01208
2946.04613,0.01209
2943.98596,0.01220
2941.92578,0.01230
2939.86561,0.01233
2937.80544,0.01231
2935.74527,0.01225
2933.68509,0.01223
2931.62492,0.01229
2929.56475,0.01233
2927.50458,0.01229
2925.44441,0.01216
2923.38423,0.01196
2921.32406,0.01170
2919.26389,0.01150
2917.20372,0.01139
2915.14355,0.01140
2913.08337,0.01152
2911.02320,0.01158
2908.96303,0.01147
2906.90286,0.01145
2904.84268,0.01157
2902.78251,0.01157
2900.72234,0.01148
2898.66217,0.01146
2896.60200,0.01155
2894.54182,0.01170
2892.48165,0.01177
2890.42148,0.01161
2888.36131,0.01143
2886.30114,0.01143
2884.24096,0.01149
2882.18079,0.01150
2880.12062,0.01143
2878.06045,0.01141
2876.00028,0.01150
2873.94010,0.01153
2871.87993,0.01149
2869.81976,0.01146
2867.75959,0.01139
2865.69941,0.01125
2863.63924,0.01117
2861.57907,0.01125
2859.51890,0.01133
2857.45873,0.01132
2855.39855,0.01123
2853.33838,0.01106
2851.27821,0.01084
2849.21804,0.01066
2847.15787,0.01057
2845.09769,0.01056
2843.03752,0.01061
2840.97735,0.01065
2838.91718,0.01064
2836.85700,0.01066
2834.79683,0.01078
2832.73666,0.01093
2830.67649,0.01102
2828.61632,0.01095
2826.55614,0.01083
2824.49597,0.01085
2822.43580,0.01100
2820.37563,0.01108
2818.31546,0.01099
2816.25528,0.01083
2814.19511,0.01077
2812.13494,0.01074
2810.07477,0.01065
2808.01460,0.01058
2805.95442,0.01060
2803.89425,0.01062
2801.83408,0.01054
2799.77391,0.01045
2797.71373,0.01051
2795.65356,0.01068
2793.59339,0.01068
2791.53322,0.01055
2789.47305,0.01043
2787.41287,0.01035
2785.35270,0.01031
2783.29253,0.01041
2781.23236,0.01055
2779.17219,0.01055
2777.11201,0.01055
2775.05184,0.01067
2772.99167,0.01064
2770.93150,0.01047
2768.87133,0.01040
2766.81115,0.01035
2764.75098,0.01030
2762.69081,0.01030
2760.63064,0.01021
2758.57046,0.01011
2756.51029,0.01019
2754.45012,0.01027
2752.38995,0.01020
2750.32978,0.01018
2748.26960,0.01019
2746.20943,0.01017
2744.14926,0.01015
2742.08909,0.01009
2740.02892,0.01009
2737.96874,0.01015
2735.90857,0.01012
2733.84840,0.00998
2731.78823,0.00996
2729.72805,0.01010
2727.66788,0.01025
2725.60771,0.01028
2723.54754,0.01030
2721.48737,0.01027
2719.42719,0.01011
2717.36702,0.00996
2715.30685,0.00993
2713.24668,0.00999
2711.18651,0.01003
2709.12633,0.01000
2707.06616,0.00994
2705.00599,0.00992
2702.94582,0.00987
2700.88565,0.00971
2698.82547,0.00961
2696.76530,0.00975
2694.70513,0.00988
2692.64496,0.00983
2690.58478,0.00977
2688.52461,0.00977
2686.46444,0.00982
2684.40427,0.00978
2682.34410,0.00967
2680.28392,0.00962
2678.22375,0.00964
2676.16358,0.00968
2674.10341,0.00959
2672.04324,0.00942
2669.98306,0.00936
2667.92289,0.00938
2665.86272,0.00940
2663.80255,0.00942
2661.74238,0.00951
2659.68220,0.00967
2657.62203,0.00974
2655.56186,0.00973
2653.50169,0.00972
2651.44151,0.00968
2649.38134,0.00966
2647.32117,0.00980
2645.26100,0.00997
2643.20083,0.00996
2641.14065,0.00989
2639.08048,0.00996
2637.02031,0.01001
2634.96014,0.00996
2632.89997,0.00990
2630.83979,0.00979
2628.77962,0.00953
2626.71945,0.00928
2624.65928,0.00935
2622.59910,0.00964
2620.53893,0.00980
2618.47876,0.00971
2616.41859,0.00962
2614.35842,0.00962
2612.29824,0.00958
2610.23807,0.00961
2608.17790,0.00964
2606.11773,0.00936
2604.05756,0.00901
2601.99738,0.00903
2599.93721,0.00921
2597.87704,0.00938
2595.81687,0.00956
2593.75670,0.00952
2591.69652,0.00935
2589.63635,0.00932
2587.57618,0.00942
2585.51601,0.00944
2583.45583,0.00930
2581.39566,0.00910
2579.33549,0.00905
2577.27532,0.00923
2575.21515,0.00934
2573.15497,0.00933
2571.09480,0.00932
2569.03463,0.00927
2566.97446,0.00929
2564.91429,0.00934
2562.85411,0.00932
2560.79394,0.00925
2558.73377,0.00923
2556.67360,0.00933
2554.61342,0.00946
2552.55325,0.00958
2550.49308,0.00967
2548.43291,0.00956
2546.37274,0.00924
2544.31256,0.00908
2542.25239,0.00921
2540.19222,0.00936
2538.13205,0.00950
2536.07188,0.00970
2534.01170,0.00978
2531.95153,0.00963
2529.89136,0.00935
2527.83119,0.00921
2525.77102,0.00935
2523.71084,0.00939
2521.65067,0.00923
2519.59050,0.00913
2517.53033,0.00909
2515.47015,0.00923
2513.40998,0.00949
2511.34981,0.00953
2509.28964,0.00930
2507.22947,0.00918
2505.16929,0.00939
2503.10912,0.00972
2501.04895,0.00977
2498.98878,0.00950
2496.92861,0.00944
2494.86843,0.00968
2492.80826,0.00977
2490.74809,0.00979
2488.68792,0.00995
2486.62775,0.01000
2484.56757,0.00993
2482.50740,0.00997
2480.44723,0.01004
2478.38706,0.00984
2476.32688,0.00953
2474.26671,0.00957
2472.20654,0.00994
2470.14637,0.01027
2468.08620,0.01034
2466.02602,0.01028
2463.96585,0.01019
2461.90568,0.01007
2459.84551,0.01009
2457.78534,0.01030
2455.72516,0.01049
2453.66499,0.01051
2451.60482,0.01036
2449.54465,0.01007
2447.48447,0.00994
2445.42430,0.01004
2443.36413,0.00997
2441.30396,0.00979
2439.24379,0.00984
2437.18361,0.01005
2435.12344,0.01014
2433.06327,0.01003
2431.00310,0.00977
2428.94293,0.00953
2426.88275,0.00949
2424.82258,0.00972
2422.76241,0.01004
2420.70224,0.01014
2418.64207,0.01000
2416.58189,0.00983
2414.52172,0.00981
2412.46155,0.00997
2410.40138,0.01013
2408.34120,0.01009
2406.28103,0.01009
2404.22086,0.01020
2402.16069,0.01013
2400.10052,0.00995
2398.04034,0.00977
2395.98017,0.00974
2393.92000,0.00969
2391.85983,0.00963
2389.79966,0.00971
2387.73948,0.00984
2385.67931,0.00959
2383.61914,0.00927
2381.55897,0.00951
2379.49880,0.00972
2377.43862,0.00989
2375.37845,0.01113
2373.31828,0.01037
2371.25811,0.01022
2369.19793,0.01179
2367.13776,0.01236
2365.07759,0.01067
2363.01742,0.01164
2360.95725,0.00896
2358.89707,0.01072
2356.83690,0.01208
2354.77673,0.01505
2352.71656,0.01396
2350.65639,0.00628
2348.59621,0.00000
2346.53604,0.01244
2344.47587,0.01537
2342.41570,0.01280
2340.35552,0.01054
2338.29535,0.01095
2336.23518,0.01047
2334.17501,0.00985
2332.11484,0.01048
2330.05466,0.01016
2327.99449,0.01238
2325.93432,0.00986
2323.87415,0.01096
2321.81398,0.01010
2319.75380,0.01216
2317.69363,0.01083
2315.63346,0.01062
2313.57329,0.01214
2311.51312,0.01177
2309.45294,0.01131
2307.39277,0.01111
2305.33260,0.01075
2303.27243,0.01023
2301.21225,0.01023
2299.15208,0.00984
2297.09191,0.00971
2295.03174,0.01063
2292.97157,0.01127
2290.91139,0.01143
2288.85122,0.01158
2286.79105,0.01162
2284.73088,0.01128
2282.67071,0.01086
2280.61053,0.01064
2278.55036,0.01064
2276.49019,0.01066
2274.43002,0.01062
2272.36984,0.01070
2270.30967,0.01060
2268.24950,0.01052
2266.18933,0.01046
2264.12916,0.01036
2262.06898,0.01048
2260.00881,0.01094
2257.94864,0.01070
2255.88847,0.01017
2253.82830,0.01015
2251.76812,0.01046
2249.70795,0.01052
2247.64778,0.01034
2245.58761,0.01023
2243.52744,0.01003
2241.46726,0.00997
2239.40709,0.01027
2237.34692,0.01051
2235.28675,0.01072
2233.22657,0.01096
2231.16640,0.01093
2229.10623,0.01091
2227.04606,0.01114
2224.98589,0.01098
2222.92571,0.01028
2220.86554,0.00984
2218.80537,0.00982
2216.74520,0.00994
2214.68503,0.01009
2212.62485,0.01024
2210.56468,0.01039
2208.50451,0.01039
2206.44434,0.01003
2204.38417,0.00980
2202.32399,0.01019
2200.26382,0.01039
2198.20365,0.01000
2196.14348,0.00990
2194.08330,0.01018
2192.02313,0.01048
2189.96296,0.01101
2187.90279,0.01146
2185.84262,0.01135
2183.78244,0.01072
2181.72227,0.01009
2179.66210,0.00968
2177.60193,0.00948
2175.54176,0.00950
2173.48158,0.00972
2171.42141,0.01050
2169.36124,0.01124
2167.30107,0.01114
2165.24089,0.01022
2163.18072,0.00867
2161.12055,0.00722
2159.06038,0.00657
2157.00021,0.00691
2154.94003,0.00799
2152.87986,0.00884
2150.81969,0.00859
2148.75952,0.00792
2146.69935,0.00774
2144.63917,0.00758
2142.57900,0.00718
2140.51883,0.00734
2138.45866,0.00786
2136.39849,0.00786
2134.33831,0.00785
2132.27814,0.00828
2130.21797,0.00896
2128.15780,0.00992
2126.09762,0.01061
2124.03745,0.01056
2121.97728,0.01027
2119.91711,0.01011
2117.85694,0.00994
2115.79676,0.00997
2113.73659,0.01028
2111.67642,0.01036
2109.61625,0.01014
2107.55608,0.01009
2105.49590,0.01014
2103.43573,0.01023
2101.37556,0.01033
2099.31539,0.01006
2097.25521,0.00982
2095.19504,0.00992
2093.13487,0.01001
2091.07470,0.01010
2089.01453,0.01033
2086.95435,0.01066
2084.89418,0.01091
2082.83401,0.01075
2080.77384,0.01035
2078.71367,0.01015
2076.65349,0.01018
2074.59332,0.01030
2072.53315,0.01036
2070.47298,0.01035
2068.41281,0.01057
2066.35263,0.01115
2064.29246,0.01137
2062.23229,0.01064
2060.17212,0.00972
2058.11194,0.00973
2056.05177,0.01062
2053.99160,0.01146
2051.93143,0.01157
2049.87126,0.01090
2047.81108,0.01018
2045.75091,0.01056
2043.69074,0.01150
2041.63057,0.01139
2039.57040,0.01056
2037.51022,0.01004
2035.45005,0.00955
2033.38988,0.00878
2031.32971,0.00844
2029.26954,0.00914
2027.20936,0.00974
2025.14919,0.00981
2023.08902,0.01020
2021.02885,0.01040
2018.96867,0.01001
2016.90850,0.01011
2014.84833,0.01074
2012.78816,0.01064
2010.72799,0.01001
2008.66781,0.01026
2006.60764,0.01106
2004.54747,0.01088
2002.48730,0.01002
2000.42713,0.00930
1998.36695,0.00895
1996.30678,0.00920
1994.24661,0.01003
1992.18644,0.01100
1990.12626,0.01142
1988.06609,0.01144
1986.00592,0.01130
1983.94575,0.01036
1981.88558,0.00934
1979.82540,0.00953
1977.76523,0.00992
1975.70506,0.00977
1973.64489,0.01019
1971.58472,0.01078
1969.52454,0.01095
1967.46437,0.01122
1965.40420,0.01106
1963.34403,0.01003
1961.28386,0.00895
1959.22368,0.00874
1957.16351,0.00942
1955.10334,0.01014
1953.04317,0.01059
1950.98299,0.01075
1948.92282,0.01048
1946.86265,0.01032
1944.80248,0.01038
1942.74231,0.01022
1940.68213,0.01016
1938.62196,0.01051
1936.56179,0.01081
1934.50162,0.01059
1932.44145,0.01009
1930.38127,0.00981
1928.32110,0.00972
1926.26093,0.00958
1924.20076,0.00953
1922.14059,0.00978
1920.08041,0.01023
1918.02024,0.01057
1915.96007,0.01066
1913.89990,0.01062
1911.83972,0.01064
1909.77955,0.01082
1907.71938,0.01097
1905.65921,0.01081
1903.59904,0.01043
1901.53886,0.01014
1899.47869,0.01010
1897.41852,0.01047
1895.35835,0.01111
1893.29818,0.01149
1891.23800,0.01134
1889.17783,0.01113
1887.11766,0.01124
1885.05749,0.01136
1882.99731,0.01135
1880.93714,0.01143
1878.87697,0.01147
1876.81680,0.01130
1874.75663,0.01107
1872.69645,0.01091
1870.63628,0.01085
1868.57611,0.01089
1866.51594,0.01090
1864.45577,0.01084
1862.39559,0.01089
1860.33542,0.01107
1858.27525,0.01126
1856.21508,0.01136
1854.15491,0.01137
1852.09473,0.01126
1850.03456,0.01107
1847.97439,0.01092
1845.91422,0.01089
1843.85404,0.01100
1841.79387,0.01119
1839.73370,0.01126
1837.67353,0.01112
1835.61336,0.01102
1833.55318,0.01115
1831.49301,0.01129
1829.43284,0.01133
1827.37267,0.01142
1825.31250,0.01163
1823.25232,0.01186
1821.19215,0.01197
1819.13198,0.01185
1817.07181,0.01166
1815.01163,0.01161
1812.95146,0.01163
1810.89129,0.01165
1808.83112,0.01170
1806.77095,0.01174
1804.71077,0.01168
1802.65060,0.01162
1800.59043,0.01163
1798.53026,0.01162
1796.47009,0.01164
1794.40991,0.01189
1792.34974,0.01225
1790.28957,0.01235
1788.22940,0.01218
1786.16923,0.01198
1784.10905,0.01187
1782.04888,0.01183
1779.98871,0.01177
1777.92854,0.01179
1775.86836,0.01196
1773.80819,0.01218
1771.74802,0.01232
1769.68785,0.01243
1767.62768,0.01252
1765.56750,0.01252
1763.50733,0.01249
1761.44716,0.01258
1759.38699,0.01272
1757.32682,0.01279
1755.26664,0.01284
1753.20647,0.01286
1751.14630,0.01289
1749.08613,0.01300
1747.02596,0.01314
1744.96578,0.01325
1742.90561,0.01337
1740.84544,0.01349
1738.78527,0.01351
1736.72509,0.01339
1734.66492,0.01327
1732.60475,0.01326
1730.54458,0.01328
1728.48441,0.01328
1726.42423,0.01326
1724.36406,0.01326
1722.30389,0.01331
1720.24372,0.01338
1718.18355,0.01348
1716.12337,0.01356
1714.06320,0.01353
1712.00303,0.01354
1709.94286,0.01368
1707.88268,0.01379
1705.82251,0.01371
1703.76234,0.01351
1701.70217,0.01351
1699.64200,0.01385
1697.58182,0.01421
1695.52165,0.01442
1693.46148,0.01460
1691.40131,0.01481
1689.34114,0.01498
1687.28096,0.01501
1685.22079,0.01501
1683.16062,0.01524
1681.10045,0.01561
1679.04028,0.01580
1676.98010,0.01581
1674.91993,0.01594
1672.85976,0.01627
1670.79959,0.01658
1668.73941,0.01679
1666.67924,0.01689
1664.61907,0.01703
1662.55890,0.01721
1660.49873,0.01728
1658.43855,0.01722
1656.37838,0.01717
1654.31821,0.01737
1652.25804,0.01760
1650.19787,0.01748
1648.13769,0.01733
1646.07752,0.01738
1644.01735,0.01740
1641.95718,0.01728
1639.89701,0.01713
1637.83683,0.01702
1635.77666,0.01697
1633.71649,0.01698
1631.65632,0.01700
1629.59614,0.01699
1627.53597,0.01693
1625.47580,0.01687
1623.41563,0.01682
1621.35546,0.01671
1619.29528,0.01658
1617.23511,0.01656
1615.17494,0.01659
1613.11477,0.01650
1611.05460,0.01636
1608.99442,0.01630
1606.93425,0.01632
1604.87408,0.01632
1602.81391,0.01626
1600.75373,0.01620
1598.69356,0.01609
1596.63339,0.01595
1594.57322,0.01589
1592.51305,0.01590
1590.45287,0.01591
1588.39270,0.01583
1586.33253,0.01571
1584.27236,0.01560
1582.21219,0.01551
1580.15201,0.01539
1578.09184,0.01525
1576.03167,0.01513
1573.97150,0.01507
1571.91133,0.01504
1569.85115,0.01499
1567.79098,0.01491
1565.73081,0.01487
1563.67064,0.01488
1561.61046,0.01498
1559.55029,0.01528
1557.49012,0.01560
1555.42995,0.01550
1553.36978,0.01513
1551.30960,0.01476
1549.24943,0.01447
1547.18926,0.01427
1545.12909,0.01420
1543.06892,0.01432
1541.00874,0.01459
1538.94857,0.01479
1536.88840,0.01478
1534.82823,0.01469
1532.76805,0.01468
1530.70788,0.01468
1528.64771,0.01463
1526.58754,0.01457
1524.52737,0.01447
1522.46719,0.01432
1520.40702,0.01426
1518.34685,0.01436
1516.28668,0.01450
1514.22651,0.01453
1512.16633,0.01444
1510.10616,0.01437
1508.04599,0.01437
1505.98582,0.01440
1503.92565,0.01432
1501.86547,0.01418
1499.80530,0.01416
1497.74513,0.01426
1495.68496,0.01433
1493.62478,0.01429
1491.56461,0.01425
1489.50444,0.01425
1487.44427,0.01428
1485.38410,0.01432
1483.32392,0.01435
1481.26375,0.01441
1479.20358,0.01449
1477.14341,0.01447
1475.08324,0.01435
1473.02306,0.01435
1470.96289,0.01458
1468.90272,0.01475
1466.84255,0.01474
1464.78238,0.01473
1462.72220,0.01478
1460.66203,0.01484
1458.60186,0.01491
1456.54169,0.01499
1454.48151,0.01496
1452.42134,0.01489
1450.36117,0.01491
1448.30100,0.01502
1446.24083,0.01508
1444.18065,0.01508
1442.12048,0.01510
1440.06031,0.01517
1438.00014,0.01520
1435.93997,0.01517
1433.87979,0.01512
1431.81962,0.01505
1429.75945,0.01504
1427.69928,0.01511
1425.63910,0.01522
1423.57893,0.01530
1421.51876,0.01535
1419.45859,0.01550
1417.39842,0.01570
1415.33824,0.01574
1413.27807,0.01565
1411.21790,0.01559
1409.15773,0.01562
1407.09756,0.01567
1405.03738,0.01573
1402.97721,0.01578
1400.91704,0.01577
1398.85687,0.01571
1396.79670,0.01570
1394.73652,0.01572
1392.67635,0.01564
1390.61618,0.01554
1388.55601,0.01561
1386.49583,0.01581
1384.43566,0.01594
1382.37549,0.01593
1380.31532,0.01588
1378.25515,0.01585
1376.19497,0.01582
1374.13480,0.01581
1372.07463,0.01587
1370.01446,0.01592
1367.95429,0.01592
1365.89411,0.01594
1363.83394,0.01600
1361.77377,0.01600
1359.71360,0.01588
1357.65343,0.01573
1355.59325,0.01571
1353.53308,0.01579
1351.47291,0.01586
1349.41274,0.01586
1347.35256,0.01585
1345.29239,0.01588
1343.23222,0.01591
1341.17205,0.01583
1339.11188,0.01572
1337.05170,0.01571
1334.99153,0.01575
1332.93136,0.01583
1330.87119,0.01595
1328.81102,0.01606
1326.75084,0.01609
1324.69067,0.01601
1322.63050,0.01595
1320.57033,0.01601
1318.51015,0.01613
1316.44998,0.01626
1314.38981,0.01636
1312.32964,0.01638
1310.26947,0.01635
1308.20929,0.01630
1306.14912,0.01622
1304.08895,0.01618
1302.02878,0.01624
1299.96861,0.01636
1297.90843,0.01647
1295.84826,0.01652
1293.78809,0.01652
1291.72792,0.01653
1289.66775,0.01660
1287.60757,0.01672
1285.54740,0.01675
1283.48723,0.01669
1281.42706,0.01669
1279.36688,0.01684
1277.30671,0.01698
1275.24654,0.01700
1273.18637,0.01699
1271.12620,0.01701
1269.06602,0.01695
1267.00585,0.01683
1264.94568,0.01680
1262.88551,0.01684
1260.82534,0.01687
1258.76516,0.01691
1256.70499,0.01695
1254.64482,0.01703
1252.58465,0.01714
1250.52447,0.01724
1248.46430,0.01729
1246.40413,0.01728
1244.34396,0.01721
1242.28379,0.01711
1240.22361,0.01702
1238.16344,0.01694
1236.10327,0.01692
1234.04310,0.01698
1231.98293,0.01700
1229.92275,0.01692
1227.86258,0.01682
1225.80241,0.01676
1223.74224,0.01671
1221.68207,0.01663
1219.62189,0.01649
1217.56172,0.01634
1215.50155,0.01630
1213.44138,0.01630
1211.38120,0.01634
1209.32103,0.01644
1207.26086,0.01645
1205.20069,0.01636
1203.14052,0.01629
1201.08034,0.01628
1199.02017,0.01631
1196.96000,0.01630
1194.89983,0.01625
1192.83966,0.01630
1190.77948,0.01646
1188.71931,0.01662
1186.65914,0.01673
1184.59897,0.01689
1182.53880,0.01712
1180.47862,0.01732
1178.41845,0.01737
1176.35828,0.01743
1174.29811,0.01764
1172.23793,0.01798
1170.17776,0.01824
1168.11759,0.01838
1166.05742,0.01858
1163.99725,0.01886
1161.93707,0.01907
1159.87690,0.01931
1157.81673,0.01966
1155.75656,0.02001
1153.69639,0.02037
1151.63621,0.02076
1149.57604,0.02113
1147.51587,0.02156
1145.45570,0.02207
1143.39552,0.02256
1141.33535,0.02303
1139.27518,0.02348
1137.21501,0.02395
1135.15484,0.02442
1133.09466,0.02483
1131.03449,0.02519
1128.97432,0.02556
1126.91415,0.02591
1124.85398,0.02630
1122.79380,0.02686
1120.73363,0.02745
1118.67346,0.02782
1116.61329,0.02805
1114.55312,0.02831
1112.49294,0.02859
1110.43277,0.02894
1108.37260,0.02939
1106.31243,0.02978
1104.25225,0.03014
1102.19208,0.03052
1100.13191,0.03084
1098.07174,0.03106
1096.01157,0.03123
1093.95139,0.03141
1091.89122,0.03164
1089.83105,0.03190
1087.77088,0.03212
1085.71071,0.03227
1083.65053,0.03241
1081.59036,0.03262
1079.53019,0.03289
1077.47002,0.03314
1075.40985,0.03328
1073.34967,0.03330
1071.28950,0.03332
1069.22933,0.03340
1067.16916,0.03346
1065.10898,0.03339
1063.04881,0.03310
1060.98864,0.03275
1058.92847,0.03247
1056.86830,0.03217
1054.80812,0.03173
1052.74795,0.03126
1050.68778,0.03081
1048.62761,0.03026
1046.56744,0.02962
1044.50726,0.02911
1042.44709,0.02870
1040.38692,0.02822
1038.32675,0.02764
1036.26657,0.02708
1034.20640,0.02663
1032.14623,0.02621
1030.08606,0.02578
1028.02589,0.02532
1025.96571,0.02486
1023.90554,0.02444
1021.84537,0.02402
1019.78520,0.02370
1017.72503,0.02347
1015.66485,0.02338
1013.60468,0.02361
1011.54451,0.02403
1009.48434,0.02434
1007.42417,0.02446
1005.36399,0.02456
1003.30382,0.02486
1001.24365,0.02539
999.18348,0.02590
997.12330,0.02627
995.06313,0.02654
993.00296,0.02678
990.94279,0.02705
988.88262,0.02739
986.82244,0.02765
984.76227,0.02786
982.70210,0.02802
980.64193,0.02803
978.58176,0.02807
976.52158,0.02814
974.46141,0.02794
972.40124,0.02761
970.34107,0.02745
968.28089,0.02733
966.22072,0.02710
964.16055,0.02681
962.10038,0.02648
960.04021,0.02617
957.98003,0.02586
955.91986,0.02543
953.85969,0.02497
951.79952,0.02460
949.73935,0.02428
947.67917,0.02396
945.61900,0.02364
943.55883,0.02350
941.49866,0.02341
939.43849,0.02310
937.37831,0.02279
935.31814,0.02256
933.25797,0.02237
931.19780,0.02227
929.13762,0.02218
927.07745,0.02201
925.01728,0.02192
922.95711,0.02205
920.89694,0.02218
918.83676,0.02207
916.77659,0.02178
914.71642,0.02156
912.65625,0.02150
910.59608,0.02150
908.53590,0.02146
906.47573,0.02137
904.41556,0.02139
902.35539,0.02159
900.29522,0.02168
898.23504,0.02172
896.17487,0.02192
894.11470,0.02212
892.05453,0.02219
889.99435,0.02231
887.93418,0.02268
885.87401,0.02302
883.81384,0.02302
881.75367,0.02292
879.69349,0.02299
877.63332,0.02325
875.57315,0.02351
873.51298,0.02363
871.45281,0.02370
869.39263,0.02384
867.33246,0.02404
865.27229,0.02433
863.21212,0.02467
861.15194,0.02492
859.09177,0.02503
857.03160,0.02506
854.97143,0.02501
852.91126,0.02486
850.85108,0.02468
848.79091,0.02464
846.73074,0.02475
844.67057,0.02492
842.61040,0.02497
840.55022,0.02465
838.49005,0.02412
836.42988,0.02371
834.36971,0.02350
832.30954,0.02346
830.24936,0.02349
828.18919,0.02330
826.12902,0.02313
824.06885,0.02327
822.00867,0.02324
819.94850,0.02298
817.88833,0.02277
815.82816,0.02244
813.76799,0.02202
811.70781,0.02164
809.64764,0.02151
807.58747,0.02187
805.52730,0.02235
803.46713,0.02251
801.40695,0.02261
799.34678,0.02273
797.28661,0.02269
795.22644,0.02258
793.16627,0.02238
791.10609,0.02195
789.04592,0.02148
786.98575,0.02127
784.92558,0.02152
782.86540,0.02196
780.80523,0.02203
778.74506,0.02186
776.68489,0.02184
774.62472,0.02191
772.56454,0.02198
770.50437,0.02208
768.44420,0.02205
766.38403,0.02191
764.32386,0.02186
762.26368,0.02183
760.20351,0.02178
758.14334,0.02156
756.08317,0.02130
754.02299,0.02144
751.96282,0.02194
749.90265,0.02233
747.84248,0.02234
745.78231,0.02205
743.72213,0.02183
741.66196,0.02191
739.60179,0.02203
737.54162,0.02207
735.48145,0.02218
733.42127,0.02207
731.36110,0.02165
729.30093,0.02132
727.24076,0.02151
725.18059,0.02202
723.12041,0.02173
721.06024,0.02203
719.00007,0.02064
716.93990,0.02121
714.87972,0.02143
712.81955,0.02139
710.75938,0.02141
708.69921,0.02136
706.63904,0.02148
704.57886,0.02161
702.51869,0.02148
700.45852,0.02089
698.39835,0.02017
696.33818,0.01954
694.27800,0.01885
692.21783,0.01829
690.15766,0.01778
688.09749,0.01716
686.03731,0.01686
683.97714,0.01706
681.91697,0.01707
679.85680,0.01658
677.79663,0.01645
675.73645,0.01777
673.67628,0.01777
671.61611,0.00652
669.55594,0.00000
667.49577,0.03021
665.43559,0.00978
663.37542,0.01186
661.31525,0.01572
659.25508,0.01461
657.19491,0.01325
655.13473,0.01302
653.07456,0.01264
651.01439,0.01214
648.95422,0.01283
646.89404,0.01245
644.83387,0.01195
642.77370,0.01091
640.71353,0.00992
638.65336,0.00942
636.59318,0.00896
634.53301,0.00861
632.47284,0.00882
630.41267,0.00909
628.35250,0.00894
626.29232,0.00804
624.23215,0.00677
622.17198,0.00537
620.11181,0.00490
618.05164,0.00537
615.99146,0.00517
613.93129,0.00429
611.87112,0.00321
609.81095,0.00151
607.75077,0.00005
605.69060,-0.00032
603.63043,-0.00021
601.57026,-0.00017
599.51009,0.00000
