3996.73391,0.00058
3994.67373,0.00060
3992.61356,0.00073
3990.55339,0.00094
3988.49322,0.00102
3986.43305,0.00083
3984.37287,0.00042
3982.31270,0.00008
3980.25253,0.00000
3978.19236,0.00009
3976.13219,0.00030
3974.07201,0.00055
3972.01184,0.00068
3969.95167,0.00072
3967.89150,0.00079
3965.83133,0.00081
3963.77115,0.00066
3961.71098,0.00035
3959.65081,0.00012
3957.59064,0.00024
3955.53046,0.00057
3953.47029,0.00075
3951.41012,0.00067
3949.34995,0.00053
3947.28978,0.00059
3945.22960,0.00086
3943.16943,0.00114
3941.10926,0.00124
3939.04909,0.00111
3936.98892,0.00087
3934.92874,0.00076
3932.86857,0.00076
3930.80840,0.00081
3928.74823,0.00086
3926.68805,0.00082
3924.62788,0.00069
3922.56771,0.00064
3920.50754,0.00063
3918.44737,0.00048
3916.38719,0.00039
3914.32702,0.00059
3912.26685,0.00088
3910.20668,0.00103
3908.14651,0.00111
3906.08633,0.00111
3904.02616,0.00079
3901.96599,0.00037
3899.90582,0.00022
3897.84565,0.00018
3895.78547,0.00031
3893.72530,0.00069
3891.66513,0.00096
3889.60496,0.00081
3887.54478,0.00052
3885.48461,0.00037
3883.42444,0.00033
3881.36427,0.00031
3879.30410,0.00023
3877.24392,0.00027
3875.18375,0.00047
3873.12358,0.00073
3871.06341,0.00088
3869.00324,0.00085
3866.94306,0.00080
3864.88289,0.00077
3862.82272,0.00061
3860.76255,0.00040
3858.70237,0.00025
3856.64220,0.00025
3854.58203,0.00057
3852.52186,0.00081
3850.46169,0.00069
3848.40151,0.00067
3846.34134,0.00099
3844.28117,0.00115
3842.22100,0.00081
3840.16083,0.00039
3838.10065,0.00014
3836.04048,0.00000
3833.98031,0.00012
3831.92014,0.00046
3829.85997,0.00069
3827.79979,0.00066
3825.73962,0.00048
3823.67945,0.00047
3821.61928,0.00070
3819.55910,0.00086
3817.49893,0.00092
3815.43876,0.00089
3813.37859,0.00071
3811.31842,0.00057
3809.25824,0.00069
3807.19807,0.00082
3805.13790,0.00076
3803.07773,0.00081
3801.01756,0.00093
3798.95738,0.00088
3796.89721,0.00087
3794.83704,0.00107
3792.77687,0.00130
3790.71670,0.00132
3788.65652,0.00119
3786.59635,0.00121
3784.53618,0.00144
3782.47601,0.00163
3780.41583,0.00159
3778.35566,0.00132
3776.29549,0.00117
3774.23532,0.00137
3772.17515,0.00170
3770.11497,0.00180
3768.05480,0.00158
3765.99463,0.00125
3763.93446,0.00104
3761.87429,0.00101
3759.81411,0.00091
3757.75394,0.00064
3755.69377,0.00058
3753.63360,0.00097
3751.57342,0.00130
3749.51325,0.00089
3747.45308,0.00026
3745.39291,0.00000
3743.33274,0.00000
3741.27256,0.00015
3739.21239,0.00049
3737.15222,0.00086
3735.09205,0.00095
3733.03188,0.00088
3730.97170,0.00094
3728.91153,0.00084
3726.85136,0.00052
3724.79119,0.00032
3722.73102,0.00042
3720.67084,0.00071
3718.61067,0.00076
3716.55050,0.00069
3714.49033,0.00064
3712.43015,0.00044
3710.36998,0.00038
3708.30981,0.00057
3706.24964,0.00086
3704.18947,0.00095
3702.12929,0.00082
3700.06912,0.00072
3698.00895,0.00084
3695.94878,0.00115
3693.88861,0.00138
3691.82843,0.00150
3689.76826,0.00117
3687.70809,0.00053
3685.64792,0.00030
3683.58775,0.00064
3681.52757,0.00105
3679.46740,0.00133
3677.40723,0.00139
3675.34706,0.00113
3673.28688,0.00081
3671.22671,0.00079
3669.16654,0.00088
3667.10637,0.00091
3665.04620,0.00096
3662.98602,0.00109
3660.92585,0.00120
3658.86568,0.00112
3656.80551,0.00095
3654.74534,0.00105
3652.68516,0.00164
3650.62499,0.00243
3648.56482,0.00280
3646.50465,0.00270
3644.44447,0.00236
3642.38430,0.00208
3640.32413,0.00192
3638.26396,0.00194
3636.20379,0.00222
3634.14361,0.00265
3632.08344,0.00311
3630.02327,0.00335
3627.96310,0.00306
3625.90293,0.00264
3623.84275,0.00266
3621.78258,0.00284
3619.72241,0.00281
3617.66224,0.00269
3615.60207,0.00266
3613.54189,0.00282
3611.48172,0.00288
3609.42155,0.00296
3607.36138,0.00329
3605.30120,0.00364
3603.24103,0.00389
3601.18086,0.00410
3599.12069,0.00441
3597.06052,0.00467
3595.00034,0.00492
3592.94017,0.00518
3590.88000,0.00553
3588.81983,0.00557
3586.75966,0.00510
3584.69948,0.00462
3582.63931,0.00464
3580.57914,0.00498
3578.51897,0.00537
3576.45879,0.00573
3574.39862,0.00595
3572.33845,0.00604
3570.27828,0.00608
3568.21811,0.00605
3566.15793,0.00597
3564.09776,0.00595
3562.03759,0.00604
3559.97742,0.00630
3557.91725,0.00663
3555.85707,0.00683
3553.79690,0.00690
3551.73673,0.00695
3549.67656,0.00688
3547.61639,0.00672
3545.55621,0.00675
3543.49604,0.00702
3541.43587,0.00726
3539.37570,0.00744
3537.31552,0.00765
3535.25535,0.00785
3533.19518,0.00807
3531.13501,0.00826
3529.07484,0.00823
3527.01466,0.00812
3524.95449,0.00817
3522.89432,0.00824
3520.83415,0.00826
3518.77398,0.00832
3516.71380,0.00829
3514.65363,0.00811
3512.59346,0.00807
3510.53329,0.00845
3508.47312,0.00911
3506.41294,0.00964
3504.35277,0.00981
3502.29260,0.00961
3500.23243,0.00945
3498.17225,0.00968
3496.11208,0.01009
3494.05191,0.01021
3491.99174,0.01003
3489.93157,0.00992
3487.87139,0.00999
3485.81122,0.01017
3483.75105,0.01033
3481.69088,0.01033
3479.63071,0.01020
3477.57053,0.01023
3475.51036,0.01048
3473.45019,0.01074
3471.39002,0.01100
3469.32984,0.01126
3467.26967,0.01141
3465.20950,0.01149
3463.14933,0.01164
3461.08916,0.01170
3459.02898,0.01159
3456.96881,0.01145
3454.90864,0.01142
3452.84847,0.01158
3450.78830,0.01188
3448.72812,0.01204
3446.66795,0.01201
3444.60778,0.01209
3442.54761,0.01237
3440.48744,0.01262
3438.42726,0.01266
3436.36709,0.01268
3434.30692,0.01278
3432.24675,0.01287
3430.18657,0.01290
3428.12640,0.01276
3426.06623,0.01259
3424.00606,0.01269
3421.94589,0.01296
3419.88571,0.01309
3417.82554,0.01311
3415.76537,0.01322
3413.70520,0.01347
3411.64503,0.01365
3409.58485,0.01354
3407.52468,0.01337
3405.46451,0.01341
3403.40434,0.01357
3401.34416,0.01366
3399.28399,0.01361
3397.22382,0.01378
3395.16365,0.01384
3393.10348,0.01386
3391.04330,0.01401
3388.98313,0.01410
3386.92296,0.01416
3384.86279,0.01426
3382.80262,0.01426
3380.74244,0.01425
3378.68227,0.01439
3376.62210,0.01446
3374.56193,0.01445
3372.50176,0.01454
3370.44158,0.01459
3368.38141,0.01448
3366.32124,0.01441
3364.26107,0.01449
3362.20089,0.01460
3360.14072,0.01475
3358.08055,0.01489
3356.02038,0.01493
3353.96021,0.01498
3351.90003,0.01501
3349.83986,0.01490
3347.77969,0.01486
3345.71952,0.01513
3343.65935,0.01545
3341.59917,0.01559
3339.53900,0.01557
3337.47883,0.01548
3335.41866,0.01548
3333.35849,0.01556
3331.29831,0.01561
3329.23814,0.01560
3327.17797,0.01557
3325.11780,0.01559
3323.05762,0.01567
3320.99745,0.01572
3318.93728,0.01570
3316.87711,0.01559
3314.81694,0.01543
3312.75676,0.01538
3310.69659,0.01547
3308.63642,0.01563
3306.57625,0.01578
3304.51608,0.01595
3302.45590,0.01611
3300.39573,0.01612
3298.33556,0.01607
3296.27539,0.01615
3294.21521,0.01626
3292.15504,0.01625
3290.09487,0.01617
3288.03470,0.01618
3285.97453,0.01628
3283.91435,0.01634
3281.85418,0.01632
3279.79401,0.01618
3277.73384,0.01601
3275.67367,0.01604
3273.61349,0.01620
3271.55332,0.01624
3269.49315,0.01624
3267.43298,0.01628
3265.37281,0.01630
3263.31263,0.01631
3261.25246,0.01631
3259.19229,0.01631
3257.13212,0.01624
3255.07194,0.01624
3253.01177,0.01644
3250.95160,0.01660
3248.89143,0.01656
3246.83126,0.01657
3244.77108,0.01670
3242.71091,0.01679
3240.65074,0.01683
3238.59057,0.01680
3236.53040,0.01669
3234.47022,0.01653
3232.41005,0.01641
3230.34988,0.01642
3228.28971,0.01651
3226.22954,0.01654
3224.16936,0.01652
3222.10919,0.01651
3220.04902,0.01651
3217.98885,0.01646
3215.92867,0.01637
3213.86850,0.01639
3211.80833,0.01648
3209.74816,0.01662
3207.68799,0.01673
3205.62781,0.01670
3203.56764,0.01665
3201.50747,0.01653
3199.44730,0.01626
3197.38713,0.01616
3195.32695,0.01634
3193.26678,0.01644
3191.20661,0.01638
3189.14644,0.01632
3187.08626,0.01631
3185.02609,0.01628
3182.96592,0.01629
3180.90575,0.01643
3178.84558,0.01649
3176.78540,0.01642
3174.72523,0.01643
3172.66506,0.01653
3170.60489,0.01651
3168.54472,0.01638
3166.48454,0.01622
3164.42437,0.01606
3162.36420,0.01602
3160.30403,0.01609
3158.24386,0.01603
3156.18368,0.01590
3154.12351,0.01599
3152.06334,0.01610
3150.00317,0.01606
3147.94299,0.01607
3145.88282,0.01623
3143.82265,0.01627
3141.76248,0.01613
3139.70231,0.01609
3137.64213,0.01624
3135.58196,0.01640
3133.52179,0.01643
3131.46162,0.01633
3129.40145,0.01613
3127.34127,0.01585
3125.28110,0.01560
3123.22093,0.01549
3121.16076,0.01545
3119.10058,0.01545
3117.04041,0.01544
3114.98024,0.01532
3112.92007,0.01519
3110.85990,0.01516
3108.79972,0.01527
3106.73955,0.01540
3104.67938,0.01529
3102.61921,0.01503
3100.55904,0.01486
3098.49886,0.01480
3096.43869,0.01481
3094.37852,0.01491
3092.31835,0.01495
3090.25818,0.01479
3088.19800,0.01453
3086.13783,0.01430
3084.07766,0.01417
3082.01749,0.01428
3079.95731,0.01449
3077.89714,0.01463
3075.83697,0.01472
3073.77680,0.01473
3071.71663,0.01455
3069.65645,0.01420
3067.59628,0.01397
3065.53611,0.01411
3063.47594,0.01435
3061.41577,0.01436
3059.35559,0.01427
3057.29542,0.01416
3055.23525,0.01411
3053.17508,0.01419
3051.11491,0.01416
3049.05473,0.01396
3046.99456,0.01379
3044.93439,0.01372
3042.87422,0.01362
3040.81404,0.01358
3038.75387,0.01360
3036.69370,0.01350
3034.63353,0.01334
3032.57336,0.01326
3030.51318,0.01330
3028.45301,0.01335
3026.39284,0.01328
3024.33267,0.01315
3022.27250,0.01312
3020.21232,0.01316
3018.15215,0.01305
3016.09198,0.01276
3014.03181,0.01259
3011.97163,0.01266
3009.91146,0.01277
3007.85129,0.01262
3005.79112,0.01234
3003.73095,0.01224
3001.67077,0.01226
2999.61060,0.01233
2997.55043,0.01234
2995.49026,0.01223
2993.43009,0.01206
2991.36991,0.01200
2989.30974,0.01209
2987.24957,0.01221
2985.18940,0.01220
2983.12923,0.01219
2981.06905,0.01225
2979.00888,0.01219
2976.94871,0.01203
2974.88854,0.01194
2972.82836,0.01191
2970.76819,0.01186
2968.70802,0.01186
2966.64785,0.01192
2964.58768,0.01190
2962.52750,0.01177
2960.46733,0.01158
2958.40716,0.01151
2956.34699,0.01162
2954.28682,0.01184
2952.22664,0.01189
2950.16647,0.01173
2948.10630,0.01163
2946.04613,0.01166
2943.98596,0.01173
2941.92578,0.01180
2939.86561,0.01182
2937.80544,0.01178
2935.74527,0.01175
2933.68509,0.01169
2931.62492,0.01152
2929.56475,0.01136
2927.50458,0.01138
2925.44441,0.01145
2923.38423,0.01138
2921.32406,0.01136
2919.26389,0.01150
2917.20372,0.01152
2915.14355,0.01128
2913.08337,0.01100
2911.02320,0.01095
2908.96303,0.01100
2906.90286,0.01091
2904.84268,0.01074
2902.78251,0.01062
2900.72234,0.01052
2898.66217,0.01038
2896.60200,0.01028
2894.54182,0.01023
2892.48165,0.01008
2890.42148,0.00993
2888.36131,0.01001
2886.30114,0.01019
2884.24096,0.01033
2882.18079,0.01043
2880.12062,0.01039
2878.06045,0.01018
2876.00028,0.00998
2873.94010,0.00997
2871.87993,0.01006
2869.81976,0.01002
2867.75959,0.00984
2865.69941,0.00969
2863.63924,0.00965
2861.57907,0.00972
2859.51890,0.00973
2857.45873,0.00956
2855.39855,0.00934
2853.33838,0.00927
2851.27821,0.00929
2849.21804,0.00922
2847.15787,0.00909
2845.09769,0.00902
2843.03752,0.00899
2840.97735,0.00896
2838.91718,0.00893
2836.85700,0.00887
2834.79683,0.00870
2832.73666,0.00846
2830.67649,0.00833
2828.61632,0.00840
2826.55614,0.00847
2824.49597,0.00839
2822.43580,0.00828
2820.37563,0.00823
2818.31546,0.00816
2816.25528,0.00814
2814.19511,0.00822
2812.13494,0.00827
2810.07477,0.00815
2808.01460,0.00801
2805.95442,0.00789
2803.89425,0.00777
2801.83408,0.00771
2799.77391,0.00770
2797.71373,0.00775
2795.65356,0.00781
2793.59339,0.00782
2791.53322,0.00771
2789.47305,0.00755
2787.41287,0.00735
2785.35270,0.00720
2783.29253,0.00717
2781.23236,0.00717
2779.17219,0.00715
2777.11201,0.00714
2775.05184,0.00704
2772.99167,0.00688
2770.93150,0.00680
2768.87133,0.00683
2766.81115,0.00688
2764.75098,0.00688
2762.69081,0.00672
2760.63064,0.00653
2758.57046,0.00653
2756.51029,0.00671
2754.45012,0.00682
2752.38995,0.00671
2750.32978,0.00665
2748.26960,0.00673
2746.20943,0.00668
2744.14926,0.00653
2742.08909,0.00650
2740.02892,0.00661
2737.96874,0.00659
2735.90857,0.00643
2733.84840,0.00635
2731.78823,0.00627
2729.72805,0.00613
2727.66788,0.00603
2725.60771,0.00596
2723.54754,0.00589
2721.48737,0.00580
2719.42719,0.00578
2717.36702,0.00585
2715.30685,0.00591
2713.24668,0.00592
2711.18651,0.00596
2709.12633,0.00603
2707.06616,0.00603
2705.00599,0.00593
2702.94582,0.00574
2700.88565,0.00555
2698.82547,0.00543
2696.76530,0.00540
2694.70513,0.00552
2692.64496,0.00559
2690.58478,0.00543
2688.52461,0.00525
2686.46444,0.00527
2684.40427,0.00540
2682.34410,0.00544
2680.28392,0.00541
2678.22375,0.00540
2676.16358,0.00543
2674.10341,0.00539
2672.04324,0.00517
2669.98306,0.00498
2667.92289,0.00513
2665.86272,0.00534
2663.80255,0.00524
2661.74238,0.00510
2659.68220,0.00509
2657.62203,0.00505
2655.56186,0.00505
2653.50169,0.00513
2651.44151,0.00503
2649.38134,0.00484
2647.32117,0.00477
2645.26100,0.00470
2643.20083,0.00454
2641.14065,0.00444
2639.08048,0.00450
2637.02031,0.00462
2634.96014,0.00464
2632.89997,0.00458
2630.83979,0.00451
2628.77962,0.00442
2626.71945,0.00431
2624.65928,0.00427
2622.59910,0.00422
2620.53893,0.00405
2618.47876,0.00392
2616.41859,0.00406
2614.35842,0.00435
2612.29824,0.00437
2610.23807,0.00423
2608.17790,0.00414
2606.11773,0.00400
2604.05756,0.00388
2601.99738,0.00394
2599.93721,0.00404
2597.87704,0.00411
2595.81687,0.00425
2593.75670,0.00437
2591.69652,0.00426
2589.63635,0.00404
2587.57618,0.00383
2585.51601,0.00361
2583.45583,0.00349
2581.39566,0.00359
2579.33549,0.00384
2577.27532,0.00404
2575.21515,0.00392
2573.15497,0.00346
2571.09480,0.00314
2569.03463,0.00315
2566.97446,0.00321
2564.91429,0.00331
2562.85411,0.00353
2560.79394,0.00370
2558.73377,0.00381
2556.67360,0.00401
2554.61342,0.00426
2552.55325,0.00428
2550.49308,0.00402
2548.43291,0.00370
2546.37274,0.00350
2544.31256,0.00344
2542.25239,0.00339
2540.19222,0.00346
2538.13205,0.00371
2536.07188,0.00377
2534.01170,0.00350
2531.95153,0.00330
2529.89136,0.00335
2527.83119,0.00346
2525.77102,0.00357
2523.71084,0.00356
2521.65067,0.00341
2519.59050,0.00340
2517.53033,0.00349
2515.47015,0.00361
2513.40998,0.00383
2511.34981,0.00383
2509.28964,0.00370
2507.22947,0.00377
2505.16929,0.00372
2503.10912,0.00330
2501.04895,0.00296
2498.98878,0.00311
2496.92861,0.00344
2494.86843,0.00356
2492.80826,0.00340
2490.74809,0.00332
2488.68792,0.00346
2486.62775,0.00370
2484.56757,0.00387
2482.50740,0.00383
2480.44723,0.00378
2478.38706,0.00375
2476.32688,0.00364
2474.26671,0.00357
2472.20654,0.00351
2470.14637,0.00358
2468.08620,0.00386
2466.02602,0.00403
2463.96585,0.00414
2461.90568,0.00425
2459.84551,0.00420
2457.78534,0.00409
2455.72516,0.00399
2453.66499,0.00379
2451.60482,0.00366
2449.54465,0.00353
2447.48447,0.00333
2445.42430,0.00333
2443.36413,0.00354
2441.30396,0.00376
2439.24379,0.00386
2437.18361,0.00382
2435.12344,0.00387
2433.06327,0.00397
2431.00310,0.00383
2428.94293,0.00345
2426.88275,0.00322
2424.82258,0.00333
2422.76241,0.00355
2420.70224,0.00358
2418.64207,0.00345
2416.58189,0.00345
2414.52172,0.00372
2412.46155,0.00388
2410.40138,0.00385
2408.34120,0.00393
2406.28103,0.00395
2404.22086,0.00369
2402.16069,0.00348
2400.10052,0.00354
2398.04034,0.00319
2395.98017,0.00311
2393.92000,0.00337
2391.85983,0.00380
2389.79966,0.00418
2387.73948,0.00449
2385.67931,0.00474
2383.61914,0.00478
2381.55897,0.00452
2379.49880,0.00421
2377.43862,0.00404
2375.37845,0.00350
2373.31828,0.00350
2371.25811,0.00413
2369.19793,0.00443
2367.13776,0.00510
2365.07759,0.00663
2363.01742,0.00648
2360.95725,0.00718
2358.89707,0.00655
2356.83690,0.00605
2354.77673,0.00517
2352.71656,0.00450
2350.65639,0.00733
2348.59621,0.00961
2346.53604,0.00456
2344.47587,0.00373
2342.41570,0.00502
2340.35552,0.00610
2338.29535,0.00683
2336.23518,0.00693
2334.17501,0.00689
2332.11484,0.00619
2330.05466,0.00584
2327.99449,0.00555
2325.93432,0.00668
2323.87415,0.00606
2321.81398,0.00511
2319.75380,0.00401
2317.69363,0.00480
2315.63346,0.00497
2313.57329,0.00420
2311.51312,0.00377
2309.45294,0.00373
2307.39277,0.00392
2305.33260,0.00403
2303.27243,0.00397
2301.21225,0.00364
2299.15208,0.00368
2297.09191,0.00398
2295.03174,0.00434
2292.97157,0.00480
2290.91139,0.00505
2288.85122,0.00489
2286.79105,0.00440
2284.73088,0.00389
2282.67071,0.00360
2280.61053,0.00354
2278.55036,0.00356
2276.49019,0.00347
2274.43002,0.00336
2272.36984,0.00333
2270.30967,0.00336
2268.24950,0.00330
2266.18933,0.00326
2264.12916,0.00332
2262.06898,0.00339
2260.00881,0.00337
2257.94864,0.00340
2255.88847,0.00327
2253.82830,0.00282
2251.76812,0.00230
2249.70795,0.00194
2247.64778,0.00208
2245.58761,0.00233
2243.52744,0.00238
2241.46726,0.00233
2239.40709,0.00224
2237.34692,0.00234
2235.28675,0.00291
2233.22657,0.00323
2231.16640,0.00271
2229.10623,0.00216
2227.04606,0.00214
2224.98589,0.00231
2222.92571,0.00254
2220.86554,0.00268
2218.80537,0.00257
2216.74520,0.00282
2214.68503,0.00354
2212.62485,0.00365
2210.56468,0.00293
2208.50451,0.00236
2206.44434,0.00209
2204.38417,0.00198
2202.32399,0.00248
2200.26382,0.00286
2198.20365,0.00242
2196.14348,0.00191
2194.08330,0.00204
2192.02313,0.00263
2189.96296,0.00268
2187.90279,0.00221
2185.84262,0.00218
2183.78244,0.00243
2181.72227,0.00232
2179.66210,0.00199
2177.60193,0.00153
2175.54176,0.00145
2173.48158,0.00207
2171.42141,0.00260
2169.36124,0.00293
2167.30107,0.00326
2165.24089,0.00341
2163.18072,0.00306
2161.12055,0.00175
2159.06038,0.00031
2157.00021,0.00024
2154.94003,0.00108
2152.87986,0.00174
2150.81969,0.00161
2148.75952,0.00098
2146.69935,0.00114
2144.63917,0.00163
2142.57900,0.00155
2140.51883,0.00158
2138.45866,0.00153
2136.39849,0.00110
2134.33831,0.00076
2132.27814,0.00086
2130.21797,0.00136
2128.15780,0.00173
2126.09762,0.00165
2124.03745,0.00131
2121.97728,0.00092
2119.91711,0.00073
2117.85694,0.00076
2115.79676,0.00092
2113.73659,0.00141
2111.67642,0.00189
2109.61625,0.00191
2107.55608,0.00178
2105.49590,0.00171
2103.43573,0.00163
2101.37556,0.00151
2099.31539,0.00171
2097.25521,0.00193
2095.19504,0.00210
2093.13487,0.00218
2091.07470,0.00205
2089.01453,0.00181
2086.95435,0.00172
2084.89418,0.00164
2082.83401,0.00140
2080.77384,0.00124
2078.71367,0.00136
2076.65349,0.00167
2074.59332,0.00201
2072.53315,0.00218
2070.47298,0.00216
2068.41281,0.00213
2066.35263,0.00203
2064.29246,0.00203
2062.23229,0.00232
2060.17212,0.00238
2058.11194,0.00215
2056.05177,0.00193
2053.99160,0.00175
2051.93143,0.00199
2049.87126,0.00242
2047.81108,0.00233
2045.75091,0.00215
2043.69074,0.00227
2041.63057,0.00169
2039.57040,0.00055
2037.51022,0.00042
2035.45005,0.00132
2033.38988,0.00199
2031.32971,0.00205
2029.26954,0.00203
2027.20936,0.00188
2025.14919,0.00136
2023.08902,0.00104
2021.02885,0.00106
2018.96867,0.00136
2016.90850,0.00193
2014.84833,0.00238
2012.78816,0.00252
2010.72799,0.00242
2008.66781,0.00204
2006.60764,0.00165
2004.54747,0.00152
2002.48730,0.00138
2000.42713,0.00088
1998.36695,0.00046
1996.30678,0.00061
1994.24661,0.00076
1992.18644,0.00056
1990.12626,0.00067
1988.06609,0.00139
1986.00592,0.00203
1983.94575,0.00222
1981.88558,0.00254
1979.82540,0.00269
1977.76523,0.00188
1975.70506,0.00139
1973.64489,0.00189
1971.58472,0.00170
1969.52454,0.00091
1967.46437,0.00075
1965.40420,0.00060
1963.34403,0.00006
1961.28386,0.00000
1959.22368,0.00048
1957.16351,0.00089
1955.10334,0.00100
1953.04317,0.00088
1950.98299,0.00053
1948.92282,0.00019
1946.86265,0.00021
1944.80248,0.00050
1942.74231,0.00074
1940.68213,0.00076
1938.62196,0.00072
1936.56179,0.00083
1934.50162,0.00117
1932.44145,0.00144
1930.38127,0.00118
1928.32110,0.00058
1926.26093,0.00016
1924.20076,0.00012
1922.14059,0.00035
1920.08041,0.00046
1918.02024,0.00048
1915.96007,0.00077
1913.89990,0.00109
1911.83972,0.00097
1909.77955,0.00045
1907.71938,0.00005
1905.65921,0.00004
1903.59904,0.00022
1901.53886,0.00041
1899.47869,0.00075
1897.41852,0.00120
1895.35835,0.00132
1893.29818,0.00108
1891.23800,0.00096
1889.17783,0.00108
1887.11766,0.00109
1885.05749,0.00084
1882.99731,0.00058
1880.93714,0.00059
1878.87697,0.00079
1876.81680,0.00095
1874.75663,0.00096
1872.69645,0.00081
1870.63628,0.00065
1868.57611,0.00055
1866.51594,0.00042
1864.45577,0.00037
1862.39559,0.00049
1860.33542,0.00052
1858.27525,0.00037
1856.21508,0.00034
1854.15491,0.00055
1852.09473,0.00071
1850.03456,0.00073
1847.97439,0.00075
1845.91422,0.00071
1843.85404,0.00048
1841.79387,0.00027
1839.73370,0.00027
1837.67353,0.00039
1835.61336,0.00053
1833.55318,0.00077
1831.49301,0.00109
1829.43284,0.00115
1827.37267,0.00093
1825.31250,0.00083
1823.25232,0.00095
1821.19215,0.00094
1819.13198,0.00069
1817.07181,0.00047
1815.01163,0.00042
1812.95146,0.00033
1810.89129,0.00018
1808.83112,0.00018
1806.77095,0.00023
1804.71077,0.00018
1802.65060,0.00015
1800.59043,0.00035
1798.53026,0.00063
1796.47009,0.00079
1794.40991,0.00080
1792.34974,0.00069
1790.28957,0.00056
1788.22940,0.00056
1786.16923,0.00058
1784.10905,0.00065
1782.04888,0.00083
1779.98871,0.00091
1777.92854,0.00082
1775.86836,0.00086
1773.80819,0.00104
1771.74802,0.00091
1769.68785,0.00046
1767.62768,0.00017
1765.56750,0.00020
1763.50733,0.00039
1761.44716,0.00059
1759.38699,0.00077
1757.32682,0.00097
1755.26664,0.00119
1753.20647,0.00142
1751.14630,0.00151
1749.08613,0.00137
1747.02596,0.00131
1744.96578,0.00148
1742.90561,0.00162
1740.84544,0.00160
1738.78527,0.00153
1736.72509,0.00156
1734.66492,0.00161
1732.60475,0.00153
1730.54458,0.00146
1728.48441,0.00142
1726.42423,0.00148
1724.36406,0.00161
1722.30389,0.00174
1720.24372,0.00196
1718.18355,0.00226
1716.12337,0.00225
1714.06320,0.00199
1712.00303,0.00175
1709.94286,0.00170
1707.88268,0.00183
1705.82251,0.00202
1703.76234,0.00218
1701.70217,0.00234
1699.64200,0.00239
1697.58182,0.00239
1695.52165,0.00244
1693.46148,0.00258
1691.40131,0.00285
1689.34114,0.00324
1687.28096,0.00372
1685.22079,0.00415
1683.16062,0.00419
1681.10045,0.00418
1679.04028,0.00449
1676.98010,0.00506
1674.91993,0.00567
1672.85976,0.00617
1670.79959,0.00655
1668.73941,0.00666
1666.67924,0.00664
1664.61907,0.00673
1662.55890,0.00675
1660.49873,0.00666
1658.43855,0.00681
1656.37838,0.00738
1654.31821,0.00786
1652.25804,0.00762
1650.19787,0.00744
1648.13769,0.00759
1646.07752,0.00752
1644.01735,0.00726
1641.95718,0.00714
1639.89701,0.00729
1637.83683,0.00755
1635.77666,0.00741
1633.71649,0.00681
1631.65632,0.00644
1629.59614,0.00640
1627.53597,0.00641
1625.47580,0.00636
1623.41563,0.00623
1621.35546,0.00601
1619.29528,0.00597
1617.23511,0.00594
1615.17494,0.00562
1613.11477,0.00534
1611.05460,0.00534
1608.99442,0.00546
1606.93425,0.00556
1604.87408,0.00555
1602.81391,0.00537
1600.75373,0.00511
1598.69356,0.00497
1596.63339,0.00500
1594.57322,0.00506
1592.51305,0.00495
1590.45287,0.00471
1588.39270,0.00450
1586.33253,0.00434
1584.27236,0.00417
1582.21219,0.00405
1580.15201,0.00407
1578.09184,0.00409
1576.03167,0.00384
1573.97150,0.00349
1571.91133,0.00345
1569.85115,0.00352
1567.79098,0.00342
1565.73081,0.00335
1563.67064,0.00357
1561.61046,0.00415
1559.55029,0.00438
1557.49012,0.00352
1555.42995,0.00275
1553.36978,0.00253
1551.30960,0.00253
1549.24943,0.00254
1547.18926,0.00264
1545.12909,0.00289
1543.06892,0.00317
1541.00874,0.00312
1538.94857,0.00250
1536.88840,0.00199
1534.82823,0.00192
1532.76805,0.00196
1530.70788,0.00192
1528.64771,0.00193
1526.58754,0.00196
1524.52737,0.00196
1522.46719,0.00175
1520.40702,0.00132
1518.34685,0.00115
1516.28668,0.00121
1514.22651,0.00118
1512.16633,0.00112
1510.10616,0.00121
1508.04599,0.00124
1505.98582,0.00090
1503.92565,0.00064
1501.86547,0.00079
1499.80530,0.00117
1497.74513,0.00137
1495.68496,0.00124
1493.62478,0.00114
1491.56461,0.00125
1489.50444,0.00133
1487.44427,0.00120
1485.38410,0.00097
1483.32392,0.00086
1481.26375,0.00090
1479.20358,0.00102
1477.14341,0.00117
1475.08324,0.00132
1473.02306,0.00130
1470.96289,0.00117
1468.90272,0.00121
1466.84255,0.00143
1464.78238,0.00159
1462.72220,0.00165
1460.66203,0.00187
1458.60186,0.00209
1456.54169,0.00183
1454.48151,0.00141
1452.42134,0.00132
1450.36117,0.00152
1448.30100,0.00170
1446.24083,0.00169
1444.18065,0.00164
1442.12048,0.00169
1440.06031,0.00176
1438.00014,0.00175
1435.93997,0.00161
1433.87979,0.00152
1431.81962,0.00156
1429.75945,0.00166
1427.69928,0.00177
1425.63910,0.00193
1423.57893,0.00204
1421.51876,0.00202
1419.45859,0.00186
1417.39842,0.00170
1415.33824,0.00172
1413.27807,0.00187
1411.21790,0.00200
1409.15773,0.00206
1407.09756,0.00208
1405.03738,0.00199
1402.97721,0.00191
1400.91704,0.00195
1398.85687,0.00194
1396.79670,0.00177
1394.73652,0.00161
1392.67635,0.00154
1390.61618,0.00155
1388.55601,0.00158
1386.49583,0.00159
1384.43566,0.00161
1382.37549,0.00163
1380.31532,0.00168
1378.25515,0.00180
1376.19497,0.00195
1374.13480,0.00201
1372.07463,0.00192
1370.01446,0.00176
1367.95429,0.00163
1365.89411,0.00159
1363.83394,0.00154
1361.77377,0.00140
1359.71360,0.00137
1357.65343,0.00152
1355.59325,0.00166
1353.53308,0.00168
1351.47291,0.00162
1349.41274,0.00156
1347.35256,0.00152
1345.29239,0.00148
1343.23222,0.00143
1341.17205,0.00130
1339.11188,0.00111
1337.05170,0.00105
1334.99153,0.00116
1332.93136,0.00131
1330.87119,0.00139
1328.81102,0.00139
1326.75084,0.00136
1324.69067,0.00133
1322.63050,0.00139
1320.57033,0.00151
1318.51015,0.00153
1316.44998,0.00147
1314.38981,0.00141
1312.32964,0.00134
1310.26947,0.00135
1308.20929,0.00148
1306.14912,0.00162
1304.08895,0.00171
1302.02878,0.00171
1299.96861,0.00170
1297.90843,0.00185
1295.84826,0.00209
1293.78809,0.00218
1291.72792,0.00211
1289.66775,0.00203
1287.60757,0.00197
1285.54740,0.00194
1283.48723,0.00196
1281.42706,0.00196
1279.36688,0.00191
1277.30671,0.00194
1275.24654,0.00204
1273.18637,0.00207
1271.12620,0.00198
1269.06602,0.00191
1267.00585,0.00185
1264.94568,0.00184
1262.88551,0.00196
1260.82534,0.00208
1258.76516,0.00211
1256.70499,0.00208
1254.64482,0.00204
1252.58465,0.00200
1250.52447,0.00196
1248.46430,0.00187
1246.40413,0.00175
1244.34396,0.00162
1242.28379,0.00154
1240.22361,0.00160
1238.16344,0.00167
1236.10327,0.00159
1234.04310,0.00144
1231.98293,0.00136
1229.92275,0.00135
1227.86258,0.00131
1225.80241,0.00123
1223.74224,0.00114
1221.68207,0.00105
1219.62189,0.00087
1217.56172,0.00062
1215.50155,0.00052
1213.44138,0.00059
1211.38120,0.00060
1209.32103,0.00051
1207.26086,0.00039
1205.20069,0.00026
1203.14052,0.00022
1201.08034,0.00023
1199.02017,0.00011
1196.96000,0.00000
1194.89983,0.00011
1192.83966,0.00033
1190.77948,0.00041
1188.71931,0.00036
1186.65914,0.00032
1184.59897,0.00039
1182.53880,0.00047
1180.47862,0.00063
1178.41845,0.00095
1176.35828,0.00132
1174.29811,0.00162
1172.23793,0.00182
1170.17776,0.00191
1168.11759,0.00202
1166.05742,0.00221
1163.99725,0.00244
1161.93707,0.00274
1159.87690,0.00306
1157.81673,0.00336
1155.75656,0.00365
1153.69639,0.00404
1151.63621,0.00441
1149.57604,0.00468
1147.51587,0.00509
1145.45570,0.00564
1143.39552,0.00609
1141.33535,0.00647
1139.27518,0.00687
1137.21501,0.00723
1135.15484,0.00762
1133.09466,0.00815
1131.03449,0.00875
1128.97432,0.00924
1126.91415,0.00979
1124.85398,0.01060
1122.79380,0.01139
1120.73363,0.01203
1118.67346,0.01269
1116.61329,0.01343
1114.55312,0.01416
1112.49294,0.01481
1110.43277,0.01537
1108.37260,0.01594
1106.31243,0.01657
1104.25225,0.01720
1102.19208,0.01783
1100.13191,0.01845
1098.07174,0.01894
1096.01157,0.01935
1093.95139,0.01974
1091.89122,0.02007
1089.83105,0.02051
1087.77088,0.02107
1085.71071,0.02146
1083.65053,0.02173
1081.59036,0.02217
1079.53019,0.02273
1077.47002,0.02312
1075.40985,0.02330
1073.34967,0.02345
1071.28950,0.02369
1069.22933,0.02402
1067.16916,0.02432
1065.10898,0.02447
1063.04881,0.02442
1060.98864,0.02428
1058.92847,0.02410
1056.86830,0.02382
1054.80812,0.02338
1052.74795,0.02282
1050.68778,0.02221
1048.62761,0.02162
1046.56744,0.02093
1044.50726,0.02017
1042.44709,0.01936
1040.38692,0.01844
1038.32675,0.01746
1036.26657,0.01655
1034.20640,0.01569
1032.14623,0.01484
1030.08606,0.01403
1028.02589,0.01331
1025.96571,0.01265
1023.90554,0.01202
1021.84537,0.01144
1019.78520,0.01103
1017.72503,0.01074
1015.66485,0.01042
1013.60468,0.01020
1011.54451,0.01012
1009.48434,0.01006
1007.42417,0.01024
1005.36399,0.01072
1003.30382,0.01126
1001.24365,0.01181
999.18348,0.01241
997.12330,0.01300
995.06313,0.01343
993.00296,0.01383
990.94279,0.01434
988.88262,0.01483
986.82244,0.01524
984.76227,0.01562
982.70210,0.01597
980.64193,0.01617
978.58176,0.01633
976.52158,0.01658
974.46141,0.01653
972.40124,0.01603
970.34107,0.01558
968.28089,0.01539
966.22072,0.01505
964.16055,0.01448
962.10038,0.01401
960.04021,0.01363
957.98003,0.01306
955.91986,0.01235
953.85969,0.01175
951.79952,0.01135
949.73935,0.01100
947.67917,0.01055
945.61900,0.01000
943.55883,0.00940
941.49866,0.00886
939.43849,0.00842
937.37831,0.00809
935.31814,0.00787
933.25797,0.00757
931.19780,0.00715
929.13762,0.00684
927.07745,0.00674
925.01728,0.00656
922.95711,0.00612
920.89694,0.00576
918.83676,0.00569
916.77659,0.00567
914.71642,0.00549
912.65625,0.00522
910.59608,0.00497
908.53590,0.00479
906.47573,0.00473
904.41556,0.00472
902.35539,0.00478
900.29522,0.00488
898.23504,0.00489
896.17487,0.00502
894.11470,0.00534
892.05453,0.00552
889.99435,0.00553
887.93418,0.00568
885.87401,0.00617
883.81384,0.00674
881.75367,0.00708
879.69349,0.00718
877.63332,0.00722
875.57315,0.00745
873.51298,0.00799
871.45281,0.00856
869.39263,0.00887
867.33246,0.00916
865.27229,0.00962
863.21212,0.01001
861.15194,0.01019
859.09177,0.01030
857.03160,0.01043
854.97143,0.01061
852.91126,0.01076
850.85108,0.01064
848.79091,0.01030
846.73074,0.01003
844.67057,0.00987
842.61040,0.00968
840.55022,0.00953
838.49005,0.00944
836.42988,0.00912
834.36971,0.00852
832.30954,0.00812
830.24936,0.00787
828.18919,0.00760
826.12902,0.00735
824.06885,0.00704
822.00867,0.00695
819.94850,0.00706
817.88833,0.00694
815.82816,0.00654
813.76799,0.00616
811.70781,0.00601
809.64764,0.00597
807.58747,0.00586
805.52730,0.00570
803.46713,0.00551
801.40695,0.00541
799.34678,0.00522
797.28661,0.00489
795.22644,0.00476
793.16627,0.00480
791.10609,0.00484
789.04592,0.00477
786.98575,0.00458
784.92558,0.00467
782.86540,0.00502
780.80523,0.00510
778.74506,0.00489
776.68489,0.00476
774.62472,0.00480
772.56454,0.00496
770.50437,0.00519
768.44420,0.00529
766.38403,0.00509
764.32386,0.00454
762.26368,0.00416
760.20351,0.00441
758.14334,0.00474
756.08317,0.00479
754.02299,0.00471
751.96282,0.00452
749.90265,0.00423
747.84248,0.00407
745.78231,0.00419
743.72213,0.00434
741.66196,0.00427
739.60179,0.00418
737.54162,0.00436
735.48145,0.00467
733.42127,0.00474
731.36110,0.00459
729.30093,0.00453
727.24076,0.00448
725.18059,0.00470
723.12041,0.00567
721.06024,0.00512
719.00007,0.00497
716.93990,0.00480
714.87972,0.00458
712.81955,0.00450
710.75938,0.00448
708.69921,0.00446
706.63904,0.00461
704.57886,0.00511
702.51869,0.00563
700.45852,0.00597
698.39835,0.00629
696.33818,0.00669
694.27800,0.00705
692.21783,0.00711
690.15766,0.00674
688.09749,0.00640
686.03731,0.00660
683.97714,0.00723
681.91697,0.00802
679.85680,0.00883
677.79663,0.00915
675.73645,0.00852
673.67628,0.00876
671.61611,0.01135
669.55594,0.00758
667.49577,0.00000
665.43559,0.01065
663.37542,0.00944
661.31525,0.00638
659.25508,0.00547
657.19491,0.00547
655.13473,0.00576
653.07456,0.00624
651.01439,0.00659
648.95422,0.00632
646.89404,0.00591
644.83387,0.00466
642.77370,0.00362
640.71353,0.00349
638.65336,0.00351
636.59318,0.00304
634.53301,0.00268
632.47284,0.00266
630.41267,0.00250
628.35250,0.00210
626.29232,0.00166
624.23215,0.00124
622.17198,0.00136
620.11181,0.00165
618.05164,0.00113
615.99146,0.00064
613.93129,0.00107
611.87112,0.00108
609.81095,0.00069
607.75077,0.00086
605.69060,0.00113
603.63043,0.00100
601.57026,0.00055
599.51009,0.00000
