3996.73391,0.00049
3994.67373,0.00047
3992.61356,0.00056
3990.55339,0.00070
3988.49322,0.00077
3986.43305,0.00066
3984.37287,0.00037
3982.31270,0.00030
3980.25253,0.00082
3978.19236,0.00133
3976.13219,0.00107
3974.07201,0.00051
3972.01184,0.00032
3969.95167,0.00036
3967.89150,0.00056
3965.83133,0.00100
3963.77115,0.00129
3961.71098,0.00113
3959.65081,0.00071
3957.59064,0.00030
3955.53046,0.00001
3953.47029,0.00000
3951.41012,0.00035
3949.34995,0.00082
3947.28978,0.00110
3945.22960,0.00112
3943.16943,0.00086
3941.10926,0.00045
3939.04909,0.00039
3936.98892,0.00079
3934.92874,0.00119
3932.86857,0.00132
3930.80840,0.00143
3928.74823,0.00158
3926.68805,0.00159
3924.62788,0.00140
3922.56771,0.00107
3920.50754,0.00068
3918.44737,0.00046
3916.38719,0.00054
3914.32702,0.00087
3912.26685,0.00135
3910.20668,0.00165
3908.14651,0.00154
3906.08633,0.00130
3904.02616,0.00134
3901.96599,0.00128
3899.90582,0.00071
3897.84565,0.00033
3895.78547,0.00049
3893.72530,0.00084
3891.66513,0.00098
3889.60496,0.00088
3887.54478,0.00094
3885.48461,0.00126
3883.42444,0.00148
3881.36427,0.00150
3879.30410,0.00128
3877.24392,0.00079
3875.18375,0.00038
3873.12358,0.00055
3871.06341,0.00107
3869.00324,0.00134
3866.94306,0.00151
3864.88289,0.00167
3862.82272,0.00170
3860.76255,0.00173
3858.70237,0.00173
3856.64220,0.00159
3854.58203,0.00125
3852.52186,0.00077
3850.46169,0.00049
3848.40151,0.00051
3846.34134,0.00059
3844.28117,0.00067
3842.22100,0.00092
3840.16083,0.00120
3838.10065,0.00131
3836.04048,0.00137
3833.98031,0.00142
3831.92014,0.00121
3829.85997,0.00087
3827.79979,0.00077
3825.73962,0.00084
3823.67945,0.00071
3821.61928,0.00034
3819.55910,0.00005
3817.49893,0.00004
3815.43876,0.00021
3813.37859,0.00046
3811.31842,0.00067
3809.25824,0.00076
3807.19807,0.00073
3805.13790,0.00078
3803.07773,0.00096
3801.01756,0.00084
3798.95738,0.00048
3796.89721,0.00039
3794.83704,0.00065
3792.77687,0.00100
3790.71670,0.00118
3788.65652,0.00121
3786.59635,0.00129
3784.53618,0.00144
3782.47601,0.00155
3780.41583,0.00147
3778.35566,0.00123
3776.29549,0.00126
3774.23532,0.00179
3772.17515,0.00240
3770.11497,0.00239
3768.05480,0.00180
3765.99463,0.00122
3763.93446,0.00086
3761.87429,0.00090
3759.81411,0.00121
3757.75394,0.00147
3755.69377,0.00183
3753.63360,0.00205
3751.57342,0.00144
3749.51325,0.00077
3747.45308,0.00122
3745.39291,0.00186
3743.33274,0.00174
3741.27256,0.00165
3739.21239,0.00220
3737.15222,0.00245
3735.09205,0.00160
3733.03188,0.00079
3730.97170,0.00119
3728.91153,0.00213
3726.85136,0.00239
3724.79119,0.00171
3722.73102,0.00100
3720.67084,0.00100
3718.61067,0.00154
3716.55050,0.00199
3714.49033,0.00176
3712.43015,0.00079
3710.36998,0.00008
3708.30981,0.00059
3706.24964,0.00187
3704.18947,0.00274
3702.12929,0.00258
3700.06912,0.00200
3698.00895,0.00188
3695.94878,0.00224
3693.88861,0.00259
3691.82843,0.00247
3689.76826,0.00186
3687.70809,0.00140
3685.64792,0.00141
3683.58775,0.00171
3681.52757,0.00206
3679.46740,0.00224
3677.40723,0.00193
3675.34706,0.00136
3673.28688,0.00134
3671.22671,0.00181
3669.16654,0.00223
3667.10637,0.00244
3665.04620,0.00240
3662.98602,0.00225
3660.92585,0.00237
3658.86568,0.00279
3656.80551,0.00312
3654.74534,0.00307
3652.68516,0.00289
3650.62499,0.00291
3648.56482,0.00328
3646.50465,0.00387
3644.44447,0.00452
3642.38430,0.00480
3640.32413,0.00460
3638.26396,0.00455
3636.20379,0.00498
3634.14361,0.00545
3632.08344,0.00555
3630.02327,0.00535
3627.96310,0.00527
3625.90293,0.00554
3623.84275,0.00593
3621.78258,0.00616
3619.72241,0.00621
3617.66224,0.00625
3615.60207,0.00665
3613.54189,0.00743
3611.48172,0.00806
3609.42155,0.00835
3607.36138,0.00853
3605.30120,0.00880
3603.24103,0.00904
3601.18086,0.00896
3599.12069,0.00888
3597.06052,0.00909
3595.00034,0.00935
3592.94017,0.00957
3590.88000,0.00971
3588.81983,0.00967
3586.75966,0.00975
3584.69948,0.01022
3582.63931,0.01072
3580.57914,0.01097
3578.51897,0.01102
3576.45879,0.01104
3574.39862,0.01115
3572.33845,0.01121
3570.27828,0.01119
3568.21811,0.01123
3566.15793,0.01144
3564.09776,0.01196
3562.03759,0.01267
3559.97742,0.01322
3557.91725,0.01351
3555.85707,0.01359
3553.79690,0.01355
3551.73673,0.01356
3549.67656,0.01374
3547.61639,0.01415
3545.55621,0.01478
3543.49604,0.01531
3541.43587,0.01545
3539.37570,0.01541
3537.31552,0.01550
3535.25535,0.01558
3533.19518,0.01547
3531.13501,0.01543
3529.07484,0.01580
3527.01466,0.01634
3524.95449,0.01664
3522.89432,0.01660
3520.83415,0.01653
3518.77398,0.01658
3516.71380,0.01661
3514.65363,0.01671
3512.59346,0.01723
3510.53329,0.01809
3508.47312,0.01877
3506.41294,0.01898
3504.35277,0.01902
3502.29260,0.01930
3500.23243,0.01957
3498.17225,0.01950
3496.11208,0.01957
3494.05191,0.01994
3491.99174,0.02006
3489.93157,0.02012
3487.87139,0.02057
3485.81122,0.02097
3483.75105,0.02106
3481.69088,0.02123
3479.63071,0.02140
3477.57053,0.02121
3475.51036,0.02080
3473.45019,0.02063
3471.39002,0.02108
3469.32984,0.02196
3467.26967,0.02256
3465.20950,0.02255
3463.14933,0.02240
3461.08916,0.02238
3459.02898,0.02249
3456.96881,0.02274
3454.90864,0.02306
3452.84847,0.02340
3450.78830,0.02353
3448.72812,0.02346
3446.66795,0.02348
3444.60778,0.02376
3442.54761,0.02403
3440.48744,0.02404
3438.42726,0.02414
3436.36709,0.02450
3434.30692,0.02483
3432.24675,0.02507
3430.18657,0.02523
3428.12640,0.02518
3426.06623,0.02510
3424.00606,0.02524
3421.94589,0.02558
3419.88571,0.02618
3417.82554,0.02672
3415.76537,0.02669
3413.70520,0.02632
3411.64503,0.02626
3409.58485,0.02648
3407.52468,0.02659
3405.46451,0.02672
3403.40434,0.02687
3401.34416,0.02680
3399.28399,0.02673
3397.22382,0.02670
3395.16365,0.02672
3393.10348,0.02686
3391.04330,0.02721
3388.98313,0.02752
3386.92296,0.02748
3384.86279,0.02739
3382.80262,0.02751
3380.74244,0.02763
3378.68227,0.02792
3376.62210,0.02842
3374.56193,0.02879
3372.50176,0.02872
3370.44158,0.02830
3368.38141,0.02818
3366.32124,0.02872
3364.26107,0.02927
3362.20089,0.02922
3360.14072,0.02879
3358.08055,0.02851
3356.02038,0.02863
3353.96021,0.02899
3351.90003,0.02944
3349.83986,0.02972
3347.77969,0.02954
3345.71952,0.02915
3343.65935,0.02910
3341.59917,0.02945
3339.53900,0.02971
3337.47883,0.02965
3335.41866,0.02942
3333.35849,0.02920
3331.29831,0.02920
3329.23814,0.02946
3327.17797,0.02978
3325.11780,0.02996
3323.05762,0.02998
3320.99745,0.03008
3318.93728,0.03013
3316.87711,0.03000
3314.81694,0.03012
3312.75676,0.03040
3310.69659,0.03033
3308.63642,0.03007
3306.57625,0.03001
3304.51608,0.03012
3302.45590,0.03032
3300.39573,0.03060
3298.33556,0.03075
3296.27539,0.03076
3294.21521,0.03066
3292.15504,0.03059
3290.09487,0.03078
3288.03470,0.03099
3285.97453,0.03080
3283.91435,0.03037
3281.85418,0.03025
3279.79401,0.03041
3277.73384,0.03056
3275.67367,0.03074
3273.61349,0.03097
3271.55332,0.03108
3269.49315,0.03101
3267.43298,0.03067
3265.37281,0.03023
3263.31263,0.03014
3261.25246,0.03023
3259.19229,0.03028
3257.13212,0.03054
3255.07194,0.03085
3253.01177,0.03089
3250.95160,0.03087
3248.89143,0.03097
3246.83126,0.03101
3244.77108,0.03100
3242.71091,0.03103
3240.65074,0.03092
3238.59057,0.03065
3236.53040,0.03058
3234.47022,0.03074
3232.41005,0.03083
3230.34988,0.03091
3228.28971,0.03079
3226.22954,0.03055
3224.16936,0.03060
3222.10919,0.03082
3220.04902,0.03096
3217.98885,0.03112
3215.92867,0.03136
3213.86850,0.03131
3211.80833,0.03090
3209.74816,0.03068
3207.68799,0.03081
3205.62781,0.03099
3203.56764,0.03102
3201.50747,0.03077
3199.44730,0.03045
3197.38713,0.03036
3195.32695,0.03035
3193.26678,0.03028
3191.20661,0.03012
3189.14644,0.02993
3187.08626,0.02979
3185.02609,0.02971
3182.96592,0.02966
3180.90575,0.02962
3178.84558,0.02957
3176.78540,0.02950
3174.72523,0.02948
3172.66506,0.02976
3170.60489,0.03029
3168.54472,0.03049
3166.48454,0.03030
3164.42437,0.02998
3162.36420,0.02966
3160.30403,0.02957
3158.24386,0.02960
3156.18368,0.02945
3154.12351,0.02913
3152.06334,0.02892
3150.00317,0.02902
3147.94299,0.02934
3145.88282,0.02934
3143.82265,0.02886
3141.76248,0.02836
3139.70231,0.02813
3137.64213,0.02804
3135.58196,0.02814
3133.52179,0.02843
3131.46162,0.02852
3129.40145,0.02820
3127.34127,0.02780
3125.28110,0.02771
3123.22093,0.02791
3121.16076,0.02818
3119.10058,0.02822
3117.04041,0.02799
3114.98024,0.02776
3112.92007,0.02756
3110.85990,0.02735
3108.79972,0.02720
3106.73955,0.02721
3104.67938,0.02720
3102.61921,0.02701
3100.55904,0.02688
3098.49886,0.02689
3096.43869,0.02671
3094.37852,0.02642
3092.31835,0.02630
3090.25818,0.02626
3088.19800,0.02627
3086.13783,0.02639
3084.07766,0.02649
3082.01749,0.02649
3079.95731,0.02640
3077.89714,0.02617
3075.83697,0.02585
3073.77680,0.02560
3071.71663,0.02549
3069.65645,0.02540
3067.59628,0.02530
3065.53611,0.02515
3063.47594,0.02485
3061.41577,0.02465
3059.35559,0.02469
3057.29542,0.02462
3055.23525,0.02447
3053.17508,0.02453
3051.11491,0.02458
3049.05473,0.02437
3046.99456,0.02413
3044.93439,0.02397
3042.87422,0.02380
3040.81404,0.02387
3038.75387,0.02417
3036.69370,0.02412
3034.63353,0.02374
3032.57336,0.02359
3030.51318,0.02374
3028.45301,0.02380
3026.39284,0.02363
3024.33267,0.02338
3022.27250,0.02321
3020.21232,0.02304
3018.15215,0.02282
3016.09198,0.02273
3014.03181,0.02276
3011.97163,0.02283
3009.91146,0.02283
3007.85129,0.02262
3005.79112,0.02222
3003.73095,0.02182
3001.67077,0.02155
2999.61060,0.02152
2997.55043,0.02165
2995.49026,0.02163
2993.43009,0.02154
2991.36991,0.02151
2989.30974,0.02137
2987.24957,0.02121
2985.18940,0.02131
2983.12923,0.02154
2981.06905,0.02170
2979.00888,0.02169
2976.94871,0.02143
2974.88854,0.02114
2972.82836,0.02100
2970.76819,0.02091
2968.70802,0.02093
2966.64785,0.02101
2964.58768,0.02096
2962.52750,0.02086
2960.46733,0.02079
2958.40716,0.02073
2956.34699,0.02066
2954.28682,0.02056
2952.22664,0.02053
2950.16647,0.02062
2948.10630,0.02075
2946.04613,0.02071
2943.98596,0.02040
2941.92578,0.02011
2939.86561,0.02018
2937.80544,0.02044
2935.74527,0.02040
2933.68509,0.02014
2931.62492,0.01997
2929.56475,0.01998
2927.50458,0.02016
2925.44441,0.02031
2923.38423,0.02020
2921.32406,0.01995
2919.26389,0.01976
2917.20372,0.01970
2915.14355,0.01979
2913.08337,0.01981
2911.02320,0.01955
2908.96303,0.01918
2906.90286,0.01891
2904.84268,0.01891
2902.78251,0.01905
2900.72234,0.01900
2898.66217,0.01873
2896.60200,0.01847
2894.54182,0.01831
2892.48165,0.01823
2890.42148,0.01822
2888.36131,0.01830
2886.30114,0.01844
2884.24096,0.01843
2882.18079,0.01827
2880.12062,0.01803
2878.06045,0.01795
2876.00028,0.01806
2873.94010,0.01797
2871.87993,0.01773
2869.81976,0.01766
2867.75959,0.01767
2865.69941,0.01759
2863.63924,0.01751
2861.57907,0.01755
2859.51890,0.01752
2857.45873,0.01728
2855.39855,0.01702
2853.33838,0.01682
2851.27821,0.01676
2849.21804,0.01677
2847.15787,0.01663
2845.09769,0.01640
2843.03752,0.01621
2840.97735,0.01612
2838.91718,0.01597
2836.85700,0.01573
2834.79683,0.01565
2832.73666,0.01563
2830.67649,0.01552
2828.61632,0.01535
2826.55614,0.01519
2824.49597,0.01508
2822.43580,0.01499
2820.37563,0.01499
2818.31546,0.01510
2816.25528,0.01514
2814.19511,0.01494
2812.13494,0.01471
2810.07477,0.01470
2808.01460,0.01470
2805.95442,0.01460
2803.89425,0.01448
2801.83408,0.01438
2799.77391,0.01436
2797.71373,0.01432
2795.65356,0.01412
2793.59339,0.01385
2791.53322,0.01375
2789.47305,0.01375
2787.41287,0.01365
2785.35270,0.01352
2783.29253,0.01345
2781.23236,0.01337
2779.17219,0.01341
2777.11201,0.01354
2775.05184,0.01355
2772.99167,0.01345
2770.93150,0.01322
2768.87133,0.01308
2766.81115,0.01316
2764.75098,0.01308
2762.69081,0.01282
2760.63064,0.01279
2758.57046,0.01287
2756.51029,0.01277
2754.45012,0.01245
2752.38995,0.01215
2750.32978,0.01221
2748.26960,0.01241
2746.20943,0.01240
2744.14926,0.01228
2742.08909,0.01216
2740.02892,0.01206
2737.96874,0.01203
2735.90857,0.01201
2733.84840,0.01183
2731.78823,0.01164
2729.72805,0.01168
2727.66788,0.01180
2725.60771,0.01170
2723.54754,0.01142
2721.48737,0.01122
2719.42719,0.01125
2717.36702,0.01137
2715.30685,0.01136
2713.24668,0.01138
2711.18651,0.01162
2709.12633,0.01165
2707.06616,0.01127
2705.00599,0.01102
2702.94582,0.01096
2700.88565,0.01075
2698.82547,0.01069
2696.76530,0.01088
2694.70513,0.01084
2692.64496,0.01057
2690.58478,0.01045
2688.52461,0.01059
2686.46444,0.01084
2684.40427,0.01081
2682.34410,0.01058
2680.28392,0.01036
2678.22375,0.01022
2676.16358,0.01026
2674.10341,0.01037
2672.04324,0.01036
2669.98306,0.01026
2667.92289,0.01025
2665.86272,0.01037
2663.80255,0.01034
2661.74238,0.01014
2659.68220,0.00996
2657.62203,0.00991
2655.56186,0.00994
2653.50169,0.00985
2651.44151,0.00973
2649.38134,0.00980
2647.32117,0.00985
2645.26100,0.00986
2643.20083,0.00999
2641.14065,0.00999
2639.08048,0.00985
2637.02031,0.00975
2634.96014,0.00965
2632.89997,0.00966
2630.83979,0.00961
2628.77962,0.00936
2626.71945,0.00926
2624.65928,0.00936
2622.59910,0.00932
2620.53893,0.00920
2618.47876,0.00902
2616.41859,0.00871
2614.35842,0.00863
2612.29824,0.00896
2610.23807,0.00937
2608.17790,0.00942
2606.11773,0.00924
2604.05756,0.00911
2601.99738,0.00909
2599.93721,0.00931
2597.87704,0.00935
2595.81687,0.00911
2593.75670,0.00909
2591.69652,0.00920
2589.63635,0.00908
2587.57618,0.00891
2585.51601,0.00897
2583.45583,0.00908
2581.39566,0.00909
2579.33549,0.00917
2577.27532,0.00933
2575.21515,0.00927
2573.15497,0.00906
2571.09480,0.00897
2569.03463,0.00897
2566.97446,0.00904
2564.91429,0.00887
2562.85411,0.00851
2560.79394,0.00839
2558.73377,0.00847
2556.67360,0.00863
2554.61342,0.00873
2552.55325,0.00857
2550.49308,0.00830
2548.43291,0.00842
2546.37274,0.00908
2544.31256,0.00956
2542.25239,0.00943
2540.19222,0.00926
2538.13205,0.00922
2536.07188,0.00911
2534.01170,0.00887
2531.95153,0.00836
2529.89136,0.00796
2527.83119,0.00802
2525.77102,0.00817
2523.71084,0.00833
2521.65067,0.00844
2519.59050,0.00839
2517.53033,0.00830
2515.47015,0.00818
2513.40998,0.00815
2511.34981,0.00845
2509.28964,0.00881
2507.22947,0.00897
2505.16929,0.00904
2503.10912,0.00919
2501.04895,0.00954
2498.98878,0.00986
2496.92861,0.00961
2494.86843,0.00898
2492.80826,0.00861
2490.74809,0.00868
2488.68792,0.00899
2486.62775,0.00923
2484.56757,0.00939
2482.50740,0.00965
2480.44723,0.00972
2478.38706,0.00970
2476.32688,0.00999
2474.26671,0.01019
2472.20654,0.00994
2470.14637,0.00941
2468.08620,0.00908
2466.02602,0.00924
2463.96585,0.00946
2461.90568,0.00958
2459.84551,0.00977
2457.78534,0.00993
2455.72516,0.00993
2453.66499,0.00971
2451.60482,0.00955
2449.54465,0.00976
2447.48447,0.00983
2445.42430,0.00970
2443.36413,0.00986
2441.30396,0.00999
2439.24379,0.00976
2437.18361,0.00957
2435.12344,0.00951
2433.06327,0.00949
2431.00310,0.00967
2428.94293,0.00993
2426.88275,0.01005
2424.82258,0.01021
2422.76241,0.01019
2420.70224,0.00979
2418.64207,0.00957
2416.58189,0.00992
2414.52172,0.01047
2412.46155,0.01071
2410.40138,0.01058
2408.34120,0.01028
2406.28103,0.00997
2404.22086,0.00957
2402.16069,0.00912
2400.10052,0.00902
2398.04034,0.00899
2395.98017,0.00929
2393.92000,0.00954
2391.85983,0.00953
2389.79966,0.00950
2387.73948,0.00984
2385.67931,0.01040
2383.61914,0.01078
2381.55897,0.01104
2379.49880,0.01145
2377.43862,0.01180
2375.37845,0.01137
2373.31828,0.01054
2371.25811,0.01017
2369.19793,0.01004
2367.13776,0.00990
2365.07759,0.00907
2363.01742,0.00606
2360.95725,0.00385
2358.89707,0.00523
2356.83690,0.00906
2354.77673,0.01122
2352.71656,0.01106
2350.65639,0.01205
2348.59621,0.01337
2346.53604,0.01223
2344.47587,0.01143
2342.41570,0.01139
2340.35552,0.01165
2338.29535,0.01195
2336.23518,0.01175
2334.17501,0.01139
2332.11484,0.01179
2330.05466,0.01281
2327.99449,0.01278
2325.93432,0.01206
2323.87415,0.01133
2321.81398,0.01139
2319.75380,0.01183
2317.69363,0.01212
2315.63346,0.01159
2313.57329,0.01093
2311.51312,0.01093
2309.45294,0.01137
2307.39277,0.01171
2305.33260,0.01179
2303.27243,0.01160
2301.21225,0.01113
2299.15208,0.01099
2297.09191,0.01134
2295.03174,0.01158
2292.97157,0.01144
2290.91139,0.01116
2288.85122,0.01098
2286.79105,0.01081
2284.73088,0.01044
2282.67071,0.00971
2280.61053,0.00903
2278.55036,0.00890
2276.49019,0.00916
2274.43002,0.00936
2272.36984,0.00924
2270.30967,0.00913
2268.24950,0.00936
2266.18933,0.00979
2264.12916,0.01005
2262.06898,0.00988
2260.00881,0.00919
2257.94864,0.00872
2255.88847,0.00922
2253.82830,0.00987
2251.76812,0.00945
2249.70795,0.00844
2247.64778,0.00833
2245.58761,0.00882
2243.52744,0.00879
2241.46726,0.00829
2239.40709,0.00823
2237.34692,0.00818
2235.28675,0.00759
2233.22657,0.00729
2231.16640,0.00781
2229.10623,0.00808
2227.04606,0.00770
2224.98589,0.00770
2222.92571,0.00792
2220.86554,0.00808
2218.80537,0.00846
2216.74520,0.00861
2214.68503,0.00816
2212.62485,0.00714
2210.56468,0.00587
2208.50451,0.00561
2206.44434,0.00723
2204.38417,0.00865
2202.32399,0.00815
2200.26382,0.00687
2198.20365,0.00608
2196.14348,0.00677
2194.08330,0.00873
2192.02313,0.01009
2189.96296,0.00991
2187.90279,0.00832
2185.84262,0.00692
2183.78244,0.00745
2181.72227,0.00849
2179.66210,0.00805
2177.60193,0.00670
2175.54176,0.00640
2173.48158,0.00776
2171.42141,0.00865
2169.36124,0.00743
2167.30107,0.00615
2165.24089,0.00677
2163.18072,0.00654
2161.12055,0.00419
2159.06038,0.00229
2157.00021,0.00095
2154.94003,0.00058
2152.87986,0.00248
2150.81969,0.00510
2148.75952,0.00627
2146.69935,0.00619
2144.63917,0.00579
2142.57900,0.00510
2140.51883,0.00500
2138.45866,0.00559
2136.39849,0.00541
2134.33831,0.00500
2132.27814,0.00512
2130.21797,0.00504
2128.15780,0.00534
2126.09762,0.00620
2124.03745,0.00623
2121.97728,0.00580
2119.91711,0.00611
2117.85694,0.00616
2115.79676,0.00551
2113.73659,0.00573
2111.67642,0.00685
2109.61625,0.00724
2107.55608,0.00650
2105.49590,0.00584
2103.43573,0.00593
2101.37556,0.00621
2099.31539,0.00654
2097.25521,0.00666
2095.19504,0.00638
2093.13487,0.00647
2091.07470,0.00704
2089.01453,0.00733
2086.95435,0.00677
2084.89418,0.00591
2082.83401,0.00558
2080.77384,0.00574
2078.71367,0.00586
2076.65349,0.00560
2074.59332,0.00524
2072.53315,0.00527
2070.47298,0.00560
2068.41281,0.00563
2066.35263,0.00518
2064.29246,0.00438
2062.23229,0.00379
2060.17212,0.00415
2058.11194,0.00500
2056.05177,0.00564
2053.99160,0.00606
2051.93143,0.00638
2049.87126,0.00627
2047.81108,0.00564
2045.75091,0.00507
2043.69074,0.00460
2041.63057,0.00438
2039.57040,0.00492
2037.51022,0.00513
2035.45005,0.00425
2033.38988,0.00421
2031.32971,0.00545
2029.26954,0.00610
2027.20936,0.00596
2025.14919,0.00604
2023.08902,0.00650
2021.02885,0.00606
2018.96867,0.00411
2016.90850,0.00212
2014.84833,0.00100
2012.78816,0.00062
2010.72799,0.00164
2008.66781,0.00326
2006.60764,0.00367
2004.54747,0.00327
2002.48730,0.00315
2000.42713,0.00367
1998.36695,0.00456
1996.30678,0.00489
1994.24661,0.00418
1992.18644,0.00359
1990.12626,0.00412
1988.06609,0.00514
1986.00592,0.00605
1983.94575,0.00651
1981.88558,0.00548
1979.82540,0.00416
1977.76523,0.00496
1975.70506,0.00576
1973.64489,0.00434
1971.58472,0.00312
1969.52454,0.00402
1967.46437,0.00474
1965.40420,0.00361
1963.34403,0.00301
1961.28386,0.00378
1959.22368,0.00444
1957.16351,0.00457
1955.10334,0.00439
1953.04317,0.00372
1950.98299,0.00281
1948.92282,0.00295
1946.86265,0.00380
1944.80248,0.00390
1942.74231,0.00365
1940.68213,0.00372
1938.62196,0.00373
1936.56179,0.00345
1934.50162,0.00335
1932.44145,0.00370
1930.38127,0.00388
1928.32110,0.00399
1926.26093,0.00418
1924.20076,0.00414
1922.14059,0.00422
1920.08041,0.00441
1918.02024,0.00455
1915.96007,0.00492
1913.89990,0.00494
1911.83972,0.00411
1909.77955,0.00334
1907.71938,0.00333
1905.65921,0.00369
1903.59904,0.00398
1901.53886,0.00398
1899.47869,0.00384
1897.41852,0.00401
1895.35835,0.00434
1893.29818,0.00438
1891.23800,0.00466
1889.17783,0.00532
1887.11766,0.00531
1885.05749,0.00443
1882.99731,0.00380
1880.93714,0.00395
1878.87697,0.00424
1876.81680,0.00410
1874.75663,0.00387
1872.69645,0.00401
1870.63628,0.00437
1868.57611,0.00459
1866.51594,0.00453
1864.45577,0.00430
1862.39559,0.00395
1860.33542,0.00367
1858.27525,0.00383
1856.21508,0.00432
1854.15491,0.00458
1852.09473,0.00454
1850.03456,0.00450
1847.97439,0.00451
1845.91422,0.00449
1843.85404,0.00440
1841.79387,0.00428
1839.73370,0.00424
1837.67353,0.00435
1835.61336,0.00454
1833.55318,0.00471
1831.49301,0.00469
1829.43284,0.00436
1827.37267,0.00390
1825.31250,0.00370
1823.25232,0.00380
1821.19215,0.00395
1819.13198,0.00413
1817.07181,0.00431
1815.01163,0.00445
1812.95146,0.00452
1810.89129,0.00435
1808.83112,0.00416
1806.77095,0.00436
1804.71077,0.00479
1802.65060,0.00502
1800.59043,0.00509
1798.53026,0.00518
1796.47009,0.00510
1794.40991,0.00490
1792.34974,0.00499
1790.28957,0.00528
1788.22940,0.00530
1786.16923,0.00518
1784.10905,0.00520
1782.04888,0.00526
1779.98871,0.00522
1777.92854,0.00502
1775.86836,0.00474
1773.80819,0.00462
1771.74802,0.00473
1769.68785,0.00489
1767.62768,0.00499
1765.56750,0.00505
1763.50733,0.00517
1761.44716,0.00542
1759.38699,0.00566
1757.32682,0.00580
1755.26664,0.00583
1753.20647,0.00575
1751.14630,0.00568
1749.08613,0.00589
1747.02596,0.00631
1744.96578,0.00660
1742.90561,0.00665
1740.84544,0.00663
1738.78527,0.00672
1736.72509,0.00674
1734.66492,0.00655
1732.60475,0.00644
1730.54458,0.00652
1728.48441,0.00658
1726.42423,0.00667
1724.36406,0.00684
1722.30389,0.00696
1720.24372,0.00686
1718.18355,0.00657
1716.12337,0.00650
1714.06320,0.00681
1712.00303,0.00722
1709.94286,0.00748
1707.88268,0.00749
1705.82251,0.00748
1703.76234,0.00757
1701.70217,0.00755
1699.64200,0.00754
1697.58182,0.00797
1695.52165,0.00871
1693.46148,0.00937
1691.40131,0.00998
1689.34114,0.01057
1687.28096,0.01091
1685.22079,0.01106
1683.16062,0.01152
1681.10045,0.01223
1679.04028,0.01278
1676.98010,0.01312
1674.91993,0.01335
1672.85976,0.01363
1670.79959,0.01406
1668.73941,0.01469
1666.67924,0.01524
1664.61907,0.01555
1662.55890,0.01587
1660.49873,0.01625
1658.43855,0.01645
1656.37838,0.01631
1654.31821,0.01587
1652.25804,0.01566
1650.19787,0.01598
1648.13769,0.01627
1646.07752,0.01631
1644.01735,0.01628
1641.95718,0.01625
1639.89701,0.01618
1637.83683,0.01597
1635.77666,0.01562
1633.71649,0.01534
1631.65632,0.01522
1629.59614,0.01505
1627.53597,0.01468
1625.47580,0.01423
1623.41563,0.01382
1621.35546,0.01353
1619.29528,0.01322
1617.23511,0.01279
1615.17494,0.01259
1613.11477,0.01273
1611.05460,0.01272
1608.99442,0.01230
1606.93425,0.01181
1604.87408,0.01148
1602.81391,0.01125
1600.75373,0.01114
1598.69356,0.01111
1596.63339,0.01094
1594.57322,0.01069
1592.51305,0.01054
1590.45287,0.01042
1588.39270,0.01016
1586.33253,0.00983
1584.27236,0.00960
1582.21219,0.00948
1580.15201,0.00938
1578.09184,0.00928
1576.03167,0.00915
1573.97150,0.00894
1571.91133,0.00859
1569.85115,0.00826
1567.79098,0.00818
1565.73081,0.00823
1563.67064,0.00812
1561.61046,0.00770
1559.55029,0.00718
1557.49012,0.00736
1555.42995,0.00785
1553.36978,0.00797
1551.30960,0.00797
1549.24943,0.00808
1547.18926,0.00814
1545.12909,0.00804
1543.06892,0.00764
1541.00874,0.00702
1538.94857,0.00676
1536.88840,0.00698
1534.82823,0.00712
1532.76805,0.00704
1530.70788,0.00688
1528.64771,0.00668
1526.58754,0.00640
1524.52737,0.00605
1522.46719,0.00578
1520.40702,0.00570
1518.34685,0.00575
1516.28668,0.00581
1514.22651,0.00582
1512.16633,0.00569
1510.10616,0.00535
1508.04599,0.00487
1505.98582,0.00462
1503.92565,0.00475
1501.86547,0.00493
1499.80530,0.00488
1497.74513,0.00457
1495.68496,0.00423
1493.62478,0.00401
1491.56461,0.00385
1489.50444,0.00376
1487.44427,0.00372
1485.38410,0.00372
1483.32392,0.00384
1481.26375,0.00402
1479.20358,0.00410
1477.14341,0.00404
1475.08324,0.00394
1473.02306,0.00400
1470.96289,0.00424
1468.90272,0.00434
1466.84255,0.00418
1464.78238,0.00403
1462.72220,0.00421
1460.66203,0.00462
1458.60186,0.00484
1456.54169,0.00462
1454.48151,0.00430
1452.42134,0.00429
1450.36117,0.00447
1448.30100,0.00465
1446.24083,0.00481
1444.18065,0.00490
1442.12048,0.00485
1440.06031,0.00475
1438.00014,0.00475
1435.93997,0.00485
1433.87979,0.00492
1431.81962,0.00496
1429.75945,0.00507
1427.69928,0.00521
1425.63910,0.00526
1423.57893,0.00528
1421.51876,0.00544
1419.45859,0.00573
1417.39842,0.00589
1415.33824,0.00583
1413.27807,0.00584
1411.21790,0.00606
1409.15773,0.00627
1407.09756,0.00633
1405.03738,0.00631
1402.97721,0.00625
1400.91704,0.00618
1398.85687,0.00606
1396.79670,0.00580
1394.73652,0.00552
1392.67635,0.00549
1390.61618,0.00567
1388.55601,0.00572
1386.49583,0.00552
1384.43566,0.00539
1382.37549,0.00543
1380.31532,0.00549
1378.25515,0.00554
1376.19497,0.00560
1374.13480,0.00565
1372.07463,0.00567
1370.01446,0.00564
1367.95429,0.00560
1365.89411,0.00555
1363.83394,0.00546
1361.77377,0.00536
1359.71360,0.00530
1357.65343,0.00523
1355.59325,0.00506
1353.53308,0.00484
1351.47291,0.00466
1349.41274,0.00454
1347.35256,0.00445
1345.29239,0.00428
1343.23222,0.00411
1341.17205,0.00411
1339.11188,0.00415
1337.05170,0.00404
1334.99153,0.00384
1332.93136,0.00363
1330.87119,0.00344
1328.81102,0.00339
1326.75084,0.00348
1324.69067,0.00358
1322.63050,0.00353
1320.57033,0.00327
1318.51015,0.00304
1316.44998,0.00304
1314.38981,0.00302
1312.32964,0.00290
1310.26947,0.00287
1308.20929,0.00293
1306.14912,0.00293
1304.08895,0.00296
1302.02878,0.00310
1299.96861,0.00321
1297.90843,0.00326
1295.84826,0.00328
1293.78809,0.00330
1291.72792,0.00339
1289.66775,0.00341
1287.60757,0.00332
1285.54740,0.00323
1283.48723,0.00320
1281.42706,0.00319
1279.36688,0.00317
1277.30671,0.00316
1275.24654,0.00323
1273.18637,0.00335
1271.12620,0.00341
1269.06602,0.00334
1267.00585,0.00319
1264.94568,0.00308
1262.88551,0.00318
1260.82534,0.00338
1258.76516,0.00345
1256.70499,0.00333
1254.64482,0.00318
1252.58465,0.00317
1250.52447,0.00316
1248.46430,0.00316
1246.40413,0.00323
1244.34396,0.00325
1242.28379,0.00305
1240.22361,0.00280
1238.16344,0.00278
1236.10327,0.00284
1234.04310,0.00273
1231.98293,0.00256
1229.92275,0.00250
1227.86258,0.00240
1225.80241,0.00204
1223.74224,0.00161
1221.68207,0.00142
1219.62189,0.00150
1217.56172,0.00162
1215.50155,0.00170
1213.44138,0.00167
1211.38120,0.00152
1209.32103,0.00132
1207.26086,0.00120
1205.20069,0.00107
1203.14052,0.00088
1201.08034,0.00083
1199.02017,0.00102
1196.96000,0.00126
1194.89983,0.00143
1192.83966,0.00160
1190.77948,0.00195
1188.71931,0.00242
1186.65914,0.00286
1184.59897,0.00337
1182.53880,0.00406
1180.47862,0.00490
1178.41845,0.00554
1176.35828,0.00595
1174.29811,0.00645
1172.23793,0.00705
1170.17776,0.00769
1168.11759,0.00842
1166.05742,0.00910
1163.99725,0.00969
1161.93707,0.01021
1159.87690,0.01073
1157.81673,0.01156
1155.75656,0.01261
1153.69639,0.01346
1151.63621,0.01402
1149.57604,0.01439
1147.51587,0.01454
1145.45570,0.01453
1143.39552,0.01461
1141.33535,0.01495
1139.27518,0.01543
1137.21501,0.01605
1135.15484,0.01685
1133.09466,0.01766
1131.03449,0.01831
1128.97432,0.01885
1126.91415,0.01933
1124.85398,0.01995
1122.79380,0.02096
1120.73363,0.02217
1118.67346,0.02324
1116.61329,0.02416
1114.55312,0.02509
1112.49294,0.02626
1110.43277,0.02774
1108.37260,0.02922
1106.31243,0.03040
1104.25225,0.03151
1102.19208,0.03267
1100.13191,0.03363
1098.07174,0.03450
1096.01157,0.03543
1093.95139,0.03625
1091.89122,0.03703
1089.83105,0.03794
1087.77088,0.03895
1085.71071,0.03987
1083.65053,0.04057
1081.59036,0.04117
1079.53019,0.04205
1077.47002,0.04319
1075.40985,0.04410
1073.34967,0.04433
1071.28950,0.04412
1069.22933,0.04405
1067.16916,0.04419
1065.10898,0.04416
1063.04881,0.04368
1060.98864,0.04292
1058.92847,0.04228
1056.86830,0.04161
1054.80812,0.04044
1052.74795,0.03897
1050.68778,0.03753
1048.62761,0.03610
1046.56744,0.03471
1044.50726,0.03320
1042.44709,0.03139
1040.38692,0.02963
1038.32675,0.02830
1036.26657,0.02711
1034.20640,0.02569
1032.14623,0.02408
1030.08606,0.02256
1028.02589,0.02149
1025.96571,0.02072
1023.90554,0.01968
1021.84537,0.01845
1019.78520,0.01767
1017.72503,0.01736
1015.66485,0.01709
1013.60468,0.01675
1011.54451,0.01657
1009.48434,0.01664
1007.42417,0.01695
1005.36399,0.01762
1003.30382,0.01850
1001.24365,0.01941
999.18348,0.02026
997.12330,0.02085
995.06313,0.02147
993.00296,0.02260
990.94279,0.02363
988.88262,0.02407
986.82244,0.02430
984.76227,0.02454
982.70210,0.02507
980.64193,0.02585
978.58176,0.02596
976.52158,0.02516
974.46141,0.02418
972.40124,0.02351
970.34107,0.02316
968.28089,0.02265
966.22072,0.02179
964.16055,0.02081
962.10038,0.01996
960.04021,0.01927
957.98003,0.01852
955.91986,0.01786
953.85969,0.01732
951.79952,0.01653
949.73935,0.01569
947.67917,0.01508
945.61900,0.01448
943.55883,0.01381
941.49866,0.01305
939.43849,0.01216
937.37831,0.01142
935.31814,0.01090
933.25797,0.01042
931.19780,0.00994
929.13762,0.00942
927.07745,0.00891
925.01728,0.00846
922.95711,0.00807
920.89694,0.00767
918.83676,0.00703
916.77659,0.00621
914.71642,0.00561
912.65625,0.00529
910.59608,0.00498
908.53590,0.00459
906.47573,0.00417
904.41556,0.00393
902.35539,0.00421
900.29522,0.00460
898.23504,0.00458
896.17487,0.00435
894.11470,0.00433
892.05453,0.00487
889.99435,0.00548
887.93418,0.00579
885.87401,0.00634
883.81384,0.00717
881.75367,0.00807
879.69349,0.00901
877.63332,0.00954
875.57315,0.00971
873.51298,0.01000
871.45281,0.01079
869.39263,0.01208
867.33246,0.01299
865.27229,0.01336
863.21212,0.01391
861.15194,0.01461
859.09177,0.01539
857.03160,0.01617
854.97143,0.01641
852.91126,0.01615
850.85108,0.01561
848.79091,0.01473
846.73074,0.01399
844.67057,0.01354
842.61040,0.01290
840.55022,0.01212
838.49005,0.01156
836.42988,0.01133
834.36971,0.01093
832.30954,0.01024
830.24936,0.00980
828.18919,0.00935
826.12902,0.00846
824.06885,0.00789
822.00867,0.00782
819.94850,0.00754
817.88833,0.00677
815.82816,0.00574
813.76799,0.00511
811.70781,0.00530
809.64764,0.00574
807.58747,0.00566
805.52730,0.00521
803.46713,0.00489
801.40695,0.00465
799.34678,0.00417
797.28661,0.00351
795.22644,0.00317
793.16627,0.00310
791.10609,0.00296
789.04592,0.00288
786.98575,0.00297
784.92558,0.00296
782.86540,0.00275
780.80523,0.00259
778.74506,0.00262
776.68489,0.00272
774.62472,0.00274
772.56454,0.00269
770.50437,0.00254
768.44420,0.00244
766.38403,0.00258
764.32386,0.00260
762.26368,0.00210
760.20351,0.00143
758.14334,0.00172
756.08317,0.00285
754.02299,0.00342
751.96282,0.00321
749.90265,0.00279
747.84248,0.00247
745.78231,0.00234
743.72213,0.00220
741.66196,0.00208
739.60179,0.00224
737.54162,0.00252
735.48145,0.00253
733.42127,0.00217
731.36110,0.00154
729.30093,0.00103
727.24076,0.00125
725.18059,0.00188
723.12041,0.00227
721.06024,0.00168
719.00007,0.00138
716.93990,0.00139
714.87972,0.00138
712.81955,0.00143
710.75938,0.00174
708.69921,0.00225
706.63904,0.00254
704.57886,0.00279
702.51869,0.00310
700.45852,0.00300
698.39835,0.00283
696.33818,0.00327
694.27800,0.00386
692.21783,0.00398
690.15766,0.00363
688.09749,0.00300
686.03731,0.00235
683.97714,0.00215
681.91697,0.00232
679.85680,0.00201
677.79663,0.00147
675.73645,0.00169
673.67628,0.00286
671.61611,0.00428
669.55594,0.00344
667.49577,0.00167
665.43559,0.00334
663.37542,0.00333
661.31525,0.00375
659.25508,0.00370
657.19491,0.00260
655.13473,0.00175
653.07456,0.00202
651.01439,0.00312
648.95422,0.00412
646.89404,0.00457
644.83387,0.00472
642.77370,0.00473
640.71353,0.00416
638.65336,0.00374
636.59318,0.00452
634.53301,0.00586
632.47284,0.00584
630.41267,0.00365
628.35250,0.00170
626.29232,0.00258
624.23215,0.00305
622.17198,0.00184
620.11181,0.00273
618.05164,0.00500
615.99146,0.00478
613.93129,0.00329
611.87112,0.00293
609.81095,0.00294
607.75077,0.00223
605.69060,0.00107
603.63043,0.00000
601.57026,-0.00004
599.51009,0.00000
