3996.73391,0.00018
3994.67373,0.00043
3992.61356,0.00054
3990.55339,0.00030
3988.49322,0.00000
3986.43305,0.00013
3984.37287,0.00049
3982.31270,0.00069
3980.25253,0.00082
3978.19236,0.00084
3976.13219,0.00057
3974.07201,0.00028
3972.01184,0.00033
3969.95167,0.00064
3967.89150,0.00100
3965.83133,0.00124
3963.77115,0.00133
3961.71098,0.00127
3959.65081,0.00102
3957.59064,0.00071
3955.53046,0.00050
3953.47029,0.00041
3951.41012,0.00047
3949.34995,0.00056
3947.28978,0.00052
3945.22960,0.00051
3943.16943,0.00063
3941.10926,0.00067
3939.04909,0.00067
3936.98892,0.00082
3934.92874,0.00100
3932.86857,0.00113
3930.80840,0.00132
3928.74823,0.00148
3926.68805,0.00150
3924.62788,0.00138
3922.56771,0.00114
3920.50754,0.00091
3918.44737,0.00082
3916.38719,0.00081
3914.32702,0.00086
3912.26685,0.00086
3910.20668,0.00072
3908.14651,0.00073
3906.08633,0.00110
3904.02616,0.00158
3901.96599,0.00163
3899.90582,0.00125
3897.84565,0.00095
3895.78547,0.00102
3893.72530,0.00128
3891.66513,0.00135
3889.60496,0.00115
3887.54478,0.00120
3885.48461,0.00165
3883.42444,0.00217
3881.36427,0.00229
3879.30410,0.00180
3877.24392,0.00118
3875.18375,0.00098
3873.12358,0.00131
3871.06341,0.00180
3869.00324,0.00197
3866.94306,0.00201
3864.88289,0.00216
3862.82272,0.00219
3860.76255,0.00199
3858.70237,0.00188
3856.64220,0.00228
3854.58203,0.00297
3852.52186,0.00285
3850.46169,0.00186
3848.40151,0.00120
3846.34134,0.00106
3844.28117,0.00098
3842.22100,0.00081
3840.16083,0.00073
3838.10065,0.00085
3836.04048,0.00107
3833.98031,0.00113
3831.92014,0.00113
3829.85997,0.00140
3827.79979,0.00184
3825.73962,0.00209
3823.67945,0.00209
3821.61928,0.00175
3819.55910,0.00108
3817.49893,0.00042
3815.43876,0.00000
3813.37859,0.00007
3811.31842,0.00042
3809.25824,0.00072
3807.19807,0.00082
3805.13790,0.00090
3803.07773,0.00110
3801.01756,0.00110
3798.95738,0.00083
3796.89721,0.00077
3794.83704,0.00111
3792.77687,0.00155
3790.71670,0.00165
3788.65652,0.00120
3786.59635,0.00068
3784.53618,0.00064
3782.47601,0.00103
3780.41583,0.00130
3778.35566,0.00118
3776.29549,0.00101
3774.23532,0.00113
3772.17515,0.00145
3770.11497,0.00155
3768.05480,0.00133
3765.99463,0.00110
3763.93446,0.00098
3761.87429,0.00104
3759.81411,0.00119
3757.75394,0.00136
3755.69377,0.00187
3753.63360,0.00224
3751.57342,0.00156
3749.51325,0.00089
3747.45308,0.00163
3745.39291,0.00266
3743.33274,0.00291
3741.27256,0.00281
3739.21239,0.00288
3737.15222,0.00294
3735.09205,0.00248
3733.03188,0.00179
3730.97170,0.00182
3728.91153,0.00224
3726.85136,0.00209
3724.79119,0.00147
3722.73102,0.00104
3720.67084,0.00090
3718.61067,0.00122
3716.55050,0.00206
3714.49033,0.00275
3712.43015,0.00244
3710.36998,0.00134
3708.30981,0.00096
3706.24964,0.00166
3704.18947,0.00234
3702.12929,0.00220
3700.06912,0.00162
3698.00895,0.00145
3695.94878,0.00164
3693.88861,0.00164
3691.82843,0.00143
3689.76826,0.00120
3687.70809,0.00095
3685.64792,0.00080
3683.58775,0.00088
3681.52757,0.00122
3679.46740,0.00173
3677.40723,0.00218
3675.34706,0.00240
3673.28688,0.00243
3671.22671,0.00244
3669.16654,0.00243
3667.10637,0.00254
3665.04620,0.00272
3662.98602,0.00269
3660.92585,0.00254
3658.86568,0.00264
3656.80551,0.00298
3654.74534,0.00318
3652.68516,0.00332
3650.62499,0.00392
3648.56482,0.00479
3646.50465,0.00490
3644.44447,0.00438
3642.38430,0.00389
3640.32413,0.00380
3638.26396,0.00437
3636.20379,0.00530
3634.14361,0.00590
3632.08344,0.00599
3630.02327,0.00598
3627.96310,0.00624
3625.90293,0.00666
3623.84275,0.00687
3621.78258,0.00672
3619.72241,0.00647
3617.66224,0.00644
3615.60207,0.00679
3613.54189,0.00745
3611.48172,0.00811
3609.42155,0.00844
3607.36138,0.00849
3605.30120,0.00878
3603.24103,0.00942
3601.18086,0.00992
3599.12069,0.01014
3597.06052,0.01023
3595.00034,0.01027
3592.94017,0.01028
3590.88000,0.01029
3588.81983,0.01037
3586.75966,0.01046
3584.69948,0.01050
3582.63931,0.01080
3580.57914,0.01149
3578.51897,0.01211
3576.45879,0.01231
3574.39862,0.01227
3572.33845,0.01229
3570.27828,0.01246
3568.21811,0.01264
3566.15793,0.01289
3564.09776,0.01334
3562.03759,0.01382
3559.97742,0.01410
3557.91725,0.01428
3555.85707,0.01448
3553.79690,0.01467
3551.73673,0.01491
3549.67656,0.01534
3547.61639,0.01589
3545.55621,0.01623
3543.49604,0.01624
3541.43587,0.01619
3539.37570,0.01650
3537.31552,0.01715
3535.25535,0.01763
3533.19518,0.01772
3531.13501,0.01788
3529.07484,0.01850
3527.01466,0.01926
3524.95449,0.01955
3522.89432,0.01927
3520.83415,0.01888
3518.77398,0.01872
3516.71380,0.01875
3514.65363,0.01902
3512.59346,0.01954
3510.53329,0.02007
3508.47312,0.02032
3506.41294,0.02047
3504.35277,0.02094
3502.29260,0.02156
3500.23243,0.02167
3498.17225,0.02145
3496.11208,0.02161
3494.05191,0.02205
3491.99174,0.02220
3489.93157,0.02233
3487.87139,0.02279
3485.81122,0.02317
3483.75105,0.02321
3481.69088,0.02336
3479.63071,0.02383
3477.57053,0.02417
3475.51036,0.02402
3473.45019,0.02369
3471.39002,0.02377
3469.32984,0.02427
3467.26967,0.02474
3465.20950,0.02517
3463.14933,0.02564
3461.08916,0.02568
3459.02898,0.02549
3456.96881,0.02567
3454.90864,0.02597
3452.84847,0.02605
3450.78830,0.02614
3448.72812,0.02631
3446.66795,0.02638
3444.60778,0.02647
3442.54761,0.02652
3440.48744,0.02643
3438.42726,0.02650
3436.36709,0.02695
3434.30692,0.02758
3432.24675,0.02818
3430.18657,0.02869
3428.12640,0.02902
3426.06623,0.02909
3424.00606,0.02892
3421.94589,0.02878
3419.88571,0.02893
3417.82554,0.02909
3415.76537,0.02898
3413.70520,0.02878
3411.64503,0.02885
3409.58485,0.02932
3407.52468,0.02982
3405.46451,0.03011
3403.40434,0.03034
3401.34416,0.03040
3399.28399,0.03033
3397.22382,0.03024
3395.16365,0.03030
3393.10348,0.03050
3391.04330,0.03074
3388.98313,0.03093
3386.92296,0.03096
3384.86279,0.03096
3382.80262,0.03110
3380.74244,0.03138
3378.68227,0.03174
3376.62210,0.03205
3374.56193,0.03209
3372.50176,0.03189
3370.44158,0.03178
3368.38141,0.03182
3366.32124,0.03190
3364.26107,0.03196
3362.20089,0.03187
3360.14072,0.03162
3358.08055,0.03147
3356.02038,0.03168
3353.96021,0.03201
3351.90003,0.03218
3349.83986,0.03226
3347.77969,0.03226
3345.71952,0.03208
3343.65935,0.03194
3341.59917,0.03214
3339.53900,0.03262
3337.47883,0.03303
3335.41866,0.03295
3333.35849,0.03266
3331.29831,0.03276
3329.23814,0.03308
3327.17797,0.03317
3325.11780,0.03308
3323.05762,0.03292
3320.99745,0.03278
3318.93728,0.03279
3316.87711,0.03298
3314.81694,0.03331
3312.75676,0.03359
3310.69659,0.03356
3308.63642,0.03327
3306.57625,0.03313
3304.51608,0.03323
3302.45590,0.03326
3300.39573,0.03332
3298.33556,0.03359
3296.27539,0.03375
3294.21521,0.03361
3292.15504,0.03344
3290.09487,0.03348
3288.03470,0.03374
3285.97453,0.03378
3283.91435,0.03344
3281.85418,0.03327
3279.79401,0.03343
3277.73384,0.03357
3275.67367,0.03370
3273.61349,0.03387
3271.55332,0.03392
3269.49315,0.03381
3267.43298,0.03353
3265.37281,0.03337
3263.31263,0.03356
3261.25246,0.03355
3259.19229,0.03320
3257.13212,0.03321
3255.07194,0.03359
3253.01177,0.03368
3250.95160,0.03352
3248.89143,0.03357
3246.83126,0.03372
3244.77108,0.03371
3242.71091,0.03353
3240.65074,0.03334
3238.59057,0.03329
3236.53040,0.03342
3234.47022,0.03345
3232.41005,0.03334
3230.34988,0.03345
3228.28971,0.03354
3226.22954,0.03331
3224.16936,0.03325
3222.10919,0.03350
3220.04902,0.03354
3217.98885,0.03333
3215.92867,0.03345
3213.86850,0.03368
3211.80833,0.03353
3209.74816,0.03339
3207.68799,0.03334
3205.62781,0.03303
3203.56764,0.03279
3201.50747,0.03295
3199.44730,0.03319
3197.38713,0.03301
3195.32695,0.03260
3193.26678,0.03243
3191.20661,0.03235
3189.14644,0.03222
3187.08626,0.03217
3185.02609,0.03225
3182.96592,0.03232
3180.90575,0.03224
3178.84558,0.03221
3176.78540,0.03224
3174.72523,0.03204
3172.66506,0.03172
3170.60489,0.03172
3168.54472,0.03192
3166.48454,0.03201
3164.42437,0.03192
3162.36420,0.03167
3160.30403,0.03128
3158.24386,0.03093
3156.18368,0.03071
3154.12351,0.03066
3152.06334,0.03094
3150.00317,0.03133
3147.94299,0.03146
3145.88282,0.03126
3143.82265,0.03086
3141.76248,0.03038
3139.70231,0.02988
3137.64213,0.02955
3135.58196,0.02968
3133.52179,0.03012
3131.46162,0.03026
3129.40145,0.03008
3127.34127,0.02995
3125.28110,0.02990
3123.22093,0.02975
3121.16076,0.02955
3119.10058,0.02935
3117.04041,0.02916
3114.98024,0.02890
3112.92007,0.02878
3110.85990,0.02889
3108.79972,0.02894
3106.73955,0.02881
3104.67938,0.02869
3102.61921,0.02859
3100.55904,0.02855
3098.49886,0.02859
3096.43869,0.02845
3094.37852,0.02810
3092.31835,0.02795
3090.25818,0.02802
3088.19800,0.02801
3086.13783,0.02792
3084.07766,0.02791
3082.01749,0.02798
3079.95731,0.02798
3077.89714,0.02789
3075.83697,0.02769
3073.77680,0.02738
3071.71663,0.02698
3069.65645,0.02658
3067.59628,0.02640
3065.53611,0.02647
3063.47594,0.02641
3061.41577,0.02625
3059.35559,0.02628
3057.29542,0.02622
3055.23525,0.02605
3053.17508,0.02605
3051.11491,0.02612
3049.05473,0.02608
3046.99456,0.02597
3044.93439,0.02581
3042.87422,0.02557
3040.81404,0.02531
3038.75387,0.02515
3036.69370,0.02511
3034.63353,0.02507
3032.57336,0.02486
3030.51318,0.02462
3028.45301,0.02459
3026.39284,0.02473
3024.33267,0.02478
3022.27250,0.02461
3020.21232,0.02428
3018.15215,0.02399
3016.09198,0.02395
3014.03181,0.02400
3011.97163,0.02396
3009.91146,0.02384
3007.85129,0.02368
3005.79112,0.02348
3003.73095,0.02316
3001.67077,0.02286
2999.61060,0.02275
2997.55043,0.02274
2995.49026,0.02257
2993.43009,0.02239
2991.36991,0.02241
2989.30974,0.02256
2987.24957,0.02265
2985.18940,0.02263
2983.12923,0.02249
2981.06905,0.02244
2979.00888,0.02262
2976.94871,0.02275
2974.88854,0.02277
2972.82836,0.02280
2970.76819,0.02266
2968.70802,0.02243
2966.64785,0.02227
2964.58768,0.02228
2962.52750,0.02245
2960.46733,0.02242
2958.40716,0.02221
2956.34699,0.02215
2954.28682,0.02215
2952.22664,0.02211
2950.16647,0.02212
2948.10630,0.02215
2946.04613,0.02210
2943.98596,0.02202
2941.92578,0.02203
2939.86561,0.02209
2937.80544,0.02214
2935.74527,0.02208
2933.68509,0.02185
2931.62492,0.02167
2929.56475,0.02170
2927.50458,0.02182
2925.44441,0.02194
2923.38423,0.02193
2921.32406,0.02178
2919.26389,0.02163
2917.20372,0.02159
2915.14355,0.02178
2913.08337,0.02202
2911.02320,0.02188
2908.96303,0.02155
2906.90286,0.02133
2904.84268,0.02117
2902.78251,0.02107
2900.72234,0.02088
2898.66217,0.02053
2896.60200,0.02040
2894.54182,0.02058
2892.48165,0.02064
2890.42148,0.02053
2888.36131,0.02050
2886.30114,0.02047
2884.24096,0.02037
2882.18079,0.02026
2880.12062,0.02013
2878.06045,0.02010
2876.00028,0.02020
2873.94010,0.02017
2871.87993,0.02009
2869.81976,0.02019
2867.75959,0.02026
2865.69941,0.02004
2863.63924,0.01969
2861.57907,0.01949
2859.51890,0.01939
2857.45873,0.01930
2855.39855,0.01916
2853.33838,0.01886
2851.27821,0.01864
2849.21804,0.01855
2847.15787,0.01835
2845.09769,0.01817
2843.03752,0.01817
2840.97735,0.01825
2838.91718,0.01808
2836.85700,0.01778
2834.79683,0.01768
2832.73666,0.01764
2830.67649,0.01749
2828.61632,0.01727
2826.55614,0.01714
2824.49597,0.01715
2822.43580,0.01708
2820.37563,0.01689
2818.31546,0.01672
2816.25528,0.01662
2814.19511,0.01658
2812.13494,0.01656
2810.07477,0.01647
2808.01460,0.01632
2805.95442,0.01630
2803.89425,0.01648
2801.83408,0.01653
2799.77391,0.01629
2797.71373,0.01590
2795.65356,0.01546
2793.59339,0.01522
2791.53322,0.01535
2789.47305,0.01541
2787.41287,0.01515
2785.35270,0.01490
2783.29253,0.01483
2781.23236,0.01479
2779.17219,0.01485
2777.11201,0.01500
2775.05184,0.01501
2772.99167,0.01469
2770.93150,0.01423
2768.87133,0.01399
2766.81115,0.01400
2764.75098,0.01408
2762.69081,0.01423
2760.63064,0.01435
2758.57046,0.01430
2756.51029,0.01416
2754.45012,0.01398
2752.38995,0.01384
2750.32978,0.01381
2748.26960,0.01378
2746.20943,0.01372
2744.14926,0.01359
2742.08909,0.01336
2740.02892,0.01316
2737.96874,0.01303
2735.90857,0.01290
2733.84840,0.01270
2731.78823,0.01258
2729.72805,0.01277
2727.66788,0.01312
2725.60771,0.01312
2723.54754,0.01271
2721.48737,0.01231
2719.42719,0.01220
2717.36702,0.01225
2715.30685,0.01225
2713.24668,0.01237
2711.18651,0.01258
2709.12633,0.01247
2707.06616,0.01209
2705.00599,0.01196
2702.94582,0.01192
2700.88565,0.01166
2698.82547,0.01162
2696.76530,0.01184
2694.70513,0.01183
2692.64496,0.01150
2690.58478,0.01120
2688.52461,0.01117
2686.46444,0.01131
2684.40427,0.01136
2682.34410,0.01132
2680.28392,0.01135
2678.22375,0.01132
2676.16358,0.01126
2674.10341,0.01130
2672.04324,0.01128
2669.98306,0.01113
2667.92289,0.01094
2665.86272,0.01083
2663.80255,0.01082
2661.74238,0.01081
2659.68220,0.01076
2657.62203,0.01076
2655.56186,0.01084
2653.50169,0.01089
2651.44151,0.01089
2649.38134,0.01087
2647.32117,0.01082
2645.26100,0.01099
2643.20083,0.01135
2641.14065,0.01141
2639.08048,0.01122
2637.02031,0.01110
2634.96014,0.01107
2632.89997,0.01094
2630.83979,0.01061
2628.77962,0.01026
2626.71945,0.01014
2624.65928,0.01022
2622.59910,0.01021
2620.53893,0.01020
2618.47876,0.01026
2616.41859,0.01022
2614.35842,0.01008
2612.29824,0.01012
2610.23807,0.01033
2608.17790,0.01041
2606.11773,0.01044
2604.05756,0.01040
2601.99738,0.01026
2599.93721,0.01042
2597.87704,0.01064
2595.81687,0.01040
2593.75670,0.01004
2591.69652,0.00999
2589.63635,0.01007
2587.57618,0.01002
2585.51601,0.00984
2583.45583,0.00979
2581.39566,0.00996
2579.33549,0.01019
2577.27532,0.01032
2575.21515,0.01035
2573.15497,0.01025
2571.09480,0.01005
2569.03463,0.01005
2566.97446,0.01021
2564.91429,0.01020
2562.85411,0.01033
2560.79394,0.01047
2558.73377,0.01023
2556.67360,0.01012
2554.61342,0.01018
2552.55325,0.00997
2550.49308,0.00963
2548.43291,0.00968
2546.37274,0.01026
2544.31256,0.01085
2542.25239,0.01092
2540.19222,0.01070
2538.13205,0.01040
2536.07188,0.01019
2534.01170,0.01039
2531.95153,0.01062
2529.89136,0.01049
2527.83119,0.01034
2525.77102,0.01039
2523.71084,0.01041
2521.65067,0.01031
2519.59050,0.01021
2517.53033,0.01026
2515.47015,0.01027
2513.40998,0.01017
2511.34981,0.01018
2509.28964,0.01025
2507.22947,0.01037
2505.16929,0.01069
2503.10912,0.01098
2501.04895,0.01113
2498.98878,0.01136
2496.92861,0.01113
2494.86843,0.01036
2492.80826,0.01009
2490.74809,0.01066
2488.68792,0.01132
2486.62775,0.01152
2484.56757,0.01154
2482.50740,0.01158
2480.44723,0.01167
2478.38706,0.01188
2476.32688,0.01199
2474.26671,0.01184
2472.20654,0.01156
2470.14637,0.01147
2468.08620,0.01171
2466.02602,0.01178
2463.96585,0.01148
2461.90568,0.01146
2459.84551,0.01179
2457.78534,0.01193
2455.72516,0.01175
2453.66499,0.01152
2451.60482,0.01156
2449.54465,0.01184
2447.48447,0.01205
2445.42430,0.01204
2443.36413,0.01199
2441.30396,0.01209
2439.24379,0.01209
2437.18361,0.01182
2435.12344,0.01142
2433.06327,0.01134
2431.00310,0.01188
2428.94293,0.01246
2426.88275,0.01250
2424.82258,0.01217
2422.76241,0.01194
2420.70224,0.01178
2418.64207,0.01155
2416.58189,0.01166
2414.52172,0.01212
2412.46155,0.01242
2410.40138,0.01249
2408.34120,0.01223
2406.28103,0.01178
2404.22086,0.01158
2402.16069,0.01153
2400.10052,0.01145
2398.04034,0.01114
2395.98017,0.01117
2393.92000,0.01130
2391.85983,0.01152
2389.79966,0.01199
2387.73948,0.01258
2385.67931,0.01294
2383.61914,0.01302
2381.55897,0.01314
2379.49880,0.01376
2377.43862,0.01472
2375.37845,0.01506
2373.31828,0.01447
2371.25811,0.01397
2369.19793,0.01412
2367.13776,0.01440
2365.07759,0.01340
2363.01742,0.00996
2360.95725,0.00652
2358.89707,0.00706
2356.83690,0.01136
2354.77673,0.01511
2352.71656,0.01590
2350.65639,0.01542
2348.59621,0.01506
2346.53604,0.01479
2344.47587,0.01466
2342.41570,0.01497
2340.35552,0.01535
2338.29535,0.01536
2336.23518,0.01482
2334.17501,0.01397
2332.11484,0.01362
2330.05466,0.01404
2327.99449,0.01455
2325.93432,0.01491
2323.87415,0.01512
2321.81398,0.01514
2319.75380,0.01510
2317.69363,0.01489
2315.63346,0.01433
2313.57329,0.01352
2311.51312,0.01281
2309.45294,0.01254
2307.39277,0.01257
2305.33260,0.01278
2303.27243,0.01296
2301.21225,0.01272
2299.15208,0.01239
2297.09191,0.01253
2295.03174,0.01291
2292.97157,0.01302
2290.91139,0.01302
2288.85122,0.01299
2286.79105,0.01256
2284.73088,0.01173
2282.67071,0.01091
2280.61053,0.01038
2278.55036,0.01015
2276.49019,0.01027
2274.43002,0.01065
2272.36984,0.01099
2270.30967,0.01120
2268.24950,0.01115
2266.18933,0.01061
2264.12916,0.01028
2262.06898,0.01057
2260.00881,0.01064
2257.94864,0.01027
2255.88847,0.01003
2253.82830,0.00994
2251.76812,0.00959
2249.70795,0.00924
2247.64778,0.00971
2245.58761,0.01018
2243.52744,0.00989
2241.46726,0.00974
2239.40709,0.01011
2237.34692,0.01028
2235.28675,0.00976
2233.22657,0.00894
2231.16640,0.00891
2229.10623,0.00938
2227.04606,0.00958
2224.98589,0.00943
2222.92571,0.00875
2220.86554,0.00812
2218.80537,0.00829
2216.74520,0.00862
2214.68503,0.00824
2212.62485,0.00765
2210.56468,0.00748
2208.50451,0.00787
2206.44434,0.00905
2204.38417,0.00981
2202.32399,0.00896
2200.26382,0.00773
2198.20365,0.00761
2196.14348,0.00852
2194.08330,0.00939
2192.02313,0.00938
2189.96296,0.00864
2187.90279,0.00763
2185.84262,0.00719
2183.78244,0.00781
2181.72227,0.00828
2179.66210,0.00759
2177.60193,0.00683
2175.54176,0.00631
2173.48158,0.00598
2171.42141,0.00648
2169.36124,0.00701
2167.30107,0.00707
2165.24089,0.00765
2163.18072,0.00836
2161.12055,0.00713
2159.06038,0.00367
2157.00021,0.00048
2154.94003,0.00003
2152.87986,0.00213
2150.81969,0.00403
2148.75952,0.00401
2146.69935,0.00406
2144.63917,0.00561
2142.57900,0.00663
2140.51883,0.00618
2138.45866,0.00530
2136.39849,0.00433
2134.33831,0.00384
2132.27814,0.00395
2130.21797,0.00416
2128.15780,0.00491
2126.09762,0.00571
2124.03745,0.00613
2121.97728,0.00684
2119.91711,0.00760
2117.85694,0.00741
2115.79676,0.00643
2113.73659,0.00604
2111.67642,0.00649
2109.61625,0.00690
2107.55608,0.00671
2105.49590,0.00612
2103.43573,0.00599
2101.37556,0.00645
2099.31539,0.00657
2097.25521,0.00622
2095.19504,0.00610
2093.13487,0.00623
2091.07470,0.00619
2089.01453,0.00612
2086.95435,0.00598
2084.89418,0.00561
2082.83401,0.00563
2080.77384,0.00605
2078.71367,0.00603
2076.65349,0.00572
2074.59332,0.00556
2072.53315,0.00521
2070.47298,0.00469
2068.41281,0.00457
2066.35263,0.00509
2064.29246,0.00546
2062.23229,0.00515
2060.17212,0.00493
2058.11194,0.00513
2056.05177,0.00528
2053.99160,0.00560
2051.93143,0.00566
2049.87126,0.00487
2047.81108,0.00489
2045.75091,0.00579
2043.69074,0.00528
2041.63057,0.00394
2039.57040,0.00338
2037.51022,0.00331
2035.45005,0.00390
2033.38988,0.00499
2031.32971,0.00501
2029.26954,0.00443
2027.20936,0.00491
2025.14919,0.00570
2023.08902,0.00550
2021.02885,0.00429
2018.96867,0.00287
2016.90850,0.00228
2014.84833,0.00190
2012.78816,0.00108
2010.72799,0.00140
2008.66781,0.00268
2006.60764,0.00297
2004.54747,0.00208
2002.48730,0.00136
2000.42713,0.00218
1998.36695,0.00394
1996.30678,0.00490
1994.24661,0.00429
1992.18644,0.00333
1990.12626,0.00374
1988.06609,0.00474
1986.00592,0.00478
1983.94575,0.00389
1981.88558,0.00258
1979.82540,0.00208
1977.76523,0.00350
1975.70506,0.00446
1973.64489,0.00295
1971.58472,0.00190
1969.52454,0.00284
1967.46437,0.00334
1965.40420,0.00269
1963.34403,0.00263
1961.28386,0.00334
1959.22368,0.00356
1957.16351,0.00288
1955.10334,0.00213
1953.04317,0.00215
1950.98299,0.00298
1948.92282,0.00421
1946.86265,0.00504
1944.80248,0.00494
1942.74231,0.00437
1940.68213,0.00440
1938.62196,0.00495
1936.56179,0.00469
1934.50162,0.00363
1932.44145,0.00287
1930.38127,0.00293
1928.32110,0.00369
1926.26093,0.00443
1924.20076,0.00469
1922.14059,0.00466
1920.08041,0.00436
1918.02024,0.00435
1915.96007,0.00477
1913.89990,0.00454
1911.83972,0.00349
1909.77955,0.00292
1907.71938,0.00328
1905.65921,0.00378
1903.59904,0.00410
1901.53886,0.00445
1899.47869,0.00486
1897.41852,0.00526
1895.35835,0.00520
1893.29818,0.00463
1891.23800,0.00437
1889.17783,0.00473
1887.11766,0.00504
1885.05749,0.00497
1882.99731,0.00487
1880.93714,0.00483
1878.87697,0.00477
1876.81680,0.00484
1874.75663,0.00485
1872.69645,0.00444
1870.63628,0.00406
1868.57611,0.00453
1866.51594,0.00541
1864.45577,0.00568
1862.39559,0.00541
1860.33542,0.00526
1858.27525,0.00564
1856.21508,0.00610
1854.15491,0.00605
1852.09473,0.00558
1850.03456,0.00515
1847.97439,0.00496
1845.91422,0.00501
1843.85404,0.00533
1841.79387,0.00553
1839.73370,0.00537
1837.67353,0.00520
1835.61336,0.00533
1833.55318,0.00558
1831.49301,0.00578
1829.43284,0.00583
1827.37267,0.00575
1825.31250,0.00563
1823.25232,0.00550
1821.19215,0.00547
1819.13198,0.00567
1817.07181,0.00585
1815.01163,0.00587
1812.95146,0.00590
1810.89129,0.00592
1808.83112,0.00598
1806.77095,0.00631
1804.71077,0.00679
1802.65060,0.00711
1800.59043,0.00723
1798.53026,0.00727
1796.47009,0.00727
1794.40991,0.00721
1792.34974,0.00713
1790.28957,0.00705
1788.22940,0.00701
1786.16923,0.00704
1784.10905,0.00717
1782.04888,0.00735
1779.98871,0.00732
1777.92854,0.00704
1775.86836,0.00686
1773.80819,0.00698
1771.74802,0.00724
1769.68785,0.00743
1767.62768,0.00748
1765.56750,0.00739
1763.50733,0.00728
1761.44716,0.00730
1759.38699,0.00747
1757.32682,0.00767
1755.26664,0.00783
1753.20647,0.00799
1751.14630,0.00827
1749.08613,0.00871
1747.02596,0.00911
1744.96578,0.00924
1742.90561,0.00902
1740.84544,0.00858
1738.78527,0.00831
1736.72509,0.00841
1734.66492,0.00876
1732.60475,0.00889
1730.54458,0.00851
1728.48441,0.00813
1726.42423,0.00806
1724.36406,0.00814
1722.30389,0.00821
1720.24372,0.00820
1718.18355,0.00812
1716.12337,0.00815
1714.06320,0.00833
1712.00303,0.00855
1709.94286,0.00871
1707.88268,0.00886
1705.82251,0.00921
1703.76234,0.00970
1701.70217,0.01001
1699.64200,0.01013
1697.58182,0.01023
1695.52165,0.01052
1693.46148,0.01106
1691.40131,0.01170
1689.34114,0.01220
1687.28096,0.01239
1685.22079,0.01280
1683.16062,0.01386
1681.10045,0.01476
1679.04028,0.01508
1676.98010,0.01521
1674.91993,0.01544
1672.85976,0.01580
1670.79959,0.01635
1668.73941,0.01711
1666.67924,0.01774
1664.61907,0.01819
1662.55890,0.01858
1660.49873,0.01888
1658.43855,0.01905
1656.37838,0.01914
1654.31821,0.01914
1652.25804,0.01920
1650.19787,0.01945
1648.13769,0.01968
1646.07752,0.01966
1644.01735,0.01944
1641.95718,0.01927
1639.89701,0.01920
1637.83683,0.01908
1635.77666,0.01877
1633.71649,0.01827
1631.65632,0.01780
1629.59614,0.01740
1627.53597,0.01707
1625.47580,0.01677
1623.41563,0.01642
1621.35546,0.01593
1619.29528,0.01522
1617.23511,0.01458
1615.17494,0.01453
1613.11477,0.01484
1611.05460,0.01492
1608.99442,0.01466
1606.93425,0.01431
1604.87408,0.01397
1602.81391,0.01361
1600.75373,0.01331
1598.69356,0.01312
1596.63339,0.01290
1594.57322,0.01263
1592.51305,0.01240
1590.45287,0.01222
1588.39270,0.01198
1586.33253,0.01168
1584.27236,0.01142
1582.21219,0.01119
1580.15201,0.01088
1578.09184,0.01054
1576.03167,0.01035
1573.97150,0.01028
1571.91133,0.01007
1569.85115,0.00978
1567.79098,0.00972
1565.73081,0.00981
1563.67064,0.00975
1561.61046,0.00956
1559.55029,0.00955
1557.49012,0.00975
1555.42995,0.00975
1553.36978,0.00967
1551.30960,0.00962
1549.24943,0.00948
1547.18926,0.00929
1545.12909,0.00931
1543.06892,0.00942
1541.00874,0.00913
1538.94857,0.00841
1536.88840,0.00801
1534.82823,0.00795
1532.76805,0.00789
1530.70788,0.00777
1528.64771,0.00775
1526.58754,0.00780
1524.52737,0.00762
1522.46719,0.00724
1520.40702,0.00707
1518.34685,0.00715
1516.28668,0.00713
1514.22651,0.00690
1512.16633,0.00674
1510.10616,0.00680
1508.04599,0.00671
1505.98582,0.00607
1503.92565,0.00550
1501.86547,0.00534
1499.80530,0.00526
1497.74513,0.00504
1495.68496,0.00473
1493.62478,0.00449
1491.56461,0.00446
1489.50444,0.00460
1487.44427,0.00454
1485.38410,0.00426
1483.32392,0.00421
1481.26375,0.00441
1479.20358,0.00454
1477.14341,0.00460
1475.08324,0.00470
1473.02306,0.00484
1470.96289,0.00488
1468.90272,0.00481
1466.84255,0.00473
1464.78238,0.00476
1462.72220,0.00496
1460.66203,0.00529
1458.60186,0.00552
1456.54169,0.00531
1454.48151,0.00496
1452.42134,0.00493
1450.36117,0.00503
1448.30100,0.00512
1446.24083,0.00525
1444.18065,0.00532
1442.12048,0.00529
1440.06031,0.00526
1438.00014,0.00531
1435.93997,0.00550
1433.87979,0.00572
1431.81962,0.00591
1429.75945,0.00607
1427.69928,0.00621
1425.63910,0.00641
1423.57893,0.00670
1421.51876,0.00697
1419.45859,0.00728
1417.39842,0.00752
1415.33824,0.00749
1413.27807,0.00755
1411.21790,0.00792
1409.15773,0.00825
1407.09756,0.00839
1405.03738,0.00848
1402.97721,0.00855
1400.91704,0.00863
1398.85687,0.00880
1396.79670,0.00889
1394.73652,0.00869
1392.67635,0.00844
1390.61618,0.00838
1388.55601,0.00842
1386.49583,0.00831
1384.43566,0.00814
1382.37549,0.00812
1380.31532,0.00816
1378.25515,0.00820
1376.19497,0.00829
1374.13480,0.00839
1372.07463,0.00845
1370.01446,0.00854
1367.95429,0.00867
1365.89411,0.00879
1363.83394,0.00890
1361.77377,0.00892
1359.71360,0.00875
1357.65343,0.00853
1355.59325,0.00841
1353.53308,0.00828
1351.47291,0.00797
1349.41274,0.00752
1347.35256,0.00712
1345.29239,0.00679
1343.23222,0.00656
1341.17205,0.00654
1339.11188,0.00649
1337.05170,0.00604
1334.99153,0.00542
1332.93136,0.00499
1330.87119,0.00479
1328.81102,0.00472
1326.75084,0.00465
1324.69067,0.00446
1322.63050,0.00423
1320.57033,0.00402
1318.51015,0.00385
1316.44998,0.00372
1314.38981,0.00358
1312.32964,0.00342
1310.26947,0.00334
1308.20929,0.00338
1306.14912,0.00340
1304.08895,0.00332
1302.02878,0.00326
1299.96861,0.00321
1297.90843,0.00307
1295.84826,0.00287
1293.78809,0.00281
1291.72792,0.00290
1289.66775,0.00291
1287.60757,0.00282
1285.54740,0.00270
1283.48723,0.00256
1281.42706,0.00247
1279.36688,0.00241
1277.30671,0.00237
1275.24654,0.00237
1273.18637,0.00243
1271.12620,0.00250
1269.06602,0.00250
1267.00585,0.00241
1264.94568,0.00234
1262.88551,0.00238
1260.82534,0.00237
1258.76516,0.00230
1256.70499,0.00228
1254.64482,0.00237
1252.58465,0.00247
1250.52447,0.00241
1248.46430,0.00223
1246.40413,0.00216
1244.34396,0.00225
1242.28379,0.00223
1240.22361,0.00201
1238.16344,0.00187
1236.10327,0.00182
1234.04310,0.00167
1231.98293,0.00146
1229.92275,0.00131
1227.86258,0.00116
1225.80241,0.00098
1223.74224,0.00079
1221.68207,0.00063
1219.62189,0.00052
1217.56172,0.00036
1215.50155,0.00017
1213.44138,0.00004
1211.38120,0.00003
1209.32103,0.00003
1207.26086,0.00000
1205.20069,0.00009
1203.14052,0.00030
1201.08034,0.00060
1199.02017,0.00103
1196.96000,0.00145
1194.89983,0.00176
1192.83966,0.00225
1190.77948,0.00316
1188.71931,0.00420
1186.65914,0.00510
1184.59897,0.00608
1182.53880,0.00744
1180.47862,0.00902
1178.41845,0.01040
1176.35828,0.01153
1174.29811,0.01257
1172.23793,0.01368
1170.17776,0.01493
1168.11759,0.01626
1166.05742,0.01753
1163.99725,0.01873
1161.93707,0.01987
1159.87690,0.02099
1157.81673,0.02222
1155.75656,0.02350
1153.69639,0.02465
1151.63621,0.02573
1149.57604,0.02684
1147.51587,0.02782
1145.45570,0.02838
1143.39552,0.02862
1141.33535,0.02881
1139.27518,0.02906
1137.21501,0.02927
1135.15484,0.02931
1133.09466,0.02926
1131.03449,0.02915
1128.97432,0.02913
1126.91415,0.02920
1124.85398,0.02934
1122.79380,0.02971
1120.73363,0.03062
1118.67346,0.03200
1116.61329,0.03321
1114.55312,0.03408
1112.49294,0.03516
1110.43277,0.03663
1108.37260,0.03811
1106.31243,0.03940
1104.25225,0.04079
1102.19208,0.04226
1100.13191,0.04344
1098.07174,0.04448
1096.01157,0.04569
1093.95139,0.04696
1091.89122,0.04812
1089.83105,0.04928
1087.77088,0.05049
1085.71071,0.05161
1083.65053,0.05259
1081.59036,0.05356
1079.53019,0.05472
1077.47002,0.05596
1075.40985,0.05688
1073.34967,0.05725
1071.28950,0.05715
1069.22933,0.05710
1067.16916,0.05728
1065.10898,0.05712
1063.04881,0.05638
1060.98864,0.05553
1058.92847,0.05476
1056.86830,0.05376
1054.80812,0.05232
1052.74795,0.05072
1050.68778,0.04914
1048.62761,0.04753
1046.56744,0.04595
1044.50726,0.04417
1042.44709,0.04214
1040.38692,0.04026
1038.32675,0.03863
1036.26657,0.03698
1034.20640,0.03523
1032.14623,0.03345
1030.08606,0.03175
1028.02589,0.03039
1025.96571,0.02927
1023.90554,0.02800
1021.84537,0.02671
1019.78520,0.02570
1017.72503,0.02500
1015.66485,0.02443
1013.60468,0.02384
1011.54451,0.02342
1009.48434,0.02330
1007.42417,0.02335
1005.36399,0.02356
1003.30382,0.02410
1001.24365,0.02493
999.18348,0.02589
997.12330,0.02674
995.06313,0.02736
993.00296,0.02801
990.94279,0.02877
988.88262,0.02967
986.82244,0.03050
984.76227,0.03092
982.70210,0.03113
980.64193,0.03131
978.58176,0.03111
976.52158,0.03065
974.46141,0.03031
972.40124,0.03014
970.34107,0.02979
968.28089,0.02901
966.22072,0.02825
964.16055,0.02782
962.10038,0.02743
960.04021,0.02706
957.98003,0.02688
955.91986,0.02668
953.85969,0.02641
951.79952,0.02628
949.73935,0.02624
947.67917,0.02615
945.61900,0.02595
943.55883,0.02546
941.49866,0.02463
939.43849,0.02379
937.37831,0.02318
935.31814,0.02255
933.25797,0.02188
931.19780,0.02129
929.13762,0.02056
927.07745,0.01947
925.01728,0.01839
922.95711,0.01769
920.89694,0.01681
918.83676,0.01551
916.77659,0.01434
914.71642,0.01344
912.65625,0.01263
910.59608,0.01181
908.53590,0.01121
906.47573,0.01095
904.41556,0.01073
902.35539,0.01037
900.29522,0.00999
898.23504,0.00956
896.17487,0.00900
894.11470,0.00873
892.05453,0.00910
889.99435,0.00979
887.93418,0.01035
885.87401,0.01079
883.81384,0.01144
881.75367,0.01275
879.69349,0.01438
877.63332,0.01549
875.57315,0.01646
873.51298,0.01775
871.45281,0.01912
869.39263,0.02082
867.33246,0.02278
865.27229,0.02439
863.21212,0.02573
861.15194,0.02722
859.09177,0.02898
857.03160,0.03067
854.97143,0.03160
852.91126,0.03147
850.85108,0.03054
848.79091,0.02934
846.73074,0.02838
844.67057,0.02748
842.61040,0.02651
840.55022,0.02578
838.49005,0.02508
836.42988,0.02418
834.36971,0.02297
832.30954,0.02173
830.24936,0.02098
828.18919,0.02016
826.12902,0.01910
824.06885,0.01847
822.00867,0.01776
819.94850,0.01665
817.88833,0.01579
815.82816,0.01518
813.76799,0.01468
811.70781,0.01449
809.64764,0.01439
807.58747,0.01386
805.52730,0.01298
803.46713,0.01235
801.40695,0.01183
799.34678,0.01102
797.28661,0.01023
795.22644,0.01005
793.16627,0.01035
791.10609,0.01028
789.04592,0.00978
786.98575,0.00966
784.92558,0.00957
782.86540,0.00912
780.80523,0.00888
778.74506,0.00866
776.68489,0.00832
774.62472,0.00825
772.56454,0.00835
770.50437,0.00822
768.44420,0.00833
766.38403,0.00881
764.32386,0.00847
762.26368,0.00738
760.20351,0.00678
758.14334,0.00696
756.08317,0.00705
754.02299,0.00657
751.96282,0.00643
749.90265,0.00694
747.84248,0.00718
745.78231,0.00703
743.72213,0.00674
741.66196,0.00639
739.60179,0.00644
737.54162,0.00654
735.48145,0.00627
733.42127,0.00605
731.36110,0.00594
729.30093,0.00593
727.24076,0.00644
725.18059,0.00723
723.12041,0.00764
721.06024,0.00709
719.00007,0.00627
716.93990,0.00568
714.87972,0.00533
712.81955,0.00506
710.75938,0.00502
708.69921,0.00546
706.63904,0.00608
704.57886,0.00646
702.51869,0.00647
700.45852,0.00623
698.39835,0.00601
696.33818,0.00599
694.27800,0.00632
692.21783,0.00670
690.15766,0.00643
688.09749,0.00567
686.03731,0.00498
683.97714,0.00441
681.91697,0.00404
679.85680,0.00397
677.79663,0.00434
675.73645,0.00525
673.67628,0.00610
671.61611,0.00605
669.55594,0.00550
667.49577,0.00533
665.43559,0.00503
663.37542,0.00561
661.31525,0.00621
659.25508,0.00578
657.19491,0.00473
655.13473,0.00410
653.07456,0.00407
651.01439,0.00414
648.95422,0.00426
646.89404,0.00494
644.83387,0.00580
642.77370,0.00593
640.71353,0.00559
638.65336,0.00559
636.59318,0.00582
634.53301,0.00607
632.47284,0.00606
630.41267,0.00529
628.35250,0.00418
626.29232,0.00326
624.23215,0.00251
622.17198,0.00290
620.11181,0.00474
618.05164,0.00644
615.99146,0.00615
613.93129,0.00569
611.87112,0.00664
609.81095,0.00745
607.75077,0.00708
605.69060,0.00530
603.63043,0.00264
601.57026,0.00014
599.51009,0.00000
