3996.73391,-0.00073
3994.67373,-0.00081
3992.61356,-0.00061
3990.55339,-0.00013
3988.49322,0.00020
3986.43305,0.00015
3984.37287,-0.00004
3982.31270,-0.00011
3980.25253,-0.00013
3978.19236,-0.00022
3976.13219,-0.00032
3974.07201,-0.00024
3972.01184,-0.00011
3969.95167,-0.00008
3967.89150,0.00002
3965.83133,0.00020
3963.77115,0.00028
3961.71098,0.00026
3959.65081,0.00019
3957.59064,0.00004
3955.53046,0.00000
3953.47029,0.00020
3951.41012,0.00029
3949.34995,0.00011
3947.28978,0.00000
3945.22960,0.00018
3943.16943,0.00038
3941.10926,0.00037
3939.04909,0.00023
3936.98892,0.00000
3934.92874,-0.00021
3932.86857,-0.00003
3930.80840,0.00061
3928.74823,0.00099
3926.68805,0.00087
3924.62788,0.00060
3922.56771,0.00031
3920.50754,0.00004
3918.44737,0.00000
3916.38719,0.00039
3914.32702,0.00099
3912.26685,0.00131
3910.20668,0.00129
3908.14651,0.00108
3906.08633,0.00078
3904.02616,0.00060
3901.96599,0.00083
3899.90582,0.00132
3897.84565,0.00143
3895.78547,0.00106
3893.72530,0.00067
3891.66513,0.00057
3889.60496,0.00064
3887.54478,0.00064
3885.48461,0.00062
3883.42444,0.00052
3881.36427,0.00050
3879.30410,0.00077
3877.24392,0.00089
3875.18375,0.00079
3873.12358,0.00068
3871.06341,0.00058
3869.00324,0.00073
3866.94306,0.00081
3864.88289,0.00057
3862.82272,0.00049
3860.76255,0.00070
3858.70237,0.00060
3856.64220,0.00000
3854.58203,0.00003
3852.52186,0.00151
3850.46169,0.00261
3848.40151,0.00219
3846.34134,0.00136
3844.28117,0.00108
3842.22100,0.00130
3840.16083,0.00146
3838.10065,0.00137
3836.04048,0.00129
3833.98031,0.00127
3831.92014,0.00136
3829.85997,0.00152
3827.79979,0.00146
3825.73962,0.00118
3823.67945,0.00095
3821.61928,0.00100
3819.55910,0.00110
3817.49893,0.00122
3815.43876,0.00159
3813.37859,0.00186
3811.31842,0.00168
3809.25824,0.00136
3807.19807,0.00135
3805.13790,0.00161
3803.07773,0.00186
3801.01756,0.00204
3798.95738,0.00203
3796.89721,0.00212
3794.83704,0.00251
3792.77687,0.00273
3790.71670,0.00257
3788.65652,0.00244
3786.59635,0.00250
3784.53618,0.00255
3782.47601,0.00255
3780.41583,0.00265
3778.35566,0.00286
3776.29549,0.00292
3774.23532,0.00271
3772.17515,0.00237
3770.11497,0.00212
3768.05480,0.00210
3765.99463,0.00219
3763.93446,0.00204
3761.87429,0.00171
3759.81411,0.00158
3757.75394,0.00157
3755.69377,0.00122
3753.63360,0.00068
3751.57342,0.00040
3749.51325,0.00052
3747.45308,0.00062
3745.39291,0.00047
3743.33274,0.00061
3741.27256,0.00065
3739.21239,0.00028
3737.15222,0.00027
3735.09205,0.00092
3733.03188,0.00161
3730.97170,0.00176
3728.91153,0.00163
3726.85136,0.00159
3724.79119,0.00165
3722.73102,0.00171
3720.67084,0.00174
3718.61067,0.00165
3716.55050,0.00143
3714.49033,0.00144
3712.43015,0.00202
3710.36998,0.00273
3708.30981,0.00298
3706.24964,0.00277
3704.18947,0.00241
3702.12929,0.00227
3700.06912,0.00247
3698.00895,0.00272
3695.94878,0.00276
3693.88861,0.00253
3691.82843,0.00227
3689.76826,0.00239
3687.70809,0.00290
3685.64792,0.00326
3683.58775,0.00330
3681.52757,0.00313
3679.46740,0.00267
3677.40723,0.00227
3675.34706,0.00249
3673.28688,0.00285
3671.22671,0.00320
3669.16654,0.00394
3667.10637,0.00428
3665.04620,0.00390
3662.98602,0.00346
3660.92585,0.00334
3658.86568,0.00345
3656.80551,0.00360
3654.74534,0.00354
3652.68516,0.00324
3650.62499,0.00335
3648.56482,0.00431
3646.50465,0.00530
3644.44447,0.00535
3642.38430,0.00505
3640.32413,0.00501
3638.26396,0.00505
3636.20379,0.00505
3634.14361,0.00514
3632.08344,0.00536
3630.02327,0.00577
3627.96310,0.00639
3625.90293,0.00675
3623.84275,0.00666
3621.78258,0.00646
3619.72241,0.00659
3617.66224,0.00708
3615.60207,0.00738
3613.54189,0.00726
3611.48172,0.00709
3609.42155,0.00725
3607.36138,0.00768
3605.30120,0.00807
3603.24103,0.00840
3601.18086,0.00878
3599.12069,0.00906
3597.06052,0.00913
3595.00034,0.00923
3592.94017,0.00940
3590.88000,0.00951
3588.81983,0.00964
3586.75966,0.00996
3584.69948,0.01042
3582.63931,0.01076
3580.57914,0.01099
3578.51897,0.01131
3576.45879,0.01169
3574.39862,0.01191
3572.33845,0.01197
3570.27828,0.01198
3568.21811,0.01208
3566.15793,0.01248
3564.09776,0.01302
3562.03759,0.01340
3559.97742,0.01364
3557.91725,0.01381
3555.85707,0.01399
3553.79690,0.01430
3551.73673,0.01457
3549.67656,0.01449
3547.61639,0.01418
3545.55621,0.01421
3543.49604,0.01480
3541.43587,0.01554
3539.37570,0.01605
3537.31552,0.01627
3535.25535,0.01639
3533.19518,0.01662
3531.13501,0.01696
3529.07484,0.01726
3527.01466,0.01745
3524.95449,0.01759
3522.89432,0.01780
3520.83415,0.01808
3518.77398,0.01839
3516.71380,0.01873
3514.65363,0.01902
3512.59346,0.01913
3510.53329,0.01907
3508.47312,0.01908
3506.41294,0.01917
3504.35277,0.01921
3502.29260,0.01940
3500.23243,0.01992
3498.17225,0.02042
3496.11208,0.02065
3494.05191,0.02077
3491.99174,0.02091
3489.93157,0.02113
3487.87139,0.02141
3485.81122,0.02153
3483.75105,0.02146
3481.69088,0.02149
3479.63071,0.02170
3477.57053,0.02210
3475.51036,0.02266
3473.45019,0.02307
3471.39002,0.02308
3469.32984,0.02307
3467.26967,0.02331
3465.20950,0.02353
3463.14933,0.02357
3461.08916,0.02363
3459.02898,0.02387
3456.96881,0.02410
3454.90864,0.02437
3452.84847,0.02478
3450.78830,0.02501
3448.72812,0.02492
3446.66795,0.02485
3444.60778,0.02488
3442.54761,0.02484
3440.48744,0.02478
3438.42726,0.02488
3436.36709,0.02524
3434.30692,0.02566
3432.24675,0.02584
3430.18657,0.02589
3428.12640,0.02603
3426.06623,0.02614
3424.00606,0.02616
3421.94589,0.02623
3419.88571,0.02639
3417.82554,0.02666
3415.76537,0.02698
3413.70520,0.02719
3411.64503,0.02723
3409.58485,0.02723
3407.52468,0.02739
3405.46451,0.02762
3403.40434,0.02768
3401.34416,0.02766
3399.28399,0.02734
3397.22382,0.02736
3395.16365,0.02752
3393.10348,0.02760
3391.04330,0.02756
3388.98313,0.02765
3386.92296,0.02789
3384.86279,0.02817
3382.80262,0.02843
3380.74244,0.02862
3378.68227,0.02884
3376.62210,0.02912
3374.56193,0.02923
3372.50176,0.02914
3370.44158,0.02908
3368.38141,0.02905
3366.32124,0.02908
3364.26107,0.02928
3362.20089,0.02943
3360.14072,0.02940
3358.08055,0.02940
3356.02038,0.02941
3353.96021,0.02930
3351.90003,0.02917
3349.83986,0.02922
3347.77969,0.02946
3345.71952,0.02965
3343.65935,0.02968
3341.59917,0.02964
3339.53900,0.02959
3337.47883,0.02974
3335.41866,0.02999
3333.35849,0.03013
3331.29831,0.03029
3329.23814,0.03056
3327.17797,0.03072
3325.11780,0.03074
3323.05762,0.03080
3320.99745,0.03096
3318.93728,0.03105
3316.87711,0.03097
3314.81694,0.03072
3312.75676,0.03039
3310.69659,0.03024
3308.63642,0.03037
3306.57625,0.03059
3304.51608,0.03076
3302.45590,0.03097
3300.39573,0.03105
3298.33556,0.03090
3296.27539,0.03081
3294.21521,0.03090
3292.15504,0.03093
3290.09487,0.03088
3288.03470,0.03096
3285.97453,0.03105
3283.91435,0.03108
3281.85418,0.03115
3279.79401,0.03112
3277.73384,0.03099
3275.67367,0.03097
3273.61349,0.03107
3271.55332,0.03113
3269.49315,0.03111
3267.43298,0.03105
3265.37281,0.03113
3263.31263,0.03124
3261.25246,0.03115
3259.19229,0.03092
3257.13212,0.03078
3255.07194,0.03080
3253.01177,0.03082
3250.95160,0.03080
3248.89143,0.03088
3246.83126,0.03100
3244.77108,0.03106
3242.71091,0.03102
3240.65074,0.03098
3238.59057,0.03113
3236.53040,0.03141
3234.47022,0.03152
3232.41005,0.03147
3230.34988,0.03131
3228.28971,0.03104
3226.22954,0.03084
3224.16936,0.03085
3222.10919,0.03087
3220.04902,0.03084
3217.98885,0.03085
3215.92867,0.03095
3213.86850,0.03113
3211.80833,0.03119
3209.74816,0.03094
3207.68799,0.03071
3205.62781,0.03074
3203.56764,0.03079
3201.50747,0.03066
3199.44730,0.03057
3197.38713,0.03061
3195.32695,0.03052
3193.26678,0.03037
3191.20661,0.03037
3189.14644,0.03044
3187.08626,0.03037
3185.02609,0.03023
3182.96592,0.03020
3180.90575,0.03020
3178.84558,0.03003
3176.78540,0.02989
3174.72523,0.03006
3172.66506,0.03028
3170.60489,0.03026
3168.54472,0.03004
3166.48454,0.02997
3164.42437,0.03010
3162.36420,0.03008
3160.30403,0.02994
3158.24386,0.02993
3156.18368,0.02991
3154.12351,0.02967
3152.06334,0.02940
3150.00317,0.02928
3147.94299,0.02921
3145.88282,0.02915
3143.82265,0.02913
3141.76248,0.02913
3139.70231,0.02909
3137.64213,0.02909
3135.58196,0.02910
3133.52179,0.02901
3131.46162,0.02896
3129.40145,0.02900
3127.34127,0.02894
3125.28110,0.02873
3123.22093,0.02849
3121.16076,0.02842
3119.10058,0.02852
3117.04041,0.02855
3114.98024,0.02844
3112.92007,0.02824
3110.85990,0.02807
3108.79972,0.02802
3106.73955,0.02793
3104.67938,0.02776
3102.61921,0.02762
3100.55904,0.02760
3098.49886,0.02769
3096.43869,0.02770
3094.37852,0.02760
3092.31835,0.02749
3090.25818,0.02732
3088.19800,0.02717
3086.13783,0.02723
3084.07766,0.02731
3082.01749,0.02716
3079.95731,0.02702
3077.89714,0.02706
3075.83697,0.02705
3073.77680,0.02693
3071.71663,0.02687
3069.65645,0.02678
3067.59628,0.02659
3065.53611,0.02651
3063.47594,0.02646
3061.41577,0.02632
3059.35559,0.02625
3057.29542,0.02623
3055.23525,0.02619
3053.17508,0.02617
3051.11491,0.02608
3049.05473,0.02593
3046.99456,0.02579
3044.93439,0.02565
3042.87422,0.02558
3040.81404,0.02556
3038.75387,0.02545
3036.69370,0.02537
3034.63353,0.02541
3032.57336,0.02540
3030.51318,0.02523
3028.45301,0.02507
3026.39284,0.02502
3024.33267,0.02495
3022.27250,0.02484
3020.21232,0.02477
3018.15215,0.02461
3016.09198,0.02424
3014.03181,0.02394
3011.97163,0.02395
3009.91146,0.02408
3007.85129,0.02416
3005.79112,0.02411
3003.73095,0.02399
3001.67077,0.02383
2999.61060,0.02368
2997.55043,0.02357
2995.49026,0.02352
2993.43009,0.02345
2991.36991,0.02356
2989.30974,0.02377
2987.24957,0.02388
2985.18940,0.02382
2983.12923,0.02375
2981.06905,0.02377
2979.00888,0.02381
2976.94871,0.02380
2974.88854,0.02372
2972.82836,0.02363
2970.76819,0.02372
2968.70802,0.02384
2966.64785,0.02376
2964.58768,0.02372
2962.52750,0.02390
2960.46733,0.02406
2958.40716,0.02411
2956.34699,0.02414
2954.28682,0.02408
2952.22664,0.02402
2950.16647,0.02407
2948.10630,0.02410
2946.04613,0.02410
2943.98596,0.02414
2941.92578,0.02405
2939.86561,0.02385
2937.80544,0.02386
2935.74527,0.02411
2933.68509,0.02436
2931.62492,0.02445
2929.56475,0.02431
2927.50458,0.02406
2925.44441,0.02390
2923.38423,0.02393
2921.32406,0.02407
2919.26389,0.02407
2917.20372,0.02392
2915.14355,0.02384
2913.08337,0.02388
2911.02320,0.02382
2908.96303,0.02369
2906.90286,0.02361
2904.84268,0.02351
2902.78251,0.02339
2900.72234,0.02342
2898.66217,0.02356
2896.60200,0.02358
2894.54182,0.02348
2892.48165,0.02344
2890.42148,0.02352
2888.36131,0.02362
2886.30114,0.02365
2884.24096,0.02364
2882.18079,0.02366
2880.12062,0.02369
2878.06045,0.02362
2876.00028,0.02344
2873.94010,0.02330
2871.87993,0.02331
2869.81976,0.02337
2867.75959,0.02331
2865.69941,0.02320
2863.63924,0.02306
2861.57907,0.02292
2859.51890,0.02283
2857.45873,0.02275
2855.39855,0.02270
2853.33838,0.02261
2851.27821,0.02240
2849.21804,0.02228
2847.15787,0.02233
2845.09769,0.02235
2843.03752,0.02223
2840.97735,0.02205
2838.91718,0.02183
2836.85700,0.02166
2834.79683,0.02164
2832.73666,0.02167
2830.67649,0.02163
2828.61632,0.02145
2826.55614,0.02123
2824.49597,0.02112
2822.43580,0.02103
2820.37563,0.02093
2818.31546,0.02093
2816.25528,0.02099
2814.19511,0.02105
2812.13494,0.02106
2810.07477,0.02089
2808.01460,0.02061
2805.95442,0.02041
2803.89425,0.02032
2801.83408,0.02029
2799.77391,0.02031
2797.71373,0.02028
2795.65356,0.02020
2793.59339,0.02016
2791.53322,0.02005
2789.47305,0.01987
2787.41287,0.01976
2785.35270,0.01972
2783.29253,0.01967
2781.23236,0.01963
2779.17219,0.01957
2777.11201,0.01939
2775.05184,0.01918
2772.99167,0.01905
2770.93150,0.01892
2768.87133,0.01879
2766.81115,0.01876
2764.75098,0.01878
2762.69081,0.01876
2760.63064,0.01873
2758.57046,0.01873
2756.51029,0.01875
2754.45012,0.01873
2752.38995,0.01872
2750.32978,0.01862
2748.26960,0.01845
2746.20943,0.01834
2744.14926,0.01824
2742.08909,0.01818
2740.02892,0.01821
2737.96874,0.01825
2735.90857,0.01817
2733.84840,0.01804
2731.78823,0.01797
2729.72805,0.01795
2727.66788,0.01785
2725.60771,0.01770
2723.54754,0.01760
2721.48737,0.01756
2719.42719,0.01752
2717.36702,0.01748
2715.30685,0.01746
2713.24668,0.01733
2711.18651,0.01721
2709.12633,0.01719
2707.06616,0.01714
2705.00599,0.01702
2702.94582,0.01700
2700.88565,0.01711
2698.82547,0.01718
2696.76530,0.01713
2694.70513,0.01706
2692.64496,0.01704
2690.58478,0.01703
2688.52461,0.01691
2686.46444,0.01672
2684.40427,0.01663
2682.34410,0.01663
2680.28392,0.01658
2678.22375,0.01659
2676.16358,0.01669
2674.10341,0.01662
2672.04324,0.01640
2669.98306,0.01623
2667.92289,0.01617
2665.86272,0.01613
2663.80255,0.01604
2661.74238,0.01599
2659.68220,0.01605
2657.62203,0.01611
2655.56186,0.01606
2653.50169,0.01598
2651.44151,0.01602
2649.38134,0.01607
2647.32117,0.01595
2645.26100,0.01582
2643.20083,0.01581
2641.14065,0.01584
2639.08048,0.01583
2637.02031,0.01583
2634.96014,0.01587
2632.89997,0.01585
2630.83979,0.01582
2628.77962,0.01582
2626.71945,0.01578
2624.65928,0.01574
2622.59910,0.01568
2620.53893,0.01559
2618.47876,0.01560
2616.41859,0.01569
2614.35842,0.01574
2612.29824,0.01573
2610.23807,0.01560
2608.17790,0.01546
2606.11773,0.01542
2604.05756,0.01540
2601.99738,0.01530
2599.93721,0.01519
2597.87704,0.01513
2595.81687,0.01514
2593.75670,0.01525
2591.69652,0.01543
2589.63635,0.01549
2587.57618,0.01553
2585.51601,0.01564
2583.45583,0.01562
2581.39566,0.01556
2579.33549,0.01566
2577.27532,0.01577
2575.21515,0.01582
2573.15497,0.01584
2571.09480,0.01571
2569.03463,0.01560
2566.97446,0.01574
2564.91429,0.01582
2562.85411,0.01575
2560.79394,0.01592
2558.73377,0.01621
2556.67360,0.01619
2554.61342,0.01600
2552.55325,0.01597
2550.49308,0.01602
2548.43291,0.01603
2546.37274,0.01604
2544.31256,0.01600
2542.25239,0.01586
2540.19222,0.01570
2538.13205,0.01571
2536.07188,0.01586
2534.01170,0.01594
2531.95153,0.01597
2529.89136,0.01615
2527.83119,0.01635
2525.77102,0.01644
2523.71084,0.01638
2521.65067,0.01621
2519.59050,0.01616
2517.53033,0.01634
2515.47015,0.01641
2513.40998,0.01621
2511.34981,0.01598
2509.28964,0.01596
2507.22947,0.01622
2505.16929,0.01653
2503.10912,0.01661
2501.04895,0.01645
2498.98878,0.01626
2496.92861,0.01624
2494.86843,0.01649
2492.80826,0.01687
2490.74809,0.01710
2488.68792,0.01711
2486.62775,0.01710
2484.56757,0.01716
2482.50740,0.01711
2480.44723,0.01695
2478.38706,0.01683
2476.32688,0.01678
2474.26671,0.01695
2472.20654,0.01731
2470.14637,0.01752
2468.08620,0.01746
2466.02602,0.01731
2463.96585,0.01738
2461.90568,0.01782
2459.84551,0.01813
2457.78534,0.01786
2455.72516,0.01744
2453.66499,0.01742
2451.60482,0.01753
2449.54465,0.01752
2447.48447,0.01764
2445.42430,0.01784
2443.36413,0.01804
2441.30396,0.01824
2439.24379,0.01823
2437.18361,0.01790
2435.12344,0.01761
2433.06327,0.01756
2431.00310,0.01751
2428.94293,0.01761
2426.88275,0.01793
2424.82258,0.01799
2422.76241,0.01785
2420.70224,0.01779
2418.64207,0.01770
2416.58189,0.01763
2414.52172,0.01767
2412.46155,0.01756
2410.40138,0.01735
2408.34120,0.01739
2406.28103,0.01764
2404.22086,0.01790
2402.16069,0.01801
2400.10052,0.01785
2398.04034,0.01769
2395.98017,0.01764
2393.92000,0.01769
2391.85983,0.01761
2389.79966,0.01735
2387.73948,0.01707
2385.67931,0.01678
2383.61914,0.01650
2381.55897,0.01640
2379.49880,0.01649
2377.43862,0.01655
2375.37845,0.01654
2373.31828,0.01650
2371.25811,0.01650
2369.19793,0.01693
2367.13776,0.01782
2365.07759,0.01821
2363.01742,0.01752
2360.95725,0.01648
2358.89707,0.01602
2356.83690,0.01615
2354.77673,0.01640
2352.71656,0.01647
2350.65639,0.01637
2348.59621,0.01615
2346.53604,0.01578
2344.47587,0.01554
2342.41570,0.01584
2340.35552,0.01623
2338.29535,0.01614
2336.23518,0.01592
2334.17501,0.01595
2332.11484,0.01605
2330.05466,0.01596
2327.99449,0.01581
2325.93432,0.01573
2323.87415,0.01549
2321.81398,0.01513
2319.75380,0.01501
2317.69363,0.01504
2315.63346,0.01503
2313.57329,0.01500
2311.51312,0.01503
2309.45294,0.01511
2307.39277,0.01517
2305.33260,0.01524
2303.27243,0.01541
2301.21225,0.01561
2299.15208,0.01556
2297.09191,0.01527
2295.03174,0.01512
2292.97157,0.01523
2290.91139,0.01538
2288.85122,0.01542
2286.79105,0.01527
2284.73088,0.01505
2282.67071,0.01504
2280.61053,0.01529
2278.55036,0.01552
2276.49019,0.01545
2274.43002,0.01515
2272.36984,0.01480
2270.30967,0.01462
2268.24950,0.01471
2266.18933,0.01497
2264.12916,0.01531
2262.06898,0.01545
2260.00881,0.01526
2257.94864,0.01505
2255.88847,0.01502
2253.82830,0.01496
2251.76812,0.01470
2249.70795,0.01454
2247.64778,0.01464
2245.58761,0.01468
2243.52744,0.01424
2241.46726,0.01373
2239.40709,0.01387
2237.34692,0.01434
2235.28675,0.01430
2233.22657,0.01416
2231.16640,0.01452
2229.10623,0.01496
2227.04606,0.01515
2224.98589,0.01500
2222.92571,0.01416
2220.86554,0.01314
2218.80537,0.01291
2216.74520,0.01325
2214.68503,0.01349
2212.62485,0.01329
2210.56468,0.01298
2208.50451,0.01316
2206.44434,0.01383
2204.38417,0.01448
2202.32399,0.01477
2200.26382,0.01432
2198.20365,0.01367
2196.14348,0.01370
2194.08330,0.01353
2192.02313,0.01309
2189.96296,0.01323
2187.90279,0.01296
2185.84262,0.01198
2183.78244,0.01184
2181.72227,0.01264
2179.66210,0.01332
2177.60193,0.01372
2175.54176,0.01355
2173.48158,0.01266
2171.42141,0.01167
2169.36124,0.01123
2167.30107,0.01145
2165.24089,0.01184
2163.18072,0.01202
2161.12055,0.01159
2159.06038,0.01072
2157.00021,0.01082
2154.94003,0.01183
2152.87986,0.01261
2150.81969,0.01295
2148.75952,0.01272
2146.69935,0.01213
2144.63917,0.01202
2142.57900,0.01228
2140.51883,0.01233
2138.45866,0.01225
2136.39849,0.01213
2134.33831,0.01197
2132.27814,0.01193
2130.21797,0.01185
2128.15780,0.01199
2126.09762,0.01238
2124.03745,0.01263
2121.97728,0.01288
2119.91711,0.01301
2117.85694,0.01254
2115.79676,0.01193
2113.73659,0.01176
2111.67642,0.01177
2109.61625,0.01183
2107.55608,0.01202
2105.49590,0.01206
2103.43573,0.01180
2101.37556,0.01163
2099.31539,0.01190
2097.25521,0.01215
2095.19504,0.01217
2093.13487,0.01179
2091.07470,0.01156
2089.01453,0.01169
2086.95435,0.01183
2084.89418,0.01203
2082.83401,0.01229
2080.77384,0.01252
2078.71367,0.01257
2076.65349,0.01242
2074.59332,0.01228
2072.53315,0.01216
2070.47298,0.01204
2068.41281,0.01197
2066.35263,0.01188
2064.29246,0.01175
2062.23229,0.01162
2060.17212,0.01163
2058.11194,0.01165
2056.05177,0.01148
2053.99160,0.01150
2051.93143,0.01188
2049.87126,0.01245
2047.81108,0.01318
2045.75091,0.01388
2043.69074,0.01392
2041.63057,0.01312
2039.57040,0.01239
2037.51022,0.01223
2035.45005,0.01232
2033.38988,0.01224
2031.32971,0.01153
2029.26954,0.01082
2027.20936,0.01122
2025.14919,0.01206
2023.08902,0.01208
2021.02885,0.01185
2018.96867,0.01214
2016.90850,0.01265
2014.84833,0.01304
2012.78816,0.01282
2010.72799,0.01231
2008.66781,0.01244
2006.60764,0.01253
2004.54747,0.01174
2002.48730,0.01107
2000.42713,0.01131
1998.36695,0.01180
1996.30678,0.01207
1994.24661,0.01218
1992.18644,0.01197
1990.12626,0.01161
1988.06609,0.01164
1986.00592,0.01193
1983.94575,0.01216
1981.88558,0.01294
1979.82540,0.01428
1977.76523,0.01468
1975.70506,0.01389
1973.64489,0.01333
1971.58472,0.01297
1969.52454,0.01257
1967.46437,0.01263
1965.40420,0.01266
1963.34403,0.01199
1961.28386,0.01136
1959.22368,0.01154
1957.16351,0.01163
1955.10334,0.01116
1953.04317,0.01123
1950.98299,0.01215
1948.92282,0.01296
1946.86265,0.01299
1944.80248,0.01259
1942.74231,0.01251
1940.68213,0.01275
1938.62196,0.01291
1936.56179,0.01291
1934.50162,0.01285
1932.44145,0.01283
1930.38127,0.01291
1928.32110,0.01310
1926.26093,0.01311
1924.20076,0.01275
1922.14059,0.01241
1920.08041,0.01238
1918.02024,0.01251
1915.96007,0.01283
1913.89990,0.01331
1911.83972,0.01343
1909.77955,0.01311
1907.71938,0.01282
1905.65921,0.01278
1903.59904,0.01289
1901.53886,0.01300
1899.47869,0.01293
1897.41852,0.01269
1895.35835,0.01257
1893.29818,0.01273
1891.23800,0.01305
1889.17783,0.01333
1887.11766,0.01345
1885.05749,0.01336
1882.99731,0.01314
1880.93714,0.01304
1878.87697,0.01318
1876.81680,0.01350
1874.75663,0.01384
1872.69645,0.01404
1870.63628,0.01418
1868.57611,0.01432
1866.51594,0.01435
1864.45577,0.01420
1862.39559,0.01396
1860.33542,0.01384
1858.27525,0.01394
1856.21508,0.01413
1854.15491,0.01420
1852.09473,0.01422
1850.03456,0.01429
1847.97439,0.01420
1845.91422,0.01387
1843.85404,0.01361
1841.79387,0.01379
1839.73370,0.01418
1837.67353,0.01444
1835.61336,0.01449
1833.55318,0.01449
1831.49301,0.01461
1829.43284,0.01470
1827.37267,0.01467
1825.31250,0.01473
1823.25232,0.01495
1821.19215,0.01513
1819.13198,0.01518
1817.07181,0.01520
1815.01163,0.01522
1812.95146,0.01511
1810.89129,0.01482
1808.83112,0.01464
1806.77095,0.01476
1804.71077,0.01489
1802.65060,0.01490
1800.59043,0.01501
1798.53026,0.01514
1796.47009,0.01511
1794.40991,0.01511
1792.34974,0.01524
1790.28957,0.01529
1788.22940,0.01508
1786.16923,0.01474
1784.10905,0.01465
1782.04888,0.01487
1779.98871,0.01500
1777.92854,0.01499
1775.86836,0.01510
1773.80819,0.01531
1771.74802,0.01528
1769.68785,0.01492
1767.62768,0.01467
1765.56750,0.01474
1763.50733,0.01502
1761.44716,0.01526
1759.38699,0.01538
1757.32682,0.01554
1755.26664,0.01565
1753.20647,0.01565
1751.14630,0.01570
1749.08613,0.01581
1747.02596,0.01580
1744.96578,0.01578
1742.90561,0.01593
1740.84544,0.01618
1738.78527,0.01629
1736.72509,0.01629
1734.66492,0.01621
1732.60475,0.01609
1730.54458,0.01610
1728.48441,0.01612
1726.42423,0.01608
1724.36406,0.01600
1722.30389,0.01595
1720.24372,0.01602
1718.18355,0.01603
1716.12337,0.01577
1714.06320,0.01567
1712.00303,0.01569
1709.94286,0.01569
1707.88268,0.01574
1705.82251,0.01578
1703.76234,0.01573
1701.70217,0.01575
1699.64200,0.01592
1697.58182,0.01621
1695.52165,0.01661
1693.46148,0.01703
1691.40131,0.01740
1689.34114,0.01784
1687.28096,0.01836
1685.22079,0.01890
1683.16062,0.01932
1681.10045,0.01975
1679.04028,0.02034
1676.98010,0.02111
1674.91993,0.02190
1672.85976,0.02255
1670.79959,0.02306
1668.73941,0.02342
1666.67924,0.02366
1664.61907,0.02394
1662.55890,0.02421
1660.49873,0.02433
1658.43855,0.02444
1656.37838,0.02474
1654.31821,0.02507
1652.25804,0.02504
1650.19787,0.02500
1648.13769,0.02502
1646.07752,0.02487
1644.01735,0.02458
1641.95718,0.02449
1639.89701,0.02464
1637.83683,0.02476
1635.77666,0.02450
1633.71649,0.02408
1631.65632,0.02387
1629.59614,0.02377
1627.53597,0.02364
1625.47580,0.02343
1623.41563,0.02316
1621.35546,0.02287
1619.29528,0.02283
1617.23511,0.02294
1615.17494,0.02275
1613.11477,0.02237
1611.05460,0.02211
1608.99442,0.02200
1606.93425,0.02193
1604.87408,0.02191
1602.81391,0.02182
1600.75373,0.02161
1598.69356,0.02144
1596.63339,0.02134
1594.57322,0.02118
1592.51305,0.02091
1590.45287,0.02061
1588.39270,0.02032
1586.33253,0.02000
1584.27236,0.01959
1582.21219,0.01918
1580.15201,0.01898
1578.09184,0.01894
1576.03167,0.01863
1573.97150,0.01808
1571.91133,0.01781
1569.85115,0.01777
1567.79098,0.01760
1565.73081,0.01734
1563.67064,0.01721
1561.61046,0.01740
1559.55029,0.01739
1557.49012,0.01648
1555.42995,0.01579
1553.36978,0.01564
1551.30960,0.01561
1549.24943,0.01552
1547.18926,0.01542
1545.12909,0.01543
1543.06892,0.01556
1541.00874,0.01561
1538.94857,0.01523
1536.88840,0.01479
1534.82823,0.01461
1532.76805,0.01452
1530.70788,0.01432
1528.64771,0.01412
1526.58754,0.01392
1524.52737,0.01372
1522.46719,0.01357
1520.40702,0.01336
1518.34685,0.01316
1516.28668,0.01292
1514.22651,0.01258
1512.16633,0.01235
1510.10616,0.01238
1508.04599,0.01256
1505.98582,0.01251
1503.92565,0.01223
1501.86547,0.01202
1499.80530,0.01215
1497.74513,0.01245
1495.68496,0.01262
1493.62478,0.01267
1491.56461,0.01266
1489.50444,0.01249
1487.44427,0.01232
1485.38410,0.01236
1483.32392,0.01244
1481.26375,0.01249
1479.20358,0.01256
1477.14341,0.01266
1475.08324,0.01279
1473.02306,0.01291
1470.96289,0.01293
1468.90272,0.01298
1466.84255,0.01321
1464.78238,0.01345
1462.72220,0.01351
1460.66203,0.01364
1458.60186,0.01377
1456.54169,0.01349
1454.48151,0.01325
1452.42134,0.01338
1450.36117,0.01379
1448.30100,0.01421
1446.24083,0.01447
1444.18065,0.01464
1442.12048,0.01477
1440.06031,0.01480
1438.00014,0.01472
1435.93997,0.01461
1433.87979,0.01470
1431.81962,0.01499
1429.75945,0.01534
1427.69928,0.01556
1425.63910,0.01570
1423.57893,0.01585
1421.51876,0.01598
1419.45859,0.01605
1417.39842,0.01626
1415.33824,0.01672
1413.27807,0.01721
1411.21790,0.01758
1409.15773,0.01784
1407.09756,0.01807
1405.03738,0.01822
1402.97721,0.01830
1400.91704,0.01826
1398.85687,0.01807
1396.79670,0.01792
1394.73652,0.01801
1392.67635,0.01816
1390.61618,0.01823
1388.55601,0.01829
1386.49583,0.01837
1384.43566,0.01838
1382.37549,0.01833
1380.31532,0.01835
1378.25515,0.01855
1376.19497,0.01880
1374.13480,0.01887
1372.07463,0.01885
1370.01446,0.01894
1367.95429,0.01905
1365.89411,0.01910
1363.83394,0.01906
1361.77377,0.01895
1359.71360,0.01893
1357.65343,0.01896
1355.59325,0.01895
1353.53308,0.01889
1351.47291,0.01876
1349.41274,0.01851
1347.35256,0.01817
1345.29239,0.01776
1343.23222,0.01728
1341.17205,0.01667
1339.11188,0.01607
1337.05170,0.01580
1334.99153,0.01585
1332.93136,0.01586
1330.87119,0.01569
1328.81102,0.01542
1326.75084,0.01516
1324.69067,0.01492
1322.63050,0.01474
1320.57033,0.01461
1318.51015,0.01448
1316.44998,0.01430
1314.38981,0.01409
1312.32964,0.01393
1310.26947,0.01387
1308.20929,0.01383
1306.14912,0.01370
1304.08895,0.01358
1302.02878,0.01352
1299.96861,0.01349
1297.90843,0.01346
1295.84826,0.01344
1293.78809,0.01338
1291.72792,0.01322
1289.66775,0.01300
1287.60757,0.01284
1285.54740,0.01281
1283.48723,0.01284
1281.42706,0.01283
1279.36688,0.01276
1277.30671,0.01268
1275.24654,0.01263
1273.18637,0.01257
1271.12620,0.01254
1269.06602,0.01253
1267.00585,0.01249
1264.94568,0.01247
1262.88551,0.01257
1260.82534,0.01267
1258.76516,0.01271
1256.70499,0.01269
1254.64482,0.01258
1252.58465,0.01252
1250.52447,0.01262
1248.46430,0.01273
1246.40413,0.01265
1244.34396,0.01244
1242.28379,0.01226
1240.22361,0.01213
1238.16344,0.01205
1236.10327,0.01202
1234.04310,0.01194
1231.98293,0.01173
1229.92275,0.01150
1227.86258,0.01136
1225.80241,0.01133
1223.74224,0.01131
1221.68207,0.01119
1219.62189,0.01105
1217.56172,0.01093
1215.50155,0.01078
1213.44138,0.01064
1211.38120,0.01053
1209.32103,0.01048
1207.26086,0.01060
1205.20069,0.01096
1203.14052,0.01134
1201.08034,0.01164
1199.02017,0.01202
1196.96000,0.01269
1194.89983,0.01349
1192.83966,0.01427
1190.77948,0.01513
1188.71931,0.01614
1186.65914,0.01739
1184.59897,0.01889
1182.53880,0.02042
1180.47862,0.02194
1178.41845,0.02351
1176.35828,0.02485
1174.29811,0.02602
1172.23793,0.02725
1170.17776,0.02843
1168.11759,0.02946
1166.05742,0.03043
1163.99725,0.03145
1161.93707,0.03248
1159.87690,0.03338
1157.81673,0.03419
1155.75656,0.03498
1153.69639,0.03562
1151.63621,0.03610
1149.57604,0.03657
1147.51587,0.03700
1145.45570,0.03720
1143.39552,0.03717
1141.33535,0.03702
1139.27518,0.03677
1137.21501,0.03648
1135.15484,0.03623
1133.09466,0.03601
1131.03449,0.03577
1128.97432,0.03558
1126.91415,0.03555
1124.85398,0.03576
1122.79380,0.03619
1120.73363,0.03673
1118.67346,0.03727
1116.61329,0.03789
1114.55312,0.03871
1112.49294,0.03965
1110.43277,0.04061
1108.37260,0.04167
1106.31243,0.04290
1104.25225,0.04416
1102.19208,0.04529
1100.13191,0.04638
1098.07174,0.04749
1096.01157,0.04856
1093.95139,0.04963
1091.89122,0.05071
1089.83105,0.05189
1087.77088,0.05326
1085.71071,0.05461
1083.65053,0.05575
1081.59036,0.05681
1079.53019,0.05794
1077.47002,0.05908
1075.40985,0.05999
1073.34967,0.06065
1071.28950,0.06107
1069.22933,0.06119
1067.16916,0.06104
1065.10898,0.06073
1063.04881,0.06039
1060.98864,0.05997
1058.92847,0.05930
1056.86830,0.05850
1054.80812,0.05767
1052.74795,0.05659
1050.68778,0.05522
1048.62761,0.05376
1046.56744,0.05238
1044.50726,0.05112
1042.44709,0.04969
1040.38692,0.04787
1038.32675,0.04595
1036.26657,0.04417
1034.20640,0.04241
1032.14623,0.04061
1030.08606,0.03904
1028.02589,0.03777
1025.96571,0.03653
1023.90554,0.03522
1021.84537,0.03397
1019.78520,0.03285
1017.72503,0.03191
1015.66485,0.03123
1013.60468,0.03087
1011.54451,0.03069
1009.48434,0.03057
1007.42417,0.03055
1005.36399,0.03071
1003.30382,0.03113
1001.24365,0.03184
999.18348,0.03263
997.12330,0.03339
995.06313,0.03405
993.00296,0.03451
990.94279,0.03497
988.88262,0.03555
986.82244,0.03608
984.76227,0.03645
982.70210,0.03661
980.64193,0.03664
978.58176,0.03663
976.52158,0.03658
974.46141,0.03665
972.40124,0.03675
970.34107,0.03664
968.28089,0.03633
966.22072,0.03598
964.16055,0.03575
962.10038,0.03558
960.04021,0.03544
957.98003,0.03541
955.91986,0.03537
953.85969,0.03524
951.79952,0.03514
949.73935,0.03510
947.67917,0.03503
945.61900,0.03479
943.55883,0.03444
941.49866,0.03405
939.43849,0.03352
937.37831,0.03291
935.31814,0.03222
933.25797,0.03135
931.19780,0.03031
929.13762,0.02920
927.07745,0.02813
925.01728,0.02715
922.95711,0.02615
920.89694,0.02508
918.83676,0.02413
916.77659,0.02334
914.71642,0.02238
912.65625,0.02129
910.59608,0.02038
908.53590,0.01962
906.47573,0.01893
904.41556,0.01841
902.35539,0.01813
900.29522,0.01791
898.23504,0.01768
896.17487,0.01758
894.11470,0.01765
892.05453,0.01798
889.99435,0.01841
887.93418,0.01873
885.87401,0.01922
883.81384,0.02007
881.75367,0.02102
879.69349,0.02205
877.63332,0.02337
875.57315,0.02498
873.51298,0.02672
871.45281,0.02865
869.39263,0.03070
867.33246,0.03252
865.27229,0.03425
863.21212,0.03596
861.15194,0.03722
859.09177,0.03812
857.03160,0.03879
854.97143,0.03892
852.91126,0.03855
850.85108,0.03811
848.79091,0.03742
846.73074,0.03622
844.67057,0.03498
842.61040,0.03389
840.55022,0.03274
838.49005,0.03132
836.42988,0.02975
834.36971,0.02857
832.30954,0.02773
830.24936,0.02674
828.18919,0.02565
826.12902,0.02476
824.06885,0.02409
822.00867,0.02362
819.94850,0.02314
817.88833,0.02236
815.82816,0.02142
813.76799,0.02071
811.70781,0.02001
809.64764,0.01921
807.58747,0.01881
805.52730,0.01874
803.46713,0.01854
801.40695,0.01829
799.34678,0.01784
797.28661,0.01700
795.22644,0.01624
793.16627,0.01600
791.10609,0.01598
789.04592,0.01561
786.98575,0.01491
784.92558,0.01432
782.86540,0.01413
780.80523,0.01419
778.74506,0.01421
776.68489,0.01392
774.62472,0.01334
772.56454,0.01298
770.50437,0.01308
768.44420,0.01315
766.38403,0.01277
764.32386,0.01232
762.26368,0.01226
760.20351,0.01221
758.14334,0.01187
756.08317,0.01148
754.02299,0.01121
751.96282,0.01121
749.90265,0.01143
747.84248,0.01125
745.78231,0.01058
743.72213,0.01003
741.66196,0.00974
739.60179,0.00953
737.54162,0.00939
735.48145,0.00942
733.42127,0.00963
731.36110,0.00970
729.30093,0.00942
727.24076,0.00909
725.18059,0.00899
723.12041,0.00877
721.06024,0.00850
719.00007,0.00843
716.93990,0.00856
714.87972,0.00854
712.81955,0.00826
710.75938,0.00802
708.69921,0.00796
706.63904,0.00803
704.57886,0.00822
702.51869,0.00840
700.45852,0.00841
698.39835,0.00814
696.33818,0.00764
694.27800,0.00724
692.21783,0.00727
690.15766,0.00743
688.09749,0.00735
686.03731,0.00717
683.97714,0.00706
681.91697,0.00699
679.85680,0.00683
677.79663,0.00650
675.73645,0.00632
673.67628,0.00642
671.61611,0.00653
669.55594,0.00629
667.49577,0.00562
665.43559,0.00525
663.37542,0.00519
661.31525,0.00518
659.25508,0.00515
657.19491,0.00521
655.13473,0.00541
653.07456,0.00567
651.01439,0.00572
648.95422,0.00531
646.89404,0.00474
644.83387,0.00467
642.77370,0.00504
640.71353,0.00521
638.65336,0.00524
636.59318,0.00545
634.53301,0.00537
632.47284,0.00465
630.41267,0.00350
628.35250,0.00287
626.29232,0.00360
624.23215,0.00419
622.17198,0.00357
620.11181,0.00282
618.05164,0.00230
615.99146,0.00159
613.93129,0.00085
611.87112,0.00029
609.81095,0.00000
607.75077,0.00002
605.69060,0.00070
603.63043,0.00124
601.57026,0.00089
599.51009,0.00000
