3996.73391,-0.00053
3994.67373,-0.00073
3992.61356,-0.00078
3990.55339,-0.00066
3988.49322,-0.00051
3986.43305,-0.00031
3984.37287,-0.00011
3982.31270,-0.00013
3980.25253,-0.00035
3978.19236,-0.00054
3976.13219,-0.00061
3974.07201,-0.00053
3972.01184,-0.00034
3969.95167,-0.00021
3967.89150,-0.00012
3965.83133,-0.00003
3963.77115,-0.00000
3961.71098,-0.00004
3959.65081,0.00002
3957.59064,0.00019
3955.53046,0.00042
3953.47029,0.00055
3951.41012,0.00041
3949.34995,0.00010
3947.28978,0.00000
3945.22960,0.00006
3943.16943,-0.00003
3941.10926,-0.00017
3939.04909,-0.00009
3936.98892,0.00013
3934.92874,0.00020
3932.86857,0.00024
3930.80840,0.00048
3928.74823,0.00066
3926.68805,0.00057
3924.62788,0.00035
3922.56771,0.00007
3920.50754,-0.00009
3918.44737,0.00004
3916.38719,0.00052
3914.32702,0.00109
3912.26685,0.00131
3910.20668,0.00113
3908.14651,0.00081
3906.08633,0.00052
3904.02616,0.00036
3901.96599,0.00053
3899.90582,0.00109
3897.84565,0.00146
3895.78547,0.00121
3893.72530,0.00065
3891.66513,0.00037
3889.60496,0.00052
3887.54478,0.00066
3885.48461,0.00061
3883.42444,0.00042
3881.36427,0.00035
3879.30410,0.00062
3877.24392,0.00081
3875.18375,0.00070
3873.12358,0.00056
3871.06341,0.00058
3869.00324,0.00079
3866.94306,0.00084
3864.88289,0.00070
3862.82272,0.00068
3860.76255,0.00075
3858.70237,0.00054
3856.64220,0.00000
3854.58203,0.00007
3852.52186,0.00139
3850.46169,0.00242
3848.40151,0.00220
3846.34134,0.00161
3844.28117,0.00139
3842.22100,0.00148
3840.16083,0.00147
3838.10065,0.00132
3836.04048,0.00133
3833.98031,0.00149
3831.92014,0.00174
3829.85997,0.00206
3827.79979,0.00220
3825.73962,0.00199
3823.67945,0.00166
3821.61928,0.00174
3819.55910,0.00204
3817.49893,0.00211
3815.43876,0.00213
3813.37859,0.00208
3811.31842,0.00177
3809.25824,0.00144
3807.19807,0.00137
3805.13790,0.00151
3803.07773,0.00189
3801.01756,0.00242
3798.95738,0.00249
3796.89721,0.00222
3794.83704,0.00220
3792.77687,0.00229
3790.71670,0.00227
3788.65652,0.00230
3786.59635,0.00245
3784.53618,0.00264
3782.47601,0.00270
3780.41583,0.00263
3778.35566,0.00259
3776.29549,0.00271
3774.23532,0.00276
3772.17515,0.00254
3770.11497,0.00221
3768.05480,0.00204
3765.99463,0.00198
3763.93446,0.00180
3761.87429,0.00150
3759.81411,0.00130
3757.75394,0.00116
3755.69377,0.00095
3753.63360,0.00074
3751.57342,0.00053
3749.51325,0.00040
3747.45308,0.00042
3745.39291,0.00037
3743.33274,0.00056
3741.27256,0.00069
3739.21239,0.00057
3737.15222,0.00078
3735.09205,0.00134
3733.03188,0.00172
3730.97170,0.00166
3728.91153,0.00138
3726.85136,0.00114
3724.79119,0.00117
3722.73102,0.00144
3720.67084,0.00173
3718.61067,0.00170
3716.55050,0.00138
3714.49033,0.00137
3712.43015,0.00208
3710.36998,0.00269
3708.30981,0.00261
3706.24964,0.00244
3704.18947,0.00245
3702.12929,0.00244
3700.06912,0.00235
3698.00895,0.00238
3695.94878,0.00254
3693.88861,0.00272
3691.82843,0.00297
3689.76826,0.00330
3687.70809,0.00347
3685.64792,0.00333
3683.58775,0.00311
3681.52757,0.00297
3679.46740,0.00274
3677.40723,0.00257
3675.34706,0.00283
3673.28688,0.00303
3671.22671,0.00304
3669.16654,0.00338
3667.10637,0.00372
3665.04620,0.00362
3662.98602,0.00328
3660.92585,0.00296
3658.86568,0.00274
3656.80551,0.00278
3654.74534,0.00300
3652.68516,0.00311
3650.62499,0.00335
3648.56482,0.00395
3646.50465,0.00442
3644.44447,0.00442
3642.38430,0.00451
3640.32413,0.00479
3638.26396,0.00475
3636.20379,0.00451
3634.14361,0.00443
3632.08344,0.00457
3630.02327,0.00507
3627.96310,0.00588
3625.90293,0.00624
3623.84275,0.00596
3621.78258,0.00558
3619.72241,0.00538
3617.66224,0.00532
3615.60207,0.00532
3613.54189,0.00542
3611.48172,0.00568
3609.42155,0.00609
3607.36138,0.00655
3605.30120,0.00698
3603.24103,0.00746
3601.18086,0.00786
3599.12069,0.00795
3597.06052,0.00792
3595.00034,0.00818
3592.94017,0.00868
3590.88000,0.00902
3588.81983,0.00901
3586.75966,0.00892
3584.69948,0.00921
3582.63931,0.00976
3580.57914,0.01022
3578.51897,0.01049
3576.45879,0.01066
3574.39862,0.01082
3572.33845,0.01097
3570.27828,0.01108
3568.21811,0.01123
3566.15793,0.01159
3564.09776,0.01200
3562.03759,0.01220
3559.97742,0.01228
3557.91725,0.01234
3555.85707,0.01238
3553.79690,0.01251
3551.73673,0.01277
3549.67656,0.01288
3547.61639,0.01277
3545.55621,0.01285
3543.49604,0.01335
3541.43587,0.01388
3539.37570,0.01420
3537.31552,0.01444
3535.25535,0.01470
3533.19518,0.01496
3531.13501,0.01517
3529.07484,0.01538
3527.01466,0.01555
3524.95449,0.01563
3522.89432,0.01586
3520.83415,0.01630
3518.77398,0.01667
3516.71380,0.01687
3514.65363,0.01707
3512.59346,0.01736
3510.53329,0.01753
3508.47312,0.01746
3506.41294,0.01731
3504.35277,0.01726
3502.29260,0.01740
3500.23243,0.01777
3498.17225,0.01821
3496.11208,0.01859
3494.05191,0.01895
3491.99174,0.01920
3489.93157,0.01934
3487.87139,0.01947
3485.81122,0.01953
3483.75105,0.01952
3481.69088,0.01962
3479.63071,0.01986
3477.57053,0.02019
3475.51036,0.02056
3473.45019,0.02080
3471.39002,0.02080
3469.32984,0.02084
3467.26967,0.02112
3465.20950,0.02139
3463.14933,0.02140
3461.08916,0.02127
3459.02898,0.02131
3456.96881,0.02164
3454.90864,0.02209
3452.84847,0.02228
3450.78830,0.02221
3448.72812,0.02223
3446.66795,0.02236
3444.60778,0.02236
3442.54761,0.02224
3440.48744,0.02223
3438.42726,0.02249
3436.36709,0.02284
3434.30692,0.02314
3432.24675,0.02337
3430.18657,0.02348
3428.12640,0.02345
3426.06623,0.02341
3424.00606,0.02347
3421.94589,0.02377
3419.88571,0.02408
3417.82554,0.02423
3415.76537,0.02428
3413.70520,0.02442
3411.64503,0.02450
3409.58485,0.02428
3407.52468,0.02406
3405.46451,0.02422
3403.40434,0.02448
3401.34416,0.02455
3399.28399,0.02426
3397.22382,0.02450
3395.16365,0.02483
3393.10348,0.02489
3391.04330,0.02473
3388.98313,0.02460
3386.92296,0.02479
3384.86279,0.02514
3382.80262,0.02539
3380.74244,0.02553
3378.68227,0.02570
3376.62210,0.02589
3374.56193,0.02599
3372.50176,0.02594
3370.44158,0.02593
3368.38141,0.02595
3366.32124,0.02594
3364.26107,0.02602
3362.20089,0.02618
3360.14072,0.02626
3358.08055,0.02634
3356.02038,0.02643
3353.96021,0.02642
3351.90003,0.02633
3349.83986,0.02623
3347.77969,0.02620
3345.71952,0.02625
3343.65935,0.02627
3341.59917,0.02618
3339.53900,0.02613
3337.47883,0.02631
3335.41866,0.02659
3333.35849,0.02675
3331.29831,0.02691
3329.23814,0.02708
3327.17797,0.02704
3325.11780,0.02684
3323.05762,0.02677
3320.99745,0.02699
3318.93728,0.02723
3316.87711,0.02721
3314.81694,0.02692
3312.75676,0.02661
3310.69659,0.02654
3308.63642,0.02673
3306.57625,0.02702
3304.51608,0.02726
3302.45590,0.02742
3300.39573,0.02742
3298.33556,0.02724
3296.27539,0.02704
3294.21521,0.02693
3292.15504,0.02692
3290.09487,0.02698
3288.03470,0.02717
3285.97453,0.02749
3283.91435,0.02776
3281.85418,0.02790
3279.79401,0.02779
3277.73384,0.02757
3275.67367,0.02745
3273.61349,0.02733
3271.55332,0.02718
3269.49315,0.02715
3267.43298,0.02735
3265.37281,0.02760
3263.31263,0.02765
3261.25246,0.02754
3259.19229,0.02746
3257.13212,0.02736
3255.07194,0.02727
3253.01177,0.02720
3250.95160,0.02708
3248.89143,0.02709
3246.83126,0.02729
3244.77108,0.02751
3242.71091,0.02761
3240.65074,0.02752
3238.59057,0.02745
3236.53040,0.02745
3234.47022,0.02738
3232.41005,0.02736
3230.34988,0.02746
3228.28971,0.02748
3226.22954,0.02744
3224.16936,0.02735
3222.10919,0.02710
3220.04902,0.02683
3217.98885,0.02680
3215.92867,0.02695
3213.86850,0.02703
3211.80833,0.02700
3209.74816,0.02686
3207.68799,0.02673
3205.62781,0.02672
3203.56764,0.02674
3201.50747,0.02667
3199.44730,0.02667
3197.38713,0.02665
3195.32695,0.02649
3193.26678,0.02643
3191.20661,0.02646
3189.14644,0.02640
3187.08626,0.02631
3185.02609,0.02622
3182.96592,0.02616
3180.90575,0.02606
3178.84558,0.02593
3176.78540,0.02601
3174.72523,0.02626
3172.66506,0.02638
3170.60489,0.02633
3168.54472,0.02630
3166.48454,0.02628
3164.42437,0.02614
3162.36420,0.02592
3160.30403,0.02587
3158.24386,0.02597
3156.18368,0.02592
3154.12351,0.02560
3152.06334,0.02538
3150.00317,0.02551
3147.94299,0.02571
3145.88282,0.02568
3143.82265,0.02550
3141.76248,0.02541
3139.70231,0.02540
3137.64213,0.02536
3135.58196,0.02523
3133.52179,0.02507
3131.46162,0.02506
3129.40145,0.02511
3127.34127,0.02497
3125.28110,0.02468
3123.22093,0.02448
3121.16076,0.02442
3119.10058,0.02441
3117.04041,0.02437
3114.98024,0.02430
3112.92007,0.02430
3110.85990,0.02436
3108.79972,0.02430
3106.73955,0.02412
3104.67938,0.02394
3102.61921,0.02388
3100.55904,0.02398
3098.49886,0.02408
3096.43869,0.02393
3094.37852,0.02364
3092.31835,0.02356
3090.25818,0.02369
3088.19800,0.02372
3086.13783,0.02363
3084.07766,0.02355
3082.01749,0.02345
3079.95731,0.02337
3077.89714,0.02337
3075.83697,0.02334
3073.77680,0.02323
3071.71663,0.02316
3069.65645,0.02312
3067.59628,0.02304
3065.53611,0.02299
3063.47594,0.02306
3061.41577,0.02309
3059.35559,0.02299
3057.29542,0.02283
3055.23525,0.02268
3053.17508,0.02255
3051.11491,0.02255
3049.05473,0.02260
3046.99456,0.02260
3044.93439,0.02263
3042.87422,0.02265
3040.81404,0.02255
3038.75387,0.02237
3036.69370,0.02215
3034.63353,0.02200
3032.57336,0.02201
3030.51318,0.02203
3028.45301,0.02190
3026.39284,0.02174
3024.33267,0.02176
3022.27250,0.02188
3020.21232,0.02189
3018.15215,0.02169
3016.09198,0.02134
3014.03181,0.02102
3011.97163,0.02085
3009.91146,0.02081
3007.85129,0.02091
3005.79112,0.02110
3003.73095,0.02124
3001.67077,0.02126
2999.61060,0.02122
2997.55043,0.02111
2995.49026,0.02100
2993.43009,0.02090
2991.36991,0.02091
2989.30974,0.02093
2987.24957,0.02094
2985.18940,0.02103
2983.12923,0.02119
2981.06905,0.02133
2979.00888,0.02141
2976.94871,0.02149
2974.88854,0.02140
2972.82836,0.02116
2970.76819,0.02113
2968.70802,0.02121
2966.64785,0.02123
2964.58768,0.02131
2962.52750,0.02143
2960.46733,0.02148
2958.40716,0.02165
2956.34699,0.02195
2954.28682,0.02214
2952.22664,0.02213
2950.16647,0.02202
2948.10630,0.02188
2946.04613,0.02183
2943.98596,0.02188
2941.92578,0.02190
2939.86561,0.02182
2937.80544,0.02187
2935.74527,0.02215
2933.68509,0.02246
2931.62492,0.02260
2929.56475,0.02255
2927.50458,0.02235
2925.44441,0.02213
2923.38423,0.02203
2921.32406,0.02211
2919.26389,0.02229
2917.20372,0.02242
2915.14355,0.02239
2913.08337,0.02222
2911.02320,0.02211
2908.96303,0.02211
2906.90286,0.02213
2904.84268,0.02215
2902.78251,0.02215
2900.72234,0.02205
2898.66217,0.02204
2896.60200,0.02223
2894.54182,0.02232
2892.48165,0.02220
2890.42148,0.02208
2888.36131,0.02217
2886.30114,0.02232
2884.24096,0.02237
2882.18079,0.02241
2880.12062,0.02240
2878.06045,0.02230
2876.00028,0.02220
2873.94010,0.02212
2871.87993,0.02204
2869.81976,0.02201
2867.75959,0.02205
2865.69941,0.02201
2863.63924,0.02178
2861.57907,0.02167
2859.51890,0.02172
2857.45873,0.02169
2855.39855,0.02161
2853.33838,0.02155
2851.27821,0.02147
2849.21804,0.02143
2847.15787,0.02142
2845.09769,0.02137
2843.03752,0.02134
2840.97735,0.02128
2838.91718,0.02111
2836.85700,0.02093
2834.79683,0.02085
2832.73666,0.02079
2830.67649,0.02078
2828.61632,0.02075
2826.55614,0.02057
2824.49597,0.02040
2822.43580,0.02031
2820.37563,0.02014
2818.31546,0.01995
2816.25528,0.01993
2814.19511,0.01998
2812.13494,0.01990
2810.07477,0.01969
2808.01460,0.01945
2805.95442,0.01935
2803.89425,0.01939
2801.83408,0.01934
2799.77391,0.01921
2797.71373,0.01916
2795.65356,0.01917
2793.59339,0.01919
2791.53322,0.01918
2789.47305,0.01912
2787.41287,0.01902
2785.35270,0.01892
2783.29253,0.01885
2781.23236,0.01881
2779.17219,0.01877
2777.11201,0.01866
2775.05184,0.01843
2772.99167,0.01815
2770.93150,0.01796
2768.87133,0.01795
2766.81115,0.01805
2764.75098,0.01804
2762.69081,0.01789
2760.63064,0.01770
2758.57046,0.01757
2756.51029,0.01758
2754.45012,0.01765
2752.38995,0.01763
2750.32978,0.01756
2748.26960,0.01752
2746.20943,0.01749
2744.14926,0.01742
2742.08909,0.01737
2740.02892,0.01730
2737.96874,0.01726
2735.90857,0.01721
2733.84840,0.01711
2731.78823,0.01705
2729.72805,0.01710
2727.66788,0.01706
2725.60771,0.01684
2723.54754,0.01662
2721.48737,0.01655
2719.42719,0.01656
2717.36702,0.01662
2715.30685,0.01663
2713.24668,0.01650
2711.18651,0.01637
2709.12633,0.01637
2707.06616,0.01633
2705.00599,0.01629
2702.94582,0.01636
2700.88565,0.01639
2698.82547,0.01630
2696.76530,0.01621
2694.70513,0.01618
2692.64496,0.01607
2690.58478,0.01599
2688.52461,0.01604
2686.46444,0.01608
2684.40427,0.01610
2682.34410,0.01610
2680.28392,0.01607
2678.22375,0.01605
2676.16358,0.01602
2674.10341,0.01596
2672.04324,0.01594
2669.98306,0.01589
2667.92289,0.01580
2665.86272,0.01582
2663.80255,0.01585
2661.74238,0.01578
2659.68220,0.01572
2657.62203,0.01575
2655.56186,0.01577
2653.50169,0.01577
2651.44151,0.01576
2649.38134,0.01564
2647.32117,0.01551
2645.26100,0.01556
2643.20083,0.01569
2641.14065,0.01570
2639.08048,0.01558
2637.02031,0.01560
2634.96014,0.01576
2632.89997,0.01581
2630.83979,0.01580
2628.77962,0.01574
2626.71945,0.01556
2624.65928,0.01545
2622.59910,0.01555
2620.53893,0.01571
2618.47876,0.01582
2616.41859,0.01581
2614.35842,0.01577
2612.29824,0.01585
2610.23807,0.01589
2608.17790,0.01573
2606.11773,0.01550
2604.05756,0.01540
2601.99738,0.01561
2599.93721,0.01595
2597.87704,0.01597
2595.81687,0.01576
2593.75670,0.01579
2591.69652,0.01596
2589.63635,0.01599
2587.57618,0.01596
2585.51601,0.01601
2583.45583,0.01611
2581.39566,0.01616
2579.33549,0.01616
2577.27532,0.01624
2575.21515,0.01643
2573.15497,0.01645
2571.09480,0.01613
2569.03463,0.01593
2566.97446,0.01611
2564.91429,0.01629
2562.85411,0.01629
2560.79394,0.01621
2558.73377,0.01614
2556.67360,0.01619
2554.61342,0.01628
2552.55325,0.01636
2550.49308,0.01647
2548.43291,0.01647
2546.37274,0.01637
2544.31256,0.01642
2542.25239,0.01654
2540.19222,0.01639
2538.13205,0.01617
2536.07188,0.01618
2534.01170,0.01637
2531.95153,0.01661
2529.89136,0.01674
2527.83119,0.01666
2525.77102,0.01660
2523.71084,0.01663
2521.65067,0.01659
2519.59050,0.01666
2517.53033,0.01682
2515.47015,0.01680
2513.40998,0.01661
2511.34981,0.01661
2509.28964,0.01686
2507.22947,0.01709
2505.16929,0.01725
2503.10912,0.01738
2501.04895,0.01736
2498.98878,0.01708
2496.92861,0.01689
2494.86843,0.01706
2492.80826,0.01731
2490.74809,0.01742
2488.68792,0.01745
2486.62775,0.01754
2484.56757,0.01775
2482.50740,0.01780
2480.44723,0.01758
2478.38706,0.01747
2476.32688,0.01761
2474.26671,0.01790
2472.20654,0.01814
2470.14637,0.01817
2468.08620,0.01819
2466.02602,0.01830
2463.96585,0.01845
2461.90568,0.01867
2459.84551,0.01881
2457.78534,0.01867
2455.72516,0.01844
2453.66499,0.01842
2451.60482,0.01837
2449.54465,0.01832
2447.48447,0.01852
2445.42430,0.01877
2443.36413,0.01883
2441.30396,0.01884
2439.24379,0.01895
2437.18361,0.01905
2435.12344,0.01893
2433.06327,0.01865
2431.00310,0.01843
2428.94293,0.01856
2426.88275,0.01885
2424.82258,0.01884
2422.76241,0.01876
2420.70224,0.01883
2418.64207,0.01885
2416.58189,0.01878
2414.52172,0.01869
2412.46155,0.01844
2410.40138,0.01812
2408.34120,0.01809
2406.28103,0.01832
2404.22086,0.01854
2402.16069,0.01866
2400.10052,0.01864
2398.04034,0.01875
2395.98017,0.01884
2393.92000,0.01880
2391.85983,0.01859
2389.79966,0.01839
2387.73948,0.01824
2385.67931,0.01796
2383.61914,0.01758
2381.55897,0.01747
2379.49880,0.01775
2377.43862,0.01812
2375.37845,0.01834
2373.31828,0.01836
2371.25811,0.01832
2369.19793,0.01866
2367.13776,0.01925
2365.07759,0.01932
2363.01742,0.01896
2360.95725,0.01883
2358.89707,0.01889
2356.83690,0.01871
2354.77673,0.01844
2352.71656,0.01820
2350.65639,0.01788
2348.59621,0.01752
2346.53604,0.01716
2344.47587,0.01699
2342.41570,0.01737
2340.35552,0.01780
2338.29535,0.01764
2336.23518,0.01739
2334.17501,0.01752
2332.11484,0.01747
2330.05466,0.01697
2327.99449,0.01662
2325.93432,0.01657
2323.87415,0.01635
2321.81398,0.01597
2319.75380,0.01578
2317.69363,0.01586
2315.63346,0.01598
2313.57329,0.01596
2311.51312,0.01591
2309.45294,0.01594
2307.39277,0.01600
2305.33260,0.01612
2303.27243,0.01639
2301.21225,0.01653
2299.15208,0.01620
2297.09191,0.01583
2295.03174,0.01598
2292.97157,0.01636
2290.91139,0.01636
2288.85122,0.01615
2286.79105,0.01609
2284.73088,0.01619
2282.67071,0.01639
2280.61053,0.01663
2278.55036,0.01674
2276.49019,0.01661
2274.43002,0.01632
2272.36984,0.01587
2270.30967,0.01548
2268.24950,0.01556
2266.18933,0.01598
2264.12916,0.01638
2262.06898,0.01656
2260.00881,0.01647
2257.94864,0.01620
2255.88847,0.01588
2253.82830,0.01527
2251.76812,0.01452
2249.70795,0.01430
2247.64778,0.01467
2245.58761,0.01497
2243.52744,0.01468
2241.46726,0.01443
2239.40709,0.01509
2237.34692,0.01587
2235.28675,0.01560
2233.22657,0.01489
2231.16640,0.01490
2229.10623,0.01536
2227.04606,0.01555
2224.98589,0.01536
2222.92571,0.01488
2220.86554,0.01449
2218.80537,0.01457
2216.74520,0.01464
2214.68503,0.01447
2212.62485,0.01418
2210.56468,0.01382
2208.50451,0.01381
2206.44434,0.01423
2204.38417,0.01495
2202.32399,0.01539
2200.26382,0.01454
2198.20365,0.01343
2196.14348,0.01339
2194.08330,0.01372
2192.02313,0.01409
2189.96296,0.01445
2187.90279,0.01412
2185.84262,0.01351
2183.78244,0.01340
2181.72227,0.01340
2179.66210,0.01348
2177.60193,0.01412
2175.54176,0.01450
2173.48158,0.01386
2171.42141,0.01302
2169.36124,0.01270
2167.30107,0.01284
2165.24089,0.01335
2163.18072,0.01325
2161.12055,0.01184
2159.06038,0.01080
2157.00021,0.01137
2154.94003,0.01247
2152.87986,0.01314
2150.81969,0.01336
2148.75952,0.01325
2146.69935,0.01288
2144.63917,0.01272
2142.57900,0.01293
2140.51883,0.01316
2138.45866,0.01313
2136.39849,0.01273
2134.33831,0.01242
2132.27814,0.01261
2130.21797,0.01300
2128.15780,0.01339
2126.09762,0.01365
2124.03745,0.01333
2121.97728,0.01298
2119.91711,0.01319
2117.85694,0.01308
2115.79676,0.01253
2113.73659,0.01256
2111.67642,0.01284
2109.61625,0.01257
2107.55608,0.01234
2105.49590,0.01250
2103.43573,0.01259
2101.37556,0.01261
2099.31539,0.01291
2097.25521,0.01297
2095.19504,0.01266
2093.13487,0.01219
2091.07470,0.01200
2089.01453,0.01224
2086.95435,0.01265
2084.89418,0.01283
2082.83401,0.01272
2080.77384,0.01268
2078.71367,0.01273
2076.65349,0.01273
2074.59332,0.01279
2072.53315,0.01269
2070.47298,0.01216
2068.41281,0.01199
2066.35263,0.01250
2064.29246,0.01262
2062.23229,0.01201
2060.17212,0.01135
2058.11194,0.01105
2056.05177,0.01137
2053.99160,0.01224
2051.93143,0.01306
2049.87126,0.01362
2047.81108,0.01400
2045.75091,0.01443
2043.69074,0.01494
2041.63057,0.01474
2039.57040,0.01398
2037.51022,0.01365
2035.45005,0.01326
2033.38988,0.01209
2031.32971,0.01091
2029.26954,0.01090
2027.20936,0.01166
2025.14919,0.01213
2023.08902,0.01259
2021.02885,0.01299
2018.96867,0.01271
2016.90850,0.01259
2014.84833,0.01305
2012.78816,0.01313
2010.72799,0.01301
2008.66781,0.01319
2006.60764,0.01302
2004.54747,0.01232
2002.48730,0.01194
2000.42713,0.01220
1998.36695,0.01263
1996.30678,0.01290
1994.24661,0.01304
1992.18644,0.01299
1990.12626,0.01269
1988.06609,0.01268
1986.00592,0.01308
1983.94575,0.01341
1981.88558,0.01392
1979.82540,0.01485
1977.76523,0.01529
1975.70506,0.01462
1973.64489,0.01379
1971.58472,0.01375
1969.52454,0.01395
1967.46437,0.01351
1965.40420,0.01254
1963.34403,0.01182
1961.28386,0.01186
1959.22368,0.01253
1957.16351,0.01327
1955.10334,0.01340
1953.04317,0.01296
1950.98299,0.01270
1948.92282,0.01296
1946.86265,0.01362
1944.80248,0.01427
1942.74231,0.01449
1940.68213,0.01430
1938.62196,0.01411
1936.56179,0.01397
1934.50162,0.01372
1932.44145,0.01342
1930.38127,0.01331
1928.32110,0.01352
1926.26093,0.01373
1924.20076,0.01362
1922.14059,0.01337
1920.08041,0.01333
1918.02024,0.01348
1915.96007,0.01369
1913.89990,0.01415
1911.83972,0.01456
1909.77955,0.01442
1907.71938,0.01403
1905.65921,0.01400
1903.59904,0.01425
1901.53886,0.01426
1899.47869,0.01399
1897.41852,0.01387
1895.35835,0.01397
1893.29818,0.01406
1891.23800,0.01426
1889.17783,0.01466
1887.11766,0.01496
1885.05749,0.01501
1882.99731,0.01498
1880.93714,0.01502
1878.87697,0.01512
1876.81680,0.01524
1874.75663,0.01539
1872.69645,0.01556
1870.63628,0.01575
1868.57611,0.01573
1866.51594,0.01540
1864.45577,0.01511
1862.39559,0.01503
1860.33542,0.01506
1858.27525,0.01528
1856.21508,0.01566
1854.15491,0.01587
1852.09473,0.01577
1850.03456,0.01561
1847.97439,0.01550
1845.91422,0.01540
1843.85404,0.01537
1841.79387,0.01548
1839.73370,0.01574
1837.67353,0.01606
1835.61336,0.01617
1833.55318,0.01620
1831.49301,0.01640
1829.43284,0.01657
1827.37267,0.01647
1825.31250,0.01635
1823.25232,0.01648
1821.19215,0.01679
1819.13198,0.01698
1817.07181,0.01696
1815.01163,0.01684
1812.95146,0.01669
1810.89129,0.01649
1808.83112,0.01635
1806.77095,0.01647
1804.71077,0.01670
1802.65060,0.01679
1800.59043,0.01682
1798.53026,0.01683
1796.47009,0.01681
1794.40991,0.01683
1792.34974,0.01683
1790.28957,0.01678
1788.22940,0.01675
1786.16923,0.01672
1784.10905,0.01677
1782.04888,0.01691
1779.98871,0.01693
1777.92854,0.01690
1775.86836,0.01713
1773.80819,0.01751
1771.74802,0.01750
1769.68785,0.01698
1767.62768,0.01660
1765.56750,0.01663
1763.50733,0.01687
1761.44716,0.01703
1759.38699,0.01702
1757.32682,0.01699
1755.26664,0.01697
1753.20647,0.01697
1751.14630,0.01717
1749.08613,0.01759
1747.02596,0.01779
1744.96578,0.01772
1742.90561,0.01777
1740.84544,0.01791
1738.78527,0.01781
1736.72509,0.01758
1734.66492,0.01742
1732.60475,0.01729
1730.54458,0.01724
1728.48441,0.01717
1726.42423,0.01703
1724.36406,0.01693
1722.30389,0.01703
1720.24372,0.01733
1718.18355,0.01738
1716.12337,0.01688
1714.06320,0.01649
1712.00303,0.01647
1709.94286,0.01665
1707.88268,0.01681
1705.82251,0.01674
1703.76234,0.01661
1701.70217,0.01680
1699.64200,0.01707
1697.58182,0.01709
1695.52165,0.01712
1693.46148,0.01736
1691.40131,0.01775
1689.34114,0.01831
1687.28096,0.01904
1685.22079,0.01982
1683.16062,0.02016
1681.10045,0.02022
1679.04028,0.02046
1676.98010,0.02099
1674.91993,0.02176
1672.85976,0.02255
1670.79959,0.02313
1668.73941,0.02334
1666.67924,0.02337
1664.61907,0.02363
1662.55890,0.02396
1660.49873,0.02404
1658.43855,0.02409
1656.37838,0.02439
1654.31821,0.02474
1652.25804,0.02473
1650.19787,0.02474
1648.13769,0.02476
1646.07752,0.02455
1644.01735,0.02420
1641.95718,0.02409
1639.89701,0.02435
1637.83683,0.02470
1635.77666,0.02449
1633.71649,0.02385
1631.65632,0.02352
1629.59614,0.02346
1627.53597,0.02341
1625.47580,0.02332
1623.41563,0.02313
1621.35546,0.02288
1619.29528,0.02289
1617.23511,0.02298
1615.17494,0.02266
1613.11477,0.02223
1611.05460,0.02206
1608.99442,0.02203
1606.93425,0.02197
1604.87408,0.02196
1602.81391,0.02191
1600.75373,0.02173
1598.69356,0.02155
1596.63339,0.02143
1594.57322,0.02125
1592.51305,0.02096
1590.45287,0.02066
1588.39270,0.02039
1586.33253,0.02013
1584.27236,0.01983
1582.21219,0.01953
1580.15201,0.01941
1578.09184,0.01946
1576.03167,0.01923
1573.97150,0.01861
1571.91133,0.01821
1569.85115,0.01805
1567.79098,0.01778
1565.73081,0.01749
1563.67064,0.01743
1561.61046,0.01769
1559.55029,0.01769
1557.49012,0.01677
1555.42995,0.01613
1553.36978,0.01602
1551.30960,0.01607
1549.24943,0.01606
1547.18926,0.01601
1545.12909,0.01608
1543.06892,0.01629
1541.00874,0.01636
1538.94857,0.01578
1536.88840,0.01512
1534.82823,0.01493
1532.76805,0.01498
1530.70788,0.01490
1528.64771,0.01476
1526.58754,0.01449
1524.52737,0.01417
1522.46719,0.01403
1520.40702,0.01393
1518.34685,0.01380
1516.28668,0.01350
1514.22651,0.01305
1512.16633,0.01281
1510.10616,0.01298
1508.04599,0.01322
1505.98582,0.01303
1503.92565,0.01266
1501.86547,0.01247
1499.80530,0.01265
1497.74513,0.01293
1495.68496,0.01301
1493.62478,0.01307
1491.56461,0.01322
1489.50444,0.01318
1487.44427,0.01296
1485.38410,0.01285
1483.32392,0.01286
1481.26375,0.01290
1479.20358,0.01301
1477.14341,0.01319
1475.08324,0.01337
1473.02306,0.01352
1470.96289,0.01355
1468.90272,0.01357
1466.84255,0.01374
1464.78238,0.01393
1462.72220,0.01399
1460.66203,0.01420
1458.60186,0.01441
1456.54169,0.01413
1454.48151,0.01389
1452.42134,0.01407
1450.36117,0.01446
1448.30100,0.01480
1446.24083,0.01502
1444.18065,0.01523
1442.12048,0.01540
1440.06031,0.01545
1438.00014,0.01540
1435.93997,0.01533
1433.87979,0.01544
1431.81962,0.01577
1429.75945,0.01613
1427.69928,0.01637
1425.63910,0.01665
1423.57893,0.01697
1421.51876,0.01713
1419.45859,0.01715
1417.39842,0.01731
1415.33824,0.01778
1413.27807,0.01830
1411.21790,0.01870
1409.15773,0.01903
1407.09756,0.01935
1405.03738,0.01960
1402.97721,0.01975
1400.91704,0.01980
1398.85687,0.01972
1396.79670,0.01962
1394.73652,0.01966
1392.67635,0.01975
1390.61618,0.01982
1388.55601,0.01993
1386.49583,0.02008
1384.43566,0.02019
1382.37549,0.02025
1380.31532,0.02029
1378.25515,0.02042
1376.19497,0.02060
1374.13480,0.02065
1372.07463,0.02062
1370.01446,0.02080
1367.95429,0.02110
1365.89411,0.02132
1363.83394,0.02133
1361.77377,0.02125
1359.71360,0.02129
1357.65343,0.02141
1355.59325,0.02143
1353.53308,0.02131
1351.47291,0.02107
1349.41274,0.02071
1347.35256,0.02024
1345.29239,0.01972
1343.23222,0.01917
1341.17205,0.01856
1339.11188,0.01794
1337.05170,0.01753
1334.99153,0.01735
1332.93136,0.01717
1330.87119,0.01683
1328.81102,0.01642
1326.75084,0.01610
1324.69067,0.01588
1322.63050,0.01566
1320.57033,0.01543
1318.51015,0.01516
1316.44998,0.01487
1314.38981,0.01460
1312.32964,0.01439
1310.26947,0.01428
1308.20929,0.01417
1306.14912,0.01403
1304.08895,0.01390
1302.02878,0.01377
1299.96861,0.01367
1297.90843,0.01367
1295.84826,0.01370
1293.78809,0.01367
1291.72792,0.01352
1289.66775,0.01329
1287.60757,0.01307
1285.54740,0.01293
1283.48723,0.01284
1281.42706,0.01277
1279.36688,0.01272
1277.30671,0.01268
1275.24654,0.01262
1273.18637,0.01250
1271.12620,0.01233
1269.06602,0.01222
1267.00585,0.01215
1264.94568,0.01215
1262.88551,0.01220
1260.82534,0.01225
1258.76516,0.01230
1256.70499,0.01230
1254.64482,0.01223
1252.58465,0.01214
1250.52447,0.01206
1248.46430,0.01193
1246.40413,0.01179
1244.34396,0.01171
1242.28379,0.01166
1240.22361,0.01153
1238.16344,0.01141
1236.10327,0.01140
1234.04310,0.01139
1231.98293,0.01134
1229.92275,0.01128
1227.86258,0.01114
1225.80241,0.01097
1223.74224,0.01088
1221.68207,0.01082
1219.62189,0.01073
1217.56172,0.01069
1215.50155,0.01069
1213.44138,0.01058
1211.38120,0.01047
1209.32103,0.01061
1207.26086,0.01092
1205.20069,0.01128
1203.14052,0.01167
1201.08034,0.01204
1199.02017,0.01256
1196.96000,0.01346
1194.89983,0.01455
1192.83966,0.01564
1190.77948,0.01683
1188.71931,0.01824
1186.65914,0.01986
1184.59897,0.02164
1182.53880,0.02343
1180.47862,0.02519
1178.41845,0.02704
1176.35828,0.02889
1174.29811,0.03059
1172.23793,0.03211
1170.17776,0.03346
1168.11759,0.03478
1166.05742,0.03614
1163.99725,0.03742
1161.93707,0.03854
1159.87690,0.03957
1157.81673,0.04058
1155.75656,0.04151
1153.69639,0.04226
1151.63621,0.04284
1149.57604,0.04338
1147.51587,0.04379
1145.45570,0.04388
1143.39552,0.04369
1141.33535,0.04324
1139.27518,0.04257
1137.21501,0.04178
1135.15484,0.04088
1133.09466,0.03994
1131.03449,0.03915
1128.97432,0.03853
1126.91415,0.03797
1124.85398,0.03759
1122.79380,0.03758
1120.73363,0.03783
1118.67346,0.03814
1116.61329,0.03853
1114.55312,0.03915
1112.49294,0.04001
1110.43277,0.04095
1108.37260,0.04196
1106.31243,0.04315
1104.25225,0.04440
1102.19208,0.04548
1100.13191,0.04655
1098.07174,0.04778
1096.01157,0.04903
1093.95139,0.05022
1091.89122,0.05144
1089.83105,0.05276
1087.77088,0.05419
1085.71071,0.05553
1083.65053,0.05670
1081.59036,0.05782
1079.53019,0.05893
1077.47002,0.06014
1075.40985,0.06129
1073.34967,0.06205
1071.28950,0.06246
1069.22933,0.06264
1067.16916,0.06254
1065.10898,0.06216
1063.04881,0.06173
1060.98864,0.06123
1058.92847,0.06054
1056.86830,0.05969
1054.80812,0.05868
1052.74795,0.05745
1050.68778,0.05608
1048.62761,0.05473
1046.56744,0.05343
1044.50726,0.05217
1042.44709,0.05079
1040.38692,0.04913
1038.32675,0.04733
1036.26657,0.04557
1034.20640,0.04388
1032.14623,0.04230
1030.08606,0.04085
1028.02589,0.03945
1025.96571,0.03807
1023.90554,0.03680
1021.84537,0.03556
1019.78520,0.03438
1017.72503,0.03341
1015.66485,0.03270
1013.60468,0.03216
1011.54451,0.03178
1009.48434,0.03161
1007.42417,0.03153
1005.36399,0.03148
1003.30382,0.03171
1001.24365,0.03228
999.18348,0.03294
997.12330,0.03351
995.06313,0.03384
993.00296,0.03397
990.94279,0.03426
988.88262,0.03478
986.82244,0.03517
984.76227,0.03530
982.70210,0.03534
980.64193,0.03547
978.58176,0.03555
976.52158,0.03547
974.46141,0.03560
972.40124,0.03597
970.34107,0.03612
968.28089,0.03593
966.22072,0.03577
964.16055,0.03596
962.10038,0.03645
960.04021,0.03687
957.98003,0.03720
955.91986,0.03762
953.85969,0.03809
951.79952,0.03849
949.73935,0.03875
947.67917,0.03904
945.61900,0.03944
943.55883,0.03963
941.49866,0.03944
939.43849,0.03900
937.37831,0.03835
935.31814,0.03749
933.25797,0.03640
931.19780,0.03522
929.13762,0.03405
927.07745,0.03287
925.01728,0.03168
922.95711,0.03042
920.89694,0.02907
918.83676,0.02783
916.77659,0.02664
914.71642,0.02530
912.65625,0.02411
910.59608,0.02322
908.53590,0.02232
906.47573,0.02133
904.41556,0.02052
902.35539,0.02002
900.29522,0.01960
898.23504,0.01908
896.17487,0.01878
894.11470,0.01881
892.05453,0.01899
889.99435,0.01926
887.93418,0.01966
885.87401,0.02030
883.81384,0.02120
881.75367,0.02220
879.69349,0.02330
877.63332,0.02470
875.57315,0.02655
873.51298,0.02880
871.45281,0.03130
869.39263,0.03372
867.33246,0.03591
865.27229,0.03820
863.21212,0.04058
861.15194,0.04249
859.09177,0.04382
857.03160,0.04478
854.97143,0.04525
852.91126,0.04501
850.85108,0.04419
848.79091,0.04312
846.73074,0.04195
844.67057,0.04065
842.61040,0.03917
840.55022,0.03763
838.49005,0.03602
836.42988,0.03447
834.36971,0.03314
832.30954,0.03190
830.24936,0.03082
828.18919,0.02978
826.12902,0.02846
824.06885,0.02724
822.00867,0.02661
819.94850,0.02604
817.88833,0.02521
815.82816,0.02450
813.76799,0.02394
811.70781,0.02314
809.64764,0.02212
807.58747,0.02141
805.52730,0.02108
803.46713,0.02077
801.40695,0.02036
799.34678,0.01975
797.28661,0.01896
795.22644,0.01839
793.16627,0.01806
791.10609,0.01771
789.04592,0.01720
786.98575,0.01668
784.92558,0.01638
782.86540,0.01613
780.80523,0.01585
778.74506,0.01568
776.68489,0.01549
774.62472,0.01499
772.56454,0.01437
770.50437,0.01410
768.44420,0.01395
766.38403,0.01358
764.32386,0.01324
762.26368,0.01302
760.20351,0.01263
758.14334,0.01204
756.08317,0.01171
754.02299,0.01176
751.96282,0.01190
749.90265,0.01177
747.84248,0.01124
745.78231,0.01069
743.72213,0.01042
741.66196,0.01014
739.60179,0.00965
737.54162,0.00933
735.48145,0.00942
733.42127,0.00947
731.36110,0.00922
729.30093,0.00881
727.24076,0.00853
725.18059,0.00853
723.12041,0.00863
721.06024,0.00888
719.00007,0.00902
716.93990,0.00880
714.87972,0.00840
712.81955,0.00822
710.75938,0.00798
708.69921,0.00741
706.63904,0.00710
704.57886,0.00736
702.51869,0.00780
700.45852,0.00795
698.39835,0.00751
696.33818,0.00668
694.27800,0.00626
692.21783,0.00667
690.15766,0.00726
688.09749,0.00724
686.03731,0.00688
683.97714,0.00685
681.91697,0.00690
679.85680,0.00635
677.79663,0.00541
675.73645,0.00478
673.67628,0.00463
671.61611,0.00476
669.55594,0.00487
667.49577,0.00460
665.43559,0.00455
663.37542,0.00476
661.31525,0.00512
659.25508,0.00510
657.19491,0.00435
655.13473,0.00333
653.07456,0.00269
651.01439,0.00264
648.95422,0.00301
646.89404,0.00343
644.83387,0.00359
642.77370,0.00363
640.71353,0.00377
638.65336,0.00379
636.59318,0.00354
634.53301,0.00328
632.47284,0.00310
630.41267,0.00287
628.35250,0.00257
626.29232,0.00244
624.23215,0.00229
622.17198,0.00221
620.11181,0.00254
618.05164,0.00292
615.99146,0.00264
613.93129,0.00128
611.87112,0.00000
609.81095,-0.00020
607.75077,0.00068
605.69060,0.00113
603.63043,0.00040
601.57026,-0.00025
599.51009,0.00000
