3996.73391,0.00049
3994.67373,0.00031
3992.61356,0.00040
3990.55339,0.00036
3988.49322,0.00007
3986.43305,0.00000
3984.37287,0.00022
3982.31270,0.00036
3980.25253,0.00044
3978.19236,0.00056
3976.13219,0.00052
3974.07201,0.00034
3972.01184,0.00032
3969.95167,0.00046
3967.89150,0.00061
3965.83133,0.00083
3963.77115,0.00108
3961.71098,0.00101
3959.65081,0.00053
3957.59064,0.00011
3955.53046,0.00015
3953.47029,0.00042
3951.41012,0.00052
3949.34995,0.00051
3947.28978,0.00064
3945.22960,0.00087
3943.16943,0.00098
3941.10926,0.00083
3939.04909,0.00069
3936.98892,0.00078
3934.92874,0.00102
3932.86857,0.00128
3930.80840,0.00152
3928.74823,0.00159
3926.68805,0.00148
3924.62788,0.00127
3922.56771,0.00095
3920.50754,0.00059
3918.44737,0.00038
3916.38719,0.00043
3914.32702,0.00069
3912.26685,0.00102
3910.20668,0.00121
3908.14651,0.00129
3906.08633,0.00145
3904.02616,0.00164
3901.96599,0.00139
3899.90582,0.00087
3897.84565,0.00072
3895.78547,0.00087
3893.72530,0.00097
3891.66513,0.00084
3889.60496,0.00068
3887.54478,0.00103
3885.48461,0.00173
3883.42444,0.00197
3881.36427,0.00170
3879.30410,0.00136
3877.24392,0.00106
3875.18375,0.00096
3873.12358,0.00126
3871.06341,0.00155
3869.00324,0.00138
3866.94306,0.00122
3864.88289,0.00125
3862.82272,0.00121
3860.76255,0.00123
3858.70237,0.00149
3856.64220,0.00202
3854.58203,0.00256
3852.52186,0.00247
3850.46169,0.00178
3848.40151,0.00127
3846.34134,0.00104
3844.28117,0.00088
3842.22100,0.00093
3840.16083,0.00118
3838.10065,0.00130
3836.04048,0.00135
3833.98031,0.00140
3831.92014,0.00128
3829.85997,0.00116
3827.79979,0.00124
3825.73962,0.00136
3823.67945,0.00135
3821.61928,0.00124
3819.55910,0.00089
3817.49893,0.00032
3815.43876,0.00000
3813.37859,0.00029
3811.31842,0.00083
3809.25824,0.00115
3807.19807,0.00121
3805.13790,0.00143
3803.07773,0.00166
3801.01756,0.00134
3798.95738,0.00074
3796.89721,0.00059
3794.83704,0.00094
3792.77687,0.00147
3790.71670,0.00176
3788.65652,0.00160
3786.59635,0.00132
3784.53618,0.00128
3782.47601,0.00144
3780.41583,0.00148
3778.35566,0.00136
3776.29549,0.00141
3774.23532,0.00180
3772.17515,0.00221
3770.11497,0.00230
3768.05480,0.00213
3765.99463,0.00194
3763.93446,0.00172
3761.87429,0.00152
3759.81411,0.00137
3757.75394,0.00142
3755.69377,0.00190
3753.63360,0.00226
3751.57342,0.00162
3749.51325,0.00073
3747.45308,0.00095
3745.39291,0.00161
3743.33274,0.00192
3741.27256,0.00219
3739.21239,0.00269
3737.15222,0.00320
3735.09205,0.00314
3733.03188,0.00232
3730.97170,0.00179
3728.91153,0.00208
3726.85136,0.00245
3724.79119,0.00226
3722.73102,0.00186
3720.67084,0.00165
3718.61067,0.00180
3716.55050,0.00215
3714.49033,0.00238
3712.43015,0.00230
3710.36998,0.00202
3708.30981,0.00200
3706.24964,0.00244
3704.18947,0.00290
3702.12929,0.00289
3700.06912,0.00253
3698.00895,0.00231
3695.94878,0.00230
3693.88861,0.00223
3691.82843,0.00196
3689.76826,0.00175
3687.70809,0.00200
3685.64792,0.00260
3683.58775,0.00286
3681.52757,0.00266
3679.46740,0.00261
3677.40723,0.00294
3675.34706,0.00312
3673.28688,0.00299
3671.22671,0.00289
3669.16654,0.00294
3667.10637,0.00307
3665.04620,0.00310
3662.98602,0.00314
3660.92585,0.00353
3658.86568,0.00417
3656.80551,0.00458
3654.74534,0.00464
3652.68516,0.00470
3650.62499,0.00493
3648.56482,0.00516
3646.50465,0.00522
3644.44447,0.00527
3642.38430,0.00523
3640.32413,0.00521
3638.26396,0.00558
3636.20379,0.00620
3634.14361,0.00675
3632.08344,0.00727
3630.02327,0.00762
3627.96310,0.00766
3625.90293,0.00775
3623.84275,0.00783
3621.78258,0.00766
3619.72241,0.00740
3617.66224,0.00754
3615.60207,0.00831
3613.54189,0.00941
3611.48172,0.01043
3609.42155,0.01107
3607.36138,0.01125
3605.30120,0.01141
3603.24103,0.01159
3601.18086,0.01134
3599.12069,0.01092
3597.06052,0.01101
3595.00034,0.01154
3592.94017,0.01211
3590.88000,0.01255
3588.81983,0.01278
3586.75966,0.01260
3584.69948,0.01237
3582.63931,0.01256
3580.57914,0.01291
3578.51897,0.01315
3576.45879,0.01350
3574.39862,0.01397
3572.33845,0.01433
3570.27828,0.01463
3568.21811,0.01490
3566.15793,0.01502
3564.09776,0.01517
3562.03759,0.01550
3559.97742,0.01576
3557.91725,0.01576
3555.85707,0.01580
3553.79690,0.01619
3551.73673,0.01674
3549.67656,0.01716
3547.61639,0.01762
3545.55621,0.01825
3543.49604,0.01871
3541.43587,0.01873
3539.37570,0.01861
3537.31552,0.01867
3535.25535,0.01883
3533.19518,0.01895
3531.13501,0.01910
3529.07484,0.01931
3527.01466,0.01952
3524.95449,0.01976
3522.89432,0.02005
3520.83415,0.02041
3518.77398,0.02085
3516.71380,0.02116
3514.65363,0.02128
3512.59346,0.02152
3510.53329,0.02184
3508.47312,0.02205
3506.41294,0.02233
3504.35277,0.02264
3502.29260,0.02288
3500.23243,0.02317
3498.17225,0.02341
3496.11208,0.02363
3494.05191,0.02397
3491.99174,0.02404
3489.93157,0.02382
3487.87139,0.02390
3485.81122,0.02440
3483.75105,0.02500
3481.69088,0.02549
3479.63071,0.02586
3477.57053,0.02612
3475.51036,0.02604
3473.45019,0.02560
3471.39002,0.02549
3469.32984,0.02591
3467.26967,0.02621
3465.20950,0.02640
3463.14933,0.02694
3461.08916,0.02754
3459.02898,0.02781
3456.96881,0.02787
3454.90864,0.02791
3452.84847,0.02809
3450.78830,0.02835
3448.72812,0.02848
3446.66795,0.02848
3444.60778,0.02852
3442.54761,0.02867
3440.48744,0.02891
3438.42726,0.02930
3436.36709,0.02977
3434.30692,0.03003
3432.24675,0.03018
3430.18657,0.03034
3428.12640,0.03042
3426.06623,0.03046
3424.00606,0.03053
3421.94589,0.03071
3419.88571,0.03104
3417.82554,0.03119
3415.76537,0.03108
3413.70520,0.03085
3411.64503,0.03069
3409.58485,0.03111
3407.52468,0.03179
3405.46451,0.03208
3403.40434,0.03210
3401.34416,0.03217
3399.28399,0.03238
3397.22382,0.03233
3395.16365,0.03207
3393.10348,0.03197
3391.04330,0.03225
3388.98313,0.03257
3386.92296,0.03266
3384.86279,0.03288
3382.80262,0.03317
3380.74244,0.03324
3378.68227,0.03330
3376.62210,0.03351
3374.56193,0.03361
3372.50176,0.03341
3370.44158,0.03318
3368.38141,0.03345
3366.32124,0.03413
3364.26107,0.03449
3362.20089,0.03429
3360.14072,0.03400
3358.08055,0.03374
3356.02038,0.03348
3353.96021,0.03358
3351.90003,0.03409
3349.83986,0.03446
3347.77969,0.03438
3345.71952,0.03416
3343.65935,0.03417
3341.59917,0.03435
3339.53900,0.03448
3337.47883,0.03439
3335.41866,0.03408
3333.35849,0.03387
3331.29831,0.03389
3329.23814,0.03397
3327.17797,0.03403
3325.11780,0.03424
3323.05762,0.03450
3320.99745,0.03461
3318.93728,0.03463
3316.87711,0.03476
3314.81694,0.03518
3312.75676,0.03547
3310.69659,0.03519
3308.63642,0.03478
3306.57625,0.03478
3304.51608,0.03502
3302.45590,0.03508
3300.39573,0.03510
3298.33556,0.03529
3296.27539,0.03545
3294.21521,0.03552
3292.15504,0.03561
3290.09487,0.03566
3288.03470,0.03560
3285.97453,0.03549
3283.91435,0.03544
3281.85418,0.03546
3279.79401,0.03537
3277.73384,0.03519
3275.67367,0.03517
3273.61349,0.03537
3271.55332,0.03554
3269.49315,0.03554
3267.43298,0.03538
3265.37281,0.03522
3263.31263,0.03523
3261.25246,0.03517
3259.19229,0.03497
3257.13212,0.03502
3255.07194,0.03534
3253.01177,0.03550
3250.95160,0.03537
3248.89143,0.03527
3246.83126,0.03534
3244.77108,0.03545
3242.71091,0.03553
3240.65074,0.03552
3238.59057,0.03533
3236.53040,0.03524
3234.47022,0.03518
3232.41005,0.03508
3230.34988,0.03530
3228.28971,0.03552
3226.22954,0.03536
3224.16936,0.03513
3222.10919,0.03507
3220.04902,0.03511
3217.98885,0.03526
3215.92867,0.03547
3213.86850,0.03547
3211.80833,0.03520
3209.74816,0.03492
3207.68799,0.03474
3205.62781,0.03465
3203.56764,0.03477
3201.50747,0.03500
3199.44730,0.03498
3197.38713,0.03458
3195.32695,0.03418
3193.26678,0.03407
3191.20661,0.03404
3189.14644,0.03400
3187.08626,0.03398
3185.02609,0.03400
3182.96592,0.03407
3180.90575,0.03410
3178.84558,0.03402
3176.78540,0.03381
3174.72523,0.03360
3172.66506,0.03366
3170.60489,0.03396
3168.54472,0.03405
3166.48454,0.03383
3164.42437,0.03371
3162.36420,0.03381
3160.30403,0.03381
3158.24386,0.03357
3156.18368,0.03310
3154.12351,0.03266
3152.06334,0.03264
3150.00317,0.03287
3147.94299,0.03294
3145.88282,0.03286
3143.82265,0.03269
3141.76248,0.03245
3139.70231,0.03213
3137.64213,0.03175
3135.58196,0.03157
3133.52179,0.03167
3131.46162,0.03173
3129.40145,0.03168
3127.34127,0.03175
3125.28110,0.03181
3123.22093,0.03169
3121.16076,0.03144
3119.10058,0.03124
3117.04041,0.03111
3114.98024,0.03099
3112.92007,0.03100
3110.85990,0.03106
3108.79972,0.03098
3106.73955,0.03080
3104.67938,0.03055
3102.61921,0.03022
3100.55904,0.02997
3098.49886,0.02982
3096.43869,0.02969
3094.37852,0.02961
3092.31835,0.02966
3090.25818,0.02971
3088.19800,0.02955
3086.13783,0.02928
3084.07766,0.02931
3082.01749,0.02962
3079.95731,0.02971
3077.89714,0.02943
3075.83697,0.02902
3073.77680,0.02878
3071.71663,0.02855
3069.65645,0.02820
3067.59628,0.02797
3065.53611,0.02793
3063.47594,0.02788
3061.41577,0.02786
3059.35559,0.02791
3057.29542,0.02774
3055.23525,0.02742
3053.17508,0.02727
3051.11491,0.02736
3049.05473,0.02757
3046.99456,0.02765
3044.93439,0.02748
3042.87422,0.02724
3040.81404,0.02717
3038.75387,0.02724
3036.69370,0.02717
3034.63353,0.02684
3032.57336,0.02644
3030.51318,0.02609
3028.45301,0.02574
3026.39284,0.02555
3024.33267,0.02568
3022.27250,0.02583
3020.21232,0.02558
3018.15215,0.02517
3016.09198,0.02520
3014.03181,0.02555
3011.97163,0.02574
3009.91146,0.02575
3007.85129,0.02563
3005.79112,0.02534
3003.73095,0.02493
3001.67077,0.02457
2999.61060,0.02447
2997.55043,0.02452
2995.49026,0.02450
2993.43009,0.02447
2991.36991,0.02445
2989.30974,0.02436
2987.24957,0.02422
2985.18940,0.02417
2983.12923,0.02414
2981.06905,0.02414
2979.00888,0.02422
2976.94871,0.02416
2974.88854,0.02395
2972.82836,0.02376
2970.76819,0.02345
2968.70802,0.02318
2966.64785,0.02327
2964.58768,0.02354
2962.52750,0.02357
2960.46733,0.02328
2958.40716,0.02301
2956.34699,0.02302
2954.28682,0.02308
2952.22664,0.02296
2950.16647,0.02284
2948.10630,0.02277
2946.04613,0.02272
2943.98596,0.02269
2941.92578,0.02267
2939.86561,0.02271
2937.80544,0.02268
2935.74527,0.02246
2933.68509,0.02214
2931.62492,0.02195
2929.56475,0.02188
2927.50458,0.02180
2925.44441,0.02174
2923.38423,0.02159
2921.32406,0.02119
2919.26389,0.02079
2917.20372,0.02071
2915.14355,0.02084
2913.08337,0.02094
2911.02320,0.02095
2908.96303,0.02088
2906.90286,0.02065
2904.84268,0.02035
2902.78251,0.02027
2900.72234,0.02033
2898.66217,0.02011
2896.60200,0.01985
2894.54182,0.01978
2892.48165,0.01960
2890.42148,0.01931
2888.36131,0.01920
2886.30114,0.01933
2884.24096,0.01946
2882.18079,0.01934
2880.12062,0.01916
2878.06045,0.01910
2876.00028,0.01897
2873.94010,0.01860
2871.87993,0.01825
2869.81976,0.01813
2867.75959,0.01810
2865.69941,0.01798
2863.63924,0.01773
2861.57907,0.01746
2859.51890,0.01726
2857.45873,0.01712
2855.39855,0.01702
2853.33838,0.01688
2851.27821,0.01674
2849.21804,0.01660
2847.15787,0.01625
2845.09769,0.01588
2843.03752,0.01593
2840.97735,0.01628
2838.91718,0.01631
2836.85700,0.01601
2834.79683,0.01585
2832.73666,0.01567
2830.67649,0.01522
2828.61632,0.01480
2826.55614,0.01473
2824.49597,0.01484
2822.43580,0.01484
2820.37563,0.01471
2818.31546,0.01454
2816.25528,0.01436
2814.19511,0.01423
2812.13494,0.01422
2810.07477,0.01419
2808.01460,0.01399
2805.95442,0.01383
2803.89425,0.01390
2801.83408,0.01405
2799.77391,0.01405
2797.71373,0.01385
2795.65356,0.01349
2793.59339,0.01318
2791.53322,0.01313
2789.47305,0.01326
2787.41287,0.01329
2785.35270,0.01324
2783.29253,0.01315
2781.23236,0.01293
2779.17219,0.01273
2777.11201,0.01272
2775.05184,0.01280
2772.99167,0.01275
2770.93150,0.01242
2768.87133,0.01213
2766.81115,0.01219
2764.75098,0.01234
2762.69081,0.01246
2760.63064,0.01260
2758.57046,0.01261
2756.51029,0.01240
2754.45012,0.01207
2752.38995,0.01181
2750.32978,0.01177
2748.26960,0.01182
2746.20943,0.01175
2744.14926,0.01167
2742.08909,0.01158
2740.02892,0.01131
2737.96874,0.01105
2735.90857,0.01089
2733.84840,0.01055
2731.78823,0.01040
2729.72805,0.01075
2727.66788,0.01106
2725.60771,0.01098
2723.54754,0.01074
2721.48737,0.01060
2719.42719,0.01050
2717.36702,0.01023
2715.30685,0.00999
2713.24668,0.01022
2711.18651,0.01069
2709.12633,0.01070
2707.06616,0.01036
2705.00599,0.01032
2702.94582,0.01044
2700.88565,0.01024
2698.82547,0.01000
2696.76530,0.01003
2694.70513,0.01001
2692.64496,0.00977
2690.58478,0.00955
2688.52461,0.00954
2686.46444,0.00958
2684.40427,0.00946
2682.34410,0.00929
2680.28392,0.00927
2678.22375,0.00939
2676.16358,0.00953
2674.10341,0.00949
2672.04324,0.00931
2669.98306,0.00911
2667.92289,0.00903
2665.86272,0.00910
2663.80255,0.00918
2661.74238,0.00917
2659.68220,0.00902
2657.62203,0.00883
2655.56186,0.00869
2653.50169,0.00853
2651.44151,0.00836
2649.38134,0.00840
2647.32117,0.00857
2645.26100,0.00875
2643.20083,0.00883
2641.14065,0.00871
2639.08048,0.00860
2637.02031,0.00846
2634.96014,0.00823
2632.89997,0.00816
2630.83979,0.00802
2628.77962,0.00776
2626.71945,0.00779
2624.65928,0.00796
2622.59910,0.00792
2620.53893,0.00781
2618.47876,0.00763
2616.41859,0.00752
2614.35842,0.00774
2612.29824,0.00814
2610.23807,0.00830
2608.17790,0.00799
2606.11773,0.00758
2604.05756,0.00738
2601.99738,0.00742
2599.93721,0.00767
2597.87704,0.00773
2595.81687,0.00744
2593.75670,0.00735
2591.69652,0.00746
2589.63635,0.00728
2587.57618,0.00704
2585.51601,0.00719
2583.45583,0.00732
2581.39566,0.00722
2579.33549,0.00731
2577.27532,0.00761
2575.21515,0.00770
2573.15497,0.00762
2571.09480,0.00741
2569.03463,0.00718
2566.97446,0.00718
2564.91429,0.00722
2562.85411,0.00720
2560.79394,0.00714
2558.73377,0.00694
2556.67360,0.00696
2554.61342,0.00717
2552.55325,0.00707
2550.49308,0.00677
2548.43291,0.00688
2546.37274,0.00743
2544.31256,0.00769
2542.25239,0.00749
2540.19222,0.00735
2538.13205,0.00730
2536.07188,0.00726
2534.01170,0.00723
2531.95153,0.00705
2529.89136,0.00677
2527.83119,0.00635
2525.77102,0.00595
2523.71084,0.00607
2521.65067,0.00641
2519.59050,0.00639
2517.53033,0.00638
2515.47015,0.00669
2513.40998,0.00712
2511.34981,0.00741
2509.28964,0.00733
2507.22947,0.00728
2505.16929,0.00751
2503.10912,0.00759
2501.04895,0.00775
2498.98878,0.00821
2496.92861,0.00813
2494.86843,0.00736
2492.80826,0.00689
2490.74809,0.00705
2488.68792,0.00732
2486.62775,0.00744
2484.56757,0.00762
2482.50740,0.00762
2480.44723,0.00731
2478.38706,0.00731
2476.32688,0.00764
2474.26671,0.00786
2472.20654,0.00793
2470.14637,0.00780
2468.08620,0.00766
2466.02602,0.00756
2463.96585,0.00757
2461.90568,0.00791
2459.84551,0.00823
2457.78534,0.00844
2455.72516,0.00838
2453.66499,0.00786
2451.60482,0.00749
2449.54465,0.00751
2447.48447,0.00769
2445.42430,0.00803
2443.36413,0.00826
2441.30396,0.00817
2439.24379,0.00807
2437.18361,0.00788
2435.12344,0.00756
2433.06327,0.00747
2431.00310,0.00761
2428.94293,0.00773
2426.88275,0.00785
2424.82258,0.00797
2422.76241,0.00800
2420.70224,0.00787
2418.64207,0.00757
2416.58189,0.00748
2414.52172,0.00766
2412.46155,0.00779
2410.40138,0.00782
2408.34120,0.00766
2406.28103,0.00739
2404.22086,0.00730
2402.16069,0.00742
2400.10052,0.00763
2398.04034,0.00738
2395.98017,0.00741
2393.92000,0.00747
2391.85983,0.00749
2389.79966,0.00779
2387.73948,0.00839
2385.67931,0.00893
2383.61914,0.00910
2381.55897,0.00901
2379.49880,0.00936
2377.43862,0.01052
2375.37845,0.01168
2373.31828,0.01155
2371.25811,0.01046
2369.19793,0.00954
2367.13776,0.00882
2365.07759,0.00801
2363.01742,0.00708
2360.95725,0.00605
2358.89707,0.00707
2356.83690,0.00963
2354.77673,0.01199
2352.71656,0.01283
2350.65639,0.01211
2348.59621,0.01165
2346.53604,0.01265
2344.47587,0.01207
2342.41570,0.01163
2340.35552,0.01217
2338.29535,0.01227
2336.23518,0.01155
2334.17501,0.01071
2332.11484,0.01061
2330.05466,0.01096
2327.99449,0.01163
2325.93432,0.01209
2323.87415,0.01215
2321.81398,0.01151
2319.75380,0.01139
2317.69363,0.01139
2315.63346,0.01114
2313.57329,0.01088
2311.51312,0.01097
2309.45294,0.01115
2307.39277,0.01101
2305.33260,0.01070
2303.27243,0.01028
2301.21225,0.00983
2299.15208,0.00952
2297.09191,0.00966
2295.03174,0.01020
2292.97157,0.01061
2290.91139,0.01043
2288.85122,0.00987
2286.79105,0.00940
2284.73088,0.00902
2282.67071,0.00835
2280.61053,0.00768
2278.55036,0.00754
2276.49019,0.00784
2274.43002,0.00820
2272.36984,0.00829
2270.30967,0.00806
2268.24950,0.00775
2266.18933,0.00751
2264.12916,0.00740
2262.06898,0.00736
2260.00881,0.00721
2257.94864,0.00740
2255.88847,0.00824
2253.82830,0.00853
2251.76812,0.00742
2249.70795,0.00601
2247.64778,0.00583
2245.58761,0.00624
2243.52744,0.00628
2241.46726,0.00631
2239.40709,0.00672
2237.34692,0.00701
2235.28675,0.00689
2233.22657,0.00651
2231.16640,0.00634
2229.10623,0.00611
2227.04606,0.00576
2224.98589,0.00594
2222.92571,0.00625
2220.86554,0.00642
2218.80537,0.00738
2216.74520,0.00845
2214.68503,0.00790
2212.62485,0.00628
2210.56468,0.00524
2208.50451,0.00568
2206.44434,0.00715
2204.38417,0.00818
2202.32399,0.00793
2200.26382,0.00738
2198.20365,0.00715
2196.14348,0.00669
2194.08330,0.00662
2192.02313,0.00724
2189.96296,0.00760
2187.90279,0.00699
2185.84262,0.00653
2183.78244,0.00696
2181.72227,0.00706
2179.66210,0.00656
2177.60193,0.00557
2175.54176,0.00430
2173.48158,0.00463
2171.42141,0.00729
2169.36124,0.00931
2167.30107,0.00868
2165.24089,0.00737
2163.18072,0.00612
2161.12055,0.00437
2159.06038,0.00218
2157.00021,0.00000
2154.94003,0.00062
2152.87986,0.00361
2150.81969,0.00479
2148.75952,0.00397
2146.69935,0.00314
2144.63917,0.00260
2142.57900,0.00259
2140.51883,0.00317
2138.45866,0.00377
2136.39849,0.00382
2134.33831,0.00381
2132.27814,0.00438
2130.21797,0.00468
2128.15780,0.00496
2126.09762,0.00572
2124.03745,0.00557
2121.97728,0.00493
2119.91711,0.00524
2117.85694,0.00567
2115.79676,0.00550
2113.73659,0.00559
2111.67642,0.00595
2109.61625,0.00601
2107.55608,0.00582
2105.49590,0.00548
2103.43573,0.00515
2101.37556,0.00484
2099.31539,0.00449
2097.25521,0.00416
2095.19504,0.00399
2093.13487,0.00439
2091.07470,0.00510
2089.01453,0.00556
2086.95435,0.00566
2084.89418,0.00574
2082.83401,0.00596
2080.77384,0.00569
2078.71367,0.00492
2076.65349,0.00448
2074.59332,0.00469
2072.53315,0.00532
2070.47298,0.00575
2068.41281,0.00559
2066.35263,0.00517
2064.29246,0.00491
2062.23229,0.00501
2060.17212,0.00535
2058.11194,0.00547
2056.05177,0.00546
2053.99160,0.00570
2051.93143,0.00558
2049.87126,0.00469
2047.81108,0.00417
2045.75091,0.00420
2043.69074,0.00390
2041.63057,0.00362
2039.57040,0.00348
2037.51022,0.00287
2035.45005,0.00229
2033.38988,0.00260
2031.32971,0.00343
2029.26954,0.00477
2027.20936,0.00592
2025.14919,0.00550
2023.08902,0.00459
2021.02885,0.00383
2018.96867,0.00297
2016.90850,0.00281
2014.84833,0.00243
2012.78816,0.00079
2010.72799,0.00000
2008.66781,0.00112
2006.60764,0.00245
2004.54747,0.00289
2002.48730,0.00268
2000.42713,0.00274
1998.36695,0.00352
1996.30678,0.00455
1994.24661,0.00507
1992.18644,0.00495
1990.12626,0.00479
1988.06609,0.00439
1986.00592,0.00384
1983.94575,0.00404
1981.88558,0.00470
1979.82540,0.00488
1977.76523,0.00447
1975.70506,0.00344
1973.64489,0.00207
1971.58472,0.00197
1969.52454,0.00318
1967.46437,0.00358
1965.40420,0.00316
1963.34403,0.00359
1961.28386,0.00395
1959.22368,0.00293
1957.16351,0.00139
1955.10334,0.00123
1953.04317,0.00251
1950.98299,0.00315
1948.92282,0.00324
1946.86265,0.00392
1944.80248,0.00434
1942.74231,0.00369
1940.68213,0.00270
1938.62196,0.00252
1936.56179,0.00315
1934.50162,0.00377
1932.44145,0.00360
1930.38127,0.00277
1928.32110,0.00242
1926.26093,0.00273
1924.20076,0.00285
1922.14059,0.00252
1920.08041,0.00193
1918.02024,0.00177
1915.96007,0.00259
1913.89990,0.00341
1911.83972,0.00323
1909.77955,0.00263
1907.71938,0.00262
1905.65921,0.00314
1903.59904,0.00340
1901.53886,0.00315
1899.47869,0.00308
1897.41852,0.00350
1895.35835,0.00364
1893.29818,0.00305
1891.23800,0.00268
1889.17783,0.00312
1887.11766,0.00366
1885.05749,0.00368
1882.99731,0.00335
1880.93714,0.00298
1878.87697,0.00273
1876.81680,0.00270
1874.75663,0.00271
1872.69645,0.00258
1870.63628,0.00256
1868.57611,0.00297
1866.51594,0.00335
1864.45577,0.00326
1862.39559,0.00283
1860.33542,0.00251
1858.27525,0.00268
1856.21508,0.00300
1854.15491,0.00293
1852.09473,0.00261
1850.03456,0.00249
1847.97439,0.00254
1845.91422,0.00243
1843.85404,0.00234
1841.79387,0.00262
1839.73370,0.00306
1837.67353,0.00324
1835.61336,0.00318
1833.55318,0.00318
1831.49301,0.00321
1829.43284,0.00297
1827.37267,0.00252
1825.31250,0.00221
1823.25232,0.00216
1821.19215,0.00235
1819.13198,0.00260
1817.07181,0.00262
1815.01163,0.00248
1812.95146,0.00249
1810.89129,0.00255
1808.83112,0.00268
1806.77095,0.00303
1804.71077,0.00340
1802.65060,0.00354
1800.59043,0.00350
1798.53026,0.00340
1796.47009,0.00321
1794.40991,0.00294
1792.34974,0.00276
1790.28957,0.00288
1788.22940,0.00313
1786.16923,0.00327
1784.10905,0.00327
1782.04888,0.00332
1779.98871,0.00341
1777.92854,0.00334
1775.86836,0.00323
1773.80819,0.00329
1771.74802,0.00353
1769.68785,0.00378
1767.62768,0.00378
1765.56750,0.00364
1763.50733,0.00373
1761.44716,0.00405
1759.38699,0.00427
1757.32682,0.00438
1755.26664,0.00445
1753.20647,0.00438
1751.14630,0.00435
1749.08613,0.00481
1747.02596,0.00548
1744.96578,0.00569
1742.90561,0.00536
1740.84544,0.00493
1738.78527,0.00486
1736.72509,0.00505
1734.66492,0.00537
1732.60475,0.00576
1730.54458,0.00583
1728.48441,0.00558
1726.42423,0.00544
1724.36406,0.00553
1722.30389,0.00566
1720.24372,0.00568
1718.18355,0.00563
1716.12337,0.00578
1714.06320,0.00615
1712.00303,0.00659
1709.94286,0.00706
1707.88268,0.00744
1705.82251,0.00774
1703.76234,0.00796
1701.70217,0.00800
1699.64200,0.00814
1697.58182,0.00869
1695.52165,0.00942
1693.46148,0.01007
1691.40131,0.01067
1689.34114,0.01121
1687.28096,0.01150
1685.22079,0.01161
1683.16062,0.01211
1681.10045,0.01301
1679.04028,0.01374
1676.98010,0.01423
1674.91993,0.01467
1672.85976,0.01517
1670.79959,0.01577
1668.73941,0.01633
1666.67924,0.01675
1664.61907,0.01711
1662.55890,0.01757
1660.49873,0.01815
1658.43855,0.01868
1656.37838,0.01904
1654.31821,0.01901
1652.25804,0.01867
1650.19787,0.01876
1648.13769,0.01924
1646.07752,0.01938
1644.01735,0.01903
1641.95718,0.01869
1639.89701,0.01858
1637.83683,0.01841
1635.77666,0.01787
1633.71649,0.01727
1631.65632,0.01689
1629.59614,0.01646
1627.53597,0.01589
1625.47580,0.01531
1623.41563,0.01480
1621.35546,0.01433
1619.29528,0.01376
1617.23511,0.01312
1615.17494,0.01297
1613.11477,0.01323
1611.05460,0.01319
1608.99442,0.01268
1606.93425,0.01210
1604.87408,0.01171
1602.81391,0.01156
1600.75373,0.01150
1598.69356,0.01131
1596.63339,0.01098
1594.57322,0.01066
1592.51305,0.01049
1590.45287,0.01042
1588.39270,0.01028
1586.33253,0.00998
1584.27236,0.00972
1582.21219,0.00953
1580.15201,0.00935
1578.09184,0.00917
1576.03167,0.00898
1573.97150,0.00882
1571.91133,0.00875
1569.85115,0.00864
1567.79098,0.00854
1565.73081,0.00853
1563.67064,0.00851
1561.61046,0.00824
1559.55029,0.00777
1557.49012,0.00775
1555.42995,0.00823
1553.36978,0.00859
1551.30960,0.00871
1549.24943,0.00865
1547.18926,0.00849
1545.12909,0.00836
1543.06892,0.00813
1541.00874,0.00753
1538.94857,0.00689
1536.88840,0.00685
1534.82823,0.00701
1532.76805,0.00699
1530.70788,0.00692
1528.64771,0.00693
1526.58754,0.00695
1524.52737,0.00685
1522.46719,0.00655
1520.40702,0.00616
1518.34685,0.00599
1516.28668,0.00597
1514.22651,0.00596
1512.16633,0.00600
1510.10616,0.00600
1508.04599,0.00575
1505.98582,0.00519
1503.92565,0.00481
1501.86547,0.00473
1499.80530,0.00458
1497.74513,0.00422
1495.68496,0.00392
1493.62478,0.00391
1491.56461,0.00402
1489.50444,0.00399
1487.44427,0.00375
1485.38410,0.00361
1483.32392,0.00376
1481.26375,0.00392
1479.20358,0.00392
1477.14341,0.00392
1475.08324,0.00406
1473.02306,0.00418
1470.96289,0.00410
1468.90272,0.00398
1466.84255,0.00398
1464.78238,0.00413
1462.72220,0.00439
1460.66203,0.00475
1458.60186,0.00500
1456.54169,0.00481
1454.48151,0.00441
1452.42134,0.00424
1450.36117,0.00417
1448.30100,0.00405
1446.24083,0.00399
1444.18065,0.00403
1442.12048,0.00409
1440.06031,0.00414
1438.00014,0.00423
1435.93997,0.00431
1433.87979,0.00432
1431.81962,0.00431
1429.75945,0.00437
1427.69928,0.00453
1425.63910,0.00474
1423.57893,0.00494
1421.51876,0.00516
1419.45859,0.00538
1417.39842,0.00537
1415.33824,0.00517
1413.27807,0.00516
1411.21790,0.00530
1409.15773,0.00525
1407.09756,0.00507
1405.03738,0.00503
1402.97721,0.00506
1400.91704,0.00511
1398.85687,0.00518
1396.79670,0.00521
1394.73652,0.00500
1392.67635,0.00462
1390.61618,0.00438
1388.55601,0.00429
1386.49583,0.00414
1384.43566,0.00400
1382.37549,0.00398
1380.31532,0.00399
1378.25515,0.00397
1376.19497,0.00388
1374.13480,0.00374
1372.07463,0.00365
1370.01446,0.00369
1367.95429,0.00374
1365.89411,0.00373
1363.83394,0.00365
1361.77377,0.00341
1359.71360,0.00314
1357.65343,0.00303
1355.59325,0.00304
1353.53308,0.00300
1351.47291,0.00285
1349.41274,0.00265
1347.35256,0.00247
1345.29239,0.00234
1343.23222,0.00236
1341.17205,0.00269
1339.11188,0.00303
1337.05170,0.00289
1334.99153,0.00250
1332.93136,0.00229
1330.87119,0.00230
1328.81102,0.00242
1326.75084,0.00247
1324.69067,0.00244
1322.63050,0.00243
1320.57033,0.00241
1318.51015,0.00240
1316.44998,0.00244
1314.38981,0.00248
1312.32964,0.00246
1310.26947,0.00250
1308.20929,0.00266
1306.14912,0.00277
1304.08895,0.00270
1302.02878,0.00263
1299.96861,0.00270
1297.90843,0.00286
1295.84826,0.00294
1293.78809,0.00296
1291.72792,0.00313
1289.66775,0.00327
1287.60757,0.00322
1285.54740,0.00312
1283.48723,0.00314
1281.42706,0.00326
1279.36688,0.00333
1277.30671,0.00333
1275.24654,0.00333
1273.18637,0.00334
1271.12620,0.00331
1269.06602,0.00330
1267.00585,0.00334
1264.94568,0.00344
1262.88551,0.00359
1260.82534,0.00369
1258.76516,0.00369
1256.70499,0.00365
1254.64482,0.00371
1252.58465,0.00380
1250.52447,0.00376
1248.46430,0.00368
1246.40413,0.00364
1244.34396,0.00355
1242.28379,0.00333
1240.22361,0.00309
1238.16344,0.00304
1236.10327,0.00309
1234.04310,0.00297
1231.98293,0.00273
1229.92275,0.00264
1227.86258,0.00252
1225.80241,0.00213
1223.74224,0.00178
1221.68207,0.00179
1219.62189,0.00196
1217.56172,0.00181
1215.50155,0.00139
1213.44138,0.00109
1211.38120,0.00103
1209.32103,0.00109
1207.26086,0.00117
1205.20069,0.00118
1203.14052,0.00096
1201.08034,0.00057
1199.02017,0.00036
1196.96000,0.00036
1194.89983,0.00031
1192.83966,0.00007
1190.77948,0.00000
1188.71931,0.00018
1186.65914,0.00041
1184.59897,0.00064
1182.53880,0.00085
1180.47862,0.00099
1178.41845,0.00108
1176.35828,0.00107
1174.29811,0.00100
1172.23793,0.00109
1170.17776,0.00138
1168.11759,0.00173
1166.05742,0.00200
1163.99725,0.00215
1161.93707,0.00230
1159.87690,0.00257
1157.81673,0.00302
1155.75656,0.00359
1153.69639,0.00416
1151.63621,0.00467
1149.57604,0.00508
1147.51587,0.00538
1145.45570,0.00564
1143.39552,0.00617
1141.33535,0.00701
1139.27518,0.00794
1137.21501,0.00878
1135.15484,0.00947
1133.09466,0.01026
1131.03449,0.01128
1128.97432,0.01229
1126.91415,0.01314
1124.85398,0.01403
1122.79380,0.01524
1120.73363,0.01675
1118.67346,0.01833
1116.61329,0.01973
1114.55312,0.02083
1112.49294,0.02185
1110.43277,0.02302
1108.37260,0.02424
1106.31243,0.02540
1104.25225,0.02666
1102.19208,0.02794
1100.13191,0.02901
1098.07174,0.02997
1096.01157,0.03103
1093.95139,0.03214
1091.89122,0.03308
1089.83105,0.03384
1087.77088,0.03451
1085.71071,0.03530
1083.65053,0.03632
1081.59036,0.03716
1079.53019,0.03784
1077.47002,0.03876
1075.40985,0.03971
1073.34967,0.04009
1071.28950,0.04007
1069.22933,0.04025
1067.16916,0.04064
1065.10898,0.04075
1063.04881,0.04048
1060.98864,0.04025
1058.92847,0.04014
1056.86830,0.03965
1054.80812,0.03863
1052.74795,0.03745
1050.68778,0.03616
1048.62761,0.03480
1046.56744,0.03343
1044.50726,0.03188
1042.44709,0.03008
1040.38692,0.02825
1038.32675,0.02653
1036.26657,0.02498
1034.20640,0.02365
1032.14623,0.02239
1030.08606,0.02096
1028.02589,0.01946
1025.96571,0.01810
1023.90554,0.01693
1021.84537,0.01608
1019.78520,0.01553
1017.72503,0.01527
1015.66485,0.01501
1013.60468,0.01458
1011.54451,0.01429
1009.48434,0.01427
1007.42417,0.01457
1005.36399,0.01523
1003.30382,0.01614
1001.24365,0.01718
999.18348,0.01800
997.12330,0.01846
995.06313,0.01930
993.00296,0.02086
990.94279,0.02221
988.88262,0.02275
986.82244,0.02309
984.76227,0.02357
982.70210,0.02384
980.64193,0.02386
978.58176,0.02354
976.52158,0.02271
974.46141,0.02164
972.40124,0.02087
970.34107,0.02026
968.28089,0.01925
966.22072,0.01796
964.16055,0.01673
962.10038,0.01561
960.04021,0.01449
957.98003,0.01319
955.91986,0.01180
953.85969,0.01060
951.79952,0.00955
949.73935,0.00871
947.67917,0.00816
945.61900,0.00745
943.55883,0.00645
941.49866,0.00551
939.43849,0.00471
937.37831,0.00405
935.31814,0.00354
933.25797,0.00313
931.19780,0.00285
929.13762,0.00262
927.07745,0.00226
925.01728,0.00183
922.95711,0.00157
920.89694,0.00130
918.83676,0.00094
916.77659,0.00070
914.71642,0.00061
912.65625,0.00050
910.59608,0.00023
908.53590,0.00000
906.47573,0.00006
904.41556,0.00035
902.35539,0.00083
900.29522,0.00138
898.23504,0.00151
896.17487,0.00116
894.11470,0.00103
892.05453,0.00143
889.99435,0.00197
887.93418,0.00251
885.87401,0.00302
883.81384,0.00346
881.75367,0.00411
879.69349,0.00507
877.63332,0.00586
875.57315,0.00606
873.51298,0.00602
871.45281,0.00629
869.39263,0.00689
867.33246,0.00719
865.27229,0.00702
863.21212,0.00712
861.15194,0.00768
859.09177,0.00819
857.03160,0.00850
854.97143,0.00871
852.91126,0.00876
850.85108,0.00850
848.79091,0.00790
846.73074,0.00742
844.67057,0.00731
842.61040,0.00717
840.55022,0.00668
838.49005,0.00627
836.42988,0.00615
834.36971,0.00577
832.30954,0.00520
830.24936,0.00494
828.18919,0.00464
826.12902,0.00404
824.06885,0.00371
822.00867,0.00379
819.94850,0.00390
817.88833,0.00373
815.82816,0.00301
813.76799,0.00219
811.70781,0.00233
809.64764,0.00315
807.58747,0.00328
805.52730,0.00274
803.46713,0.00250
801.40695,0.00249
799.34678,0.00181
797.28661,0.00070
795.22644,0.00038
793.16627,0.00087
791.10609,0.00129
789.04592,0.00136
786.98575,0.00126
784.92558,0.00117
782.86540,0.00116
780.80523,0.00109
778.74506,0.00111
776.68489,0.00126
774.62472,0.00126
772.56454,0.00111
770.50437,0.00054
768.44420,0.00017
766.38403,0.00081
764.32386,0.00156
762.26368,0.00192
760.20351,0.00196
758.14334,0.00157
756.08317,0.00115
754.02299,0.00063
751.96282,0.00033
749.90265,0.00091
747.84248,0.00185
745.78231,0.00208
743.72213,0.00142
741.66196,0.00071
739.60179,0.00061
737.54162,0.00099
735.48145,0.00120
733.42127,0.00076
731.36110,0.00014
729.30093,0.00047
727.24076,0.00173
725.18059,0.00246
723.12041,0.00269
721.06024,0.00283
719.00007,0.00283
716.93990,0.00263
714.87972,0.00227
712.81955,0.00167
710.75938,0.00109
708.69921,0.00114
706.63904,0.00184
704.57886,0.00268
702.51869,0.00312
700.45852,0.00308
698.39835,0.00330
696.33818,0.00415
694.27800,0.00480
692.21783,0.00448
690.15766,0.00361
688.09749,0.00298
686.03731,0.00262
683.97714,0.00240
681.91697,0.00195
679.85680,0.00093
677.79663,0.00000
675.73645,-0.00015
673.67628,0.00019
671.61611,0.00066
669.55594,0.00385
667.49577,0.00677
665.43559,0.00258
663.37542,0.00196
661.31525,0.00219
659.25508,0.00147
657.19491,0.00079
655.13473,0.00083
653.07456,0.00094
651.01439,0.00047
648.95422,0.00000
646.89404,0.00027
644.83387,0.00122
642.77370,0.00188
640.71353,0.00194
638.65336,0.00189
636.59318,0.00160
634.53301,0.00111
632.47284,0.00116
630.41267,0.00164
628.35250,0.00247
626.29232,0.00352
624.23215,0.00342
622.17198,0.00223
620.11181,0.00166
618.05164,0.00194
615.99146,0.00090
613.93129,-0.00155
611.87112,-0.00264
609.81095,-0.00106
607.75077,0.00121
605.69060,0.00105
603.63043,-0.00018
601.57026,-0.00047
599.51009,0.00000
