3996.73391,0.00084
3994.67373,0.00062
3992.61356,0.00059
3990.55339,0.00069
3988.49322,0.00084
3986.43305,0.00103
3984.37287,0.00102
3982.31270,0.00085
3980.25253,0.00100
3978.19236,0.00138
3976.13219,0.00139
3974.07201,0.00103
3972.01184,0.00083
3969.95167,0.00087
3967.89150,0.00103
3965.83133,0.00124
3963.77115,0.00125
3961.71098,0.00084
3959.65081,0.00027
3957.59064,0.00000
3955.53046,0.00012
3953.47029,0.00047
3951.41012,0.00094
3949.34995,0.00135
3947.28978,0.00133
3945.22960,0.00095
3943.16943,0.00061
3941.10926,0.00039
3939.04909,0.00037
3936.98892,0.00077
3934.92874,0.00126
3932.86857,0.00140
3930.80840,0.00130
3928.74823,0.00126
3926.68805,0.00141
3924.62788,0.00161
3922.56771,0.00152
3920.50754,0.00107
3918.44737,0.00070
3916.38719,0.00074
3914.32702,0.00103
3912.26685,0.00125
3910.20668,0.00120
3908.14651,0.00114
3906.08633,0.00139
3904.02616,0.00166
3901.96599,0.00153
3899.90582,0.00114
3897.84565,0.00079
3895.78547,0.00068
3893.72530,0.00084
3891.66513,0.00106
3889.60496,0.00117
3887.54478,0.00141
3885.48461,0.00182
3883.42444,0.00195
3881.36427,0.00179
3879.30410,0.00150
3877.24392,0.00115
3875.18375,0.00102
3873.12358,0.00122
3871.06341,0.00131
3869.00324,0.00120
3866.94306,0.00132
3864.88289,0.00145
3862.82272,0.00145
3860.76255,0.00159
3858.70237,0.00180
3856.64220,0.00207
3854.58203,0.00227
3852.52186,0.00187
3850.46169,0.00105
3848.40151,0.00065
3846.34134,0.00077
3844.28117,0.00105
3842.22100,0.00125
3840.16083,0.00132
3838.10065,0.00123
3836.04048,0.00126
3833.98031,0.00157
3831.92014,0.00180
3829.85997,0.00177
3827.79979,0.00178
3825.73962,0.00183
3823.67945,0.00168
3821.61928,0.00136
3819.55910,0.00102
3817.49893,0.00073
3815.43876,0.00048
3813.37859,0.00051
3811.31842,0.00086
3809.25824,0.00120
3807.19807,0.00136
3805.13790,0.00156
3803.07773,0.00172
3801.01756,0.00130
3798.95738,0.00059
3796.89721,0.00040
3794.83704,0.00072
3792.77687,0.00113
3790.71670,0.00140
3788.65652,0.00154
3786.59635,0.00162
3784.53618,0.00170
3782.47601,0.00167
3780.41583,0.00139
3778.35566,0.00109
3776.29549,0.00106
3774.23532,0.00123
3772.17515,0.00144
3770.11497,0.00169
3768.05480,0.00182
3765.99463,0.00145
3763.93446,0.00081
3761.87429,0.00078
3759.81411,0.00146
3757.75394,0.00203
3755.69377,0.00239
3753.63360,0.00263
3751.57342,0.00223
3749.51325,0.00164
3747.45308,0.00179
3745.39291,0.00201
3743.33274,0.00166
3741.27256,0.00137
3739.21239,0.00188
3737.15222,0.00288
3735.09205,0.00301
3733.03188,0.00192
3730.97170,0.00137
3728.91153,0.00208
3726.85136,0.00290
3724.79119,0.00297
3722.73102,0.00257
3720.67084,0.00207
3718.61067,0.00173
3716.55050,0.00148
3714.49033,0.00105
3712.43015,0.00057
3710.36998,0.00049
3708.30981,0.00125
3706.24964,0.00229
3704.18947,0.00285
3702.12929,0.00271
3700.06912,0.00223
3698.00895,0.00198
3695.94878,0.00193
3693.88861,0.00171
3691.82843,0.00127
3689.76826,0.00129
3687.70809,0.00175
3685.64792,0.00194
3683.58775,0.00178
3681.52757,0.00183
3679.46740,0.00209
3677.40723,0.00203
3675.34706,0.00147
3673.28688,0.00116
3671.22671,0.00147
3669.16654,0.00197
3667.10637,0.00223
3665.04620,0.00233
3662.98602,0.00250
3660.92585,0.00283
3658.86568,0.00318
3656.80551,0.00352
3654.74534,0.00392
3652.68516,0.00416
3650.62499,0.00413
3648.56482,0.00406
3646.50465,0.00413
3644.44447,0.00438
3642.38430,0.00454
3640.32413,0.00450
3638.26396,0.00453
3636.20379,0.00474
3634.14361,0.00480
3632.08344,0.00475
3630.02327,0.00509
3627.96310,0.00579
3625.90293,0.00642
3623.84275,0.00674
3621.78258,0.00658
3619.72241,0.00604
3617.66224,0.00582
3615.60207,0.00638
3613.54189,0.00728
3611.48172,0.00823
3609.42155,0.00890
3607.36138,0.00913
3605.30120,0.00926
3603.24103,0.00934
3601.18086,0.00921
3599.12069,0.00901
3597.06052,0.00919
3595.00034,0.00951
3592.94017,0.00952
3590.88000,0.00940
3588.81983,0.00956
3586.75966,0.00964
3584.69948,0.00957
3582.63931,0.00976
3580.57914,0.01022
3578.51897,0.01057
3576.45879,0.01066
3574.39862,0.01071
3572.33845,0.01094
3570.27828,0.01141
3568.21811,0.01185
3566.15793,0.01171
3564.09776,0.01126
3562.03759,0.01124
3559.97742,0.01155
3557.91725,0.01176
3555.85707,0.01199
3553.79690,0.01247
3551.73673,0.01297
3549.67656,0.01330
3547.61639,0.01350
3545.55621,0.01353
3543.49604,0.01323
3541.43587,0.01274
3539.37570,0.01269
3537.31552,0.01342
3535.25535,0.01427
3533.19518,0.01447
3531.13501,0.01430
3529.07484,0.01442
3527.01466,0.01485
3524.95449,0.01515
3522.89432,0.01509
3520.83415,0.01485
3518.77398,0.01466
3516.71380,0.01466
3514.65363,0.01493
3512.59346,0.01546
3510.53329,0.01601
3508.47312,0.01628
3506.41294,0.01630
3504.35277,0.01640
3502.29260,0.01677
3500.23243,0.01703
3498.17225,0.01690
3496.11208,0.01690
3494.05191,0.01732
3491.99174,0.01753
3489.93157,0.01746
3487.87139,0.01760
3485.81122,0.01793
3483.75105,0.01813
3481.69088,0.01815
3479.63071,0.01816
3477.57053,0.01834
3475.51036,0.01851
3473.45019,0.01853
3471.39002,0.01876
3469.32984,0.01930
3467.26967,0.01974
3465.20950,0.02002
3463.14933,0.02035
3461.08916,0.02038
3459.02898,0.02009
3456.96881,0.01991
3454.90864,0.01996
3452.84847,0.02019
3450.78830,0.02044
3448.72812,0.02043
3446.66795,0.02030
3444.60778,0.02040
3442.54761,0.02063
3440.48744,0.02084
3438.42726,0.02116
3436.36709,0.02149
3434.30692,0.02168
3432.24675,0.02188
3430.18657,0.02225
3428.12640,0.02260
3426.06623,0.02276
3424.00606,0.02277
3421.94589,0.02274
3419.88571,0.02284
3417.82554,0.02287
3415.76537,0.02256
3413.70520,0.02219
3411.64503,0.02221
3409.58485,0.02277
3407.52468,0.02329
3405.46451,0.02339
3403.40434,0.02335
3401.34416,0.02331
3399.28399,0.02333
3397.22382,0.02311
3395.16365,0.02285
3393.10348,0.02318
3391.04330,0.02396
3388.98313,0.02419
3386.92296,0.02380
3384.86279,0.02352
3382.80262,0.02350
3380.74244,0.02364
3378.68227,0.02397
3376.62210,0.02440
3374.56193,0.02466
3372.50176,0.02434
3370.44158,0.02380
3368.38141,0.02383
3366.32124,0.02434
3364.26107,0.02474
3362.20089,0.02494
3360.14072,0.02483
3358.08055,0.02439
3356.02038,0.02404
3353.96021,0.02404
3351.90003,0.02446
3349.83986,0.02490
3347.77969,0.02486
3345.71952,0.02455
3343.65935,0.02449
3341.59917,0.02477
3339.53900,0.02485
3337.47883,0.02444
3335.41866,0.02403
3333.35849,0.02401
3331.29831,0.02434
3329.23814,0.02473
3327.17797,0.02492
3325.11780,0.02499
3323.05762,0.02503
3320.99745,0.02497
3318.93728,0.02474
3316.87711,0.02469
3314.81694,0.02508
3312.75676,0.02537
3310.69659,0.02517
3308.63642,0.02480
3306.57625,0.02476
3304.51608,0.02497
3302.45590,0.02517
3300.39573,0.02528
3298.33556,0.02535
3296.27539,0.02546
3294.21521,0.02558
3292.15504,0.02542
3290.09487,0.02509
3288.03470,0.02502
3285.97453,0.02511
3283.91435,0.02517
3281.85418,0.02540
3279.79401,0.02550
3277.73384,0.02515
3275.67367,0.02487
3273.61349,0.02495
3271.55332,0.02499
3269.49315,0.02498
3267.43298,0.02488
3265.37281,0.02470
3263.31263,0.02471
3261.25246,0.02487
3259.19229,0.02490
3257.13212,0.02492
3255.07194,0.02499
3253.01177,0.02502
3250.95160,0.02520
3248.89143,0.02544
3246.83126,0.02534
3244.77108,0.02517
3242.71091,0.02520
3240.65074,0.02513
3238.59057,0.02505
3236.53040,0.02526
3234.47022,0.02540
3232.41005,0.02513
3230.34988,0.02486
3228.28971,0.02474
3226.22954,0.02469
3224.16936,0.02485
3222.10919,0.02500
3220.04902,0.02486
3217.98885,0.02465
3215.92867,0.02474
3213.86850,0.02478
3211.80833,0.02447
3209.74816,0.02439
3207.68799,0.02472
3205.62781,0.02490
3203.56764,0.02489
3201.50747,0.02493
3199.44730,0.02495
3197.38713,0.02475
3195.32695,0.02439
3193.26678,0.02414
3191.20661,0.02407
3189.14644,0.02399
3187.08626,0.02392
3185.02609,0.02411
3182.96592,0.02431
3180.90575,0.02415
3178.84558,0.02403
3176.78540,0.02410
3174.72523,0.02409
3172.66506,0.02410
3170.60489,0.02411
3168.54472,0.02392
3166.48454,0.02379
3164.42437,0.02386
3162.36420,0.02382
3160.30403,0.02366
3158.24386,0.02347
3156.18368,0.02318
3154.12351,0.02298
3152.06334,0.02304
3150.00317,0.02335
3147.94299,0.02367
3145.88282,0.02368
3143.82265,0.02347
3141.76248,0.02320
3139.70231,0.02282
3137.64213,0.02242
3135.58196,0.02226
3133.52179,0.02246
3131.46162,0.02262
3129.40145,0.02253
3127.34127,0.02247
3125.28110,0.02257
3123.22093,0.02249
3121.16076,0.02220
3119.10058,0.02209
3117.04041,0.02201
3114.98024,0.02182
3112.92007,0.02181
3110.85990,0.02191
3108.79972,0.02201
3106.73955,0.02220
3104.67938,0.02223
3102.61921,0.02196
3100.55904,0.02170
3098.49886,0.02156
3096.43869,0.02135
3094.37852,0.02104
3092.31835,0.02083
3090.25818,0.02092
3088.19800,0.02120
3086.13783,0.02149
3084.07766,0.02174
3082.01749,0.02178
3079.95731,0.02154
3077.89714,0.02127
3075.83697,0.02097
3073.77680,0.02060
3071.71663,0.02036
3069.65645,0.02029
3067.59628,0.02026
3065.53611,0.02016
3063.47594,0.01991
3061.41577,0.01979
3059.35559,0.01998
3057.29542,0.02010
3055.23525,0.01998
3053.17508,0.01995
3051.11491,0.02016
3049.05473,0.02036
3046.99456,0.02025
3044.93439,0.01981
3042.87422,0.01944
3040.81404,0.01941
3038.75387,0.01947
3036.69370,0.01932
3034.63353,0.01906
3032.57336,0.01894
3030.51318,0.01905
3028.45301,0.01914
3026.39284,0.01900
3024.33267,0.01893
3022.27250,0.01903
3020.21232,0.01881
3018.15215,0.01833
3016.09198,0.01823
3014.03181,0.01849
3011.97163,0.01868
3009.91146,0.01866
3007.85129,0.01858
3005.79112,0.01849
3003.73095,0.01832
3001.67077,0.01813
2999.61060,0.01802
2997.55043,0.01792
2995.49026,0.01774
2993.43009,0.01756
2991.36991,0.01749
2989.30974,0.01757
2987.24957,0.01783
2985.18940,0.01802
2983.12923,0.01792
2981.06905,0.01779
2979.00888,0.01785
2976.94871,0.01787
2974.88854,0.01775
2972.82836,0.01750
2970.76819,0.01727
2968.70802,0.01724
2966.64785,0.01735
2964.58768,0.01738
2962.52750,0.01727
2960.46733,0.01714
2958.40716,0.01703
2956.34699,0.01689
2954.28682,0.01673
2952.22664,0.01664
2950.16647,0.01660
2948.10630,0.01660
2946.04613,0.01666
2943.98596,0.01666
2941.92578,0.01654
2939.86561,0.01642
2937.80544,0.01642
2935.74527,0.01635
2933.68509,0.01607
2931.62492,0.01585
2929.56475,0.01588
2927.50458,0.01589
2925.44441,0.01566
2923.38423,0.01526
2921.32406,0.01492
2919.26389,0.01492
2917.20372,0.01526
2915.14355,0.01559
2913.08337,0.01563
2911.02320,0.01546
2908.96303,0.01535
2906.90286,0.01526
2904.84268,0.01516
2902.78251,0.01524
2900.72234,0.01513
2898.66217,0.01467
2896.60200,0.01446
2894.54182,0.01448
2892.48165,0.01430
2890.42148,0.01409
2888.36131,0.01417
2886.30114,0.01448
2884.24096,0.01466
2882.18079,0.01455
2880.12062,0.01430
2878.06045,0.01411
2876.00028,0.01405
2873.94010,0.01398
2871.87993,0.01386
2869.81976,0.01372
2867.75959,0.01355
2865.69941,0.01337
2863.63924,0.01309
2861.57907,0.01276
2859.51890,0.01258
2857.45873,0.01253
2855.39855,0.01253
2853.33838,0.01247
2851.27821,0.01233
2849.21804,0.01223
2847.15787,0.01223
2845.09769,0.01219
2843.03752,0.01195
2840.97735,0.01183
2838.91718,0.01192
2836.85700,0.01186
2834.79683,0.01165
2832.73666,0.01144
2830.67649,0.01127
2828.61632,0.01125
2826.55614,0.01138
2824.49597,0.01136
2822.43580,0.01112
2820.37563,0.01099
2818.31546,0.01100
2816.25528,0.01101
2814.19511,0.01098
2812.13494,0.01094
2810.07477,0.01091
2808.01460,0.01084
2805.95442,0.01076
2803.89425,0.01069
2801.83408,0.01070
2799.77391,0.01068
2797.71373,0.01055
2795.65356,0.01039
2793.59339,0.01021
2791.53322,0.01001
2789.47305,0.00978
2787.41287,0.00963
2785.35270,0.00978
2783.29253,0.01010
2781.23236,0.01011
2779.17219,0.00990
2777.11201,0.00988
2775.05184,0.00998
2772.99167,0.00989
2770.93150,0.00959
2768.87133,0.00941
2766.81115,0.00951
2764.75098,0.00958
2762.69081,0.00969
2760.63064,0.00999
2758.57046,0.01007
2756.51029,0.00961
2754.45012,0.00904
2752.38995,0.00891
2750.32978,0.00917
2748.26960,0.00939
2746.20943,0.00943
2744.14926,0.00935
2742.08909,0.00922
2740.02892,0.00906
2737.96874,0.00893
2735.90857,0.00882
2733.84840,0.00860
2731.78823,0.00842
2729.72805,0.00856
2727.66788,0.00886
2725.60771,0.00885
2723.54754,0.00852
2721.48737,0.00826
2719.42719,0.00826
2717.36702,0.00832
2715.30685,0.00836
2713.24668,0.00854
2711.18651,0.00877
2709.12633,0.00872
2707.06616,0.00844
2705.00599,0.00836
2702.94582,0.00831
2700.88565,0.00799
2698.82547,0.00787
2696.76530,0.00807
2694.70513,0.00803
2692.64496,0.00780
2690.58478,0.00771
2688.52461,0.00784
2686.46444,0.00798
2684.40427,0.00790
2682.34410,0.00779
2680.28392,0.00781
2678.22375,0.00786
2676.16358,0.00794
2674.10341,0.00805
2672.04324,0.00798
2669.98306,0.00766
2667.92289,0.00736
2665.86272,0.00734
2663.80255,0.00744
2661.74238,0.00751
2659.68220,0.00756
2657.62203,0.00758
2655.56186,0.00745
2653.50169,0.00719
2651.44151,0.00713
2649.38134,0.00726
2647.32117,0.00726
2645.26100,0.00729
2643.20083,0.00752
2641.14065,0.00760
2639.08048,0.00746
2637.02031,0.00736
2634.96014,0.00729
2632.89997,0.00723
2630.83979,0.00719
2628.77962,0.00713
2626.71945,0.00699
2624.65928,0.00670
2622.59910,0.00651
2620.53893,0.00663
2618.47876,0.00666
2616.41859,0.00646
2614.35842,0.00644
2612.29824,0.00674
2610.23807,0.00720
2608.17790,0.00739
2606.11773,0.00712
2604.05756,0.00669
2601.99738,0.00645
2599.93721,0.00653
2597.87704,0.00664
2595.81687,0.00662
2593.75670,0.00669
2591.69652,0.00678
2589.63635,0.00669
2587.57618,0.00664
2585.51601,0.00661
2583.45583,0.00647
2581.39566,0.00631
2579.33549,0.00632
2577.27532,0.00654
2575.21515,0.00677
2573.15497,0.00666
2571.09480,0.00629
2569.03463,0.00612
2566.97446,0.00628
2564.91429,0.00633
2562.85411,0.00614
2560.79394,0.00603
2558.73377,0.00601
2556.67360,0.00607
2554.61342,0.00633
2552.55325,0.00660
2550.49308,0.00648
2548.43291,0.00619
2546.37274,0.00626
2544.31256,0.00657
2542.25239,0.00673
2540.19222,0.00662
2538.13205,0.00628
2536.07188,0.00606
2534.01170,0.00634
2531.95153,0.00677
2529.89136,0.00679
2527.83119,0.00659
2525.77102,0.00634
2523.71084,0.00613
2521.65067,0.00601
2519.59050,0.00599
2517.53033,0.00594
2515.47015,0.00570
2513.40998,0.00570
2511.34981,0.00624
2509.28964,0.00671
2507.22947,0.00675
2505.16929,0.00674
2503.10912,0.00684
2501.04895,0.00697
2498.98878,0.00713
2496.92861,0.00693
2494.86843,0.00642
2492.80826,0.00624
2490.74809,0.00655
2488.68792,0.00691
2486.62775,0.00694
2484.56757,0.00686
2482.50740,0.00687
2480.44723,0.00691
2478.38706,0.00702
2476.32688,0.00716
2474.26671,0.00702
2472.20654,0.00667
2470.14637,0.00649
2468.08620,0.00669
2466.02602,0.00702
2463.96585,0.00707
2461.90568,0.00696
2459.84551,0.00694
2457.78534,0.00693
2455.72516,0.00672
2453.66499,0.00632
2451.60482,0.00627
2449.54465,0.00669
2447.48447,0.00707
2445.42430,0.00725
2443.36413,0.00722
2441.30396,0.00704
2439.24379,0.00698
2437.18361,0.00697
2435.12344,0.00665
2433.06327,0.00627
2431.00310,0.00646
2428.94293,0.00685
2426.88275,0.00688
2424.82258,0.00698
2422.76241,0.00726
2420.70224,0.00719
2418.64207,0.00679
2416.58189,0.00671
2414.52172,0.00708
2412.46155,0.00739
2410.40138,0.00736
2408.34120,0.00724
2406.28103,0.00717
2404.22086,0.00706
2402.16069,0.00695
2400.10052,0.00678
2398.04034,0.00630
2395.98017,0.00643
2393.92000,0.00682
2391.85983,0.00688
2389.79966,0.00680
2387.73948,0.00708
2385.67931,0.00762
2383.61914,0.00790
2381.55897,0.00792
2379.49880,0.00831
2377.43862,0.00926
2375.37845,0.01055
2373.31828,0.01110
2371.25811,0.01095
2369.19793,0.01082
2367.13776,0.00934
2365.07759,0.00652
2363.01742,0.00498
2360.95725,0.00319
2358.89707,0.00608
2356.83690,0.01186
2354.77673,0.01516
2352.71656,0.01407
2350.65639,0.00891
2348.59621,0.00678
2346.53604,0.01218
2344.47587,0.01263
2342.41570,0.01085
2340.35552,0.01093
2338.29535,0.01149
2336.23518,0.01154
2334.17501,0.01081
2332.11484,0.01091
2330.05466,0.01119
2327.99449,0.01122
2325.93432,0.01029
2323.87415,0.01047
2321.81398,0.01061
2319.75380,0.01086
2317.69363,0.00984
2315.63346,0.00942
2313.57329,0.00958
2311.51312,0.00964
2309.45294,0.00995
2307.39277,0.01016
2305.33260,0.00997
2303.27243,0.00954
2301.21225,0.00923
2299.15208,0.00882
2297.09191,0.00888
2295.03174,0.00945
2292.97157,0.00960
2290.91139,0.00927
2288.85122,0.00902
2286.79105,0.00884
2284.73088,0.00847
2282.67071,0.00795
2280.61053,0.00753
2278.55036,0.00743
2276.49019,0.00798
2274.43002,0.00897
2272.36984,0.00948
2270.30967,0.00906
2268.24950,0.00833
2266.18933,0.00780
2264.12916,0.00761
2262.06898,0.00762
2260.00881,0.00752
2257.94864,0.00740
2255.88847,0.00757
2253.82830,0.00754
2251.76812,0.00704
2249.70795,0.00661
2247.64778,0.00670
2245.58761,0.00690
2243.52744,0.00715
2241.46726,0.00716
2239.40709,0.00688
2237.34692,0.00676
2235.28675,0.00688
2233.22657,0.00702
2231.16640,0.00748
2229.10623,0.00785
2227.04606,0.00767
2224.98589,0.00724
2222.92571,0.00671
2220.86554,0.00667
2218.80537,0.00706
2216.74520,0.00685
2214.68503,0.00584
2212.62485,0.00489
2210.56468,0.00481
2208.50451,0.00548
2206.44434,0.00637
2204.38417,0.00685
2202.32399,0.00686
2200.26382,0.00688
2198.20365,0.00700
2196.14348,0.00756
2194.08330,0.00874
2192.02313,0.00968
2189.96296,0.00959
2187.90279,0.00874
2185.84262,0.00805
2183.78244,0.00780
2181.72227,0.00743
2179.66210,0.00639
2177.60193,0.00526
2175.54176,0.00487
2173.48158,0.00549
2171.42141,0.00722
2169.36124,0.00823
2167.30107,0.00784
2165.24089,0.00784
2163.18072,0.00783
2161.12055,0.00649
2159.06038,0.00439
2157.00021,0.00165
2154.94003,0.00000
2152.87986,0.00164
2150.81969,0.00428
2148.75952,0.00520
2146.69935,0.00494
2144.63917,0.00525
2142.57900,0.00595
2140.51883,0.00587
2138.45866,0.00529
2136.39849,0.00460
2134.33831,0.00449
2132.27814,0.00493
2130.21797,0.00505
2128.15780,0.00520
2126.09762,0.00562
2124.03745,0.00589
2121.97728,0.00610
2119.91711,0.00630
2117.85694,0.00616
2115.79676,0.00582
2113.73659,0.00574
2111.67642,0.00576
2109.61625,0.00542
2107.55608,0.00472
2105.49590,0.00431
2103.43573,0.00496
2101.37556,0.00631
2099.31539,0.00720
2097.25521,0.00686
2095.19504,0.00573
2093.13487,0.00543
2091.07470,0.00602
2089.01453,0.00637
2086.95435,0.00614
2084.89418,0.00583
2082.83401,0.00593
2080.77384,0.00594
2078.71367,0.00542
2076.65349,0.00497
2074.59332,0.00514
2072.53315,0.00553
2070.47298,0.00533
2068.41281,0.00491
2066.35263,0.00539
2064.29246,0.00607
2062.23229,0.00569
2060.17212,0.00502
2058.11194,0.00480
2056.05177,0.00456
2053.99160,0.00428
2051.93143,0.00445
2049.87126,0.00460
2047.81108,0.00431
2045.75091,0.00401
2043.69074,0.00344
2041.63057,0.00306
2039.57040,0.00394
2037.51022,0.00449
2035.45005,0.00382
2033.38988,0.00382
2031.32971,0.00470
2029.26954,0.00514
2027.20936,0.00498
2025.14919,0.00455
2023.08902,0.00384
2021.02885,0.00309
2018.96867,0.00227
2016.90850,0.00151
2014.84833,0.00134
2012.78816,0.00131
2010.72799,0.00153
2008.66781,0.00216
2006.60764,0.00231
2004.54747,0.00167
2002.48730,0.00103
2000.42713,0.00167
1998.36695,0.00363
1996.30678,0.00534
1994.24661,0.00544
1992.18644,0.00453
1990.12626,0.00458
1988.06609,0.00556
1986.00592,0.00611
1983.94575,0.00618
1981.88558,0.00574
1979.82540,0.00471
1977.76523,0.00446
1975.70506,0.00490
1973.64489,0.00417
1971.58472,0.00310
1969.52454,0.00348
1967.46437,0.00383
1965.40420,0.00291
1963.34403,0.00262
1961.28386,0.00346
1959.22368,0.00390
1957.16351,0.00326
1955.10334,0.00250
1953.04317,0.00261
1950.98299,0.00307
1948.92282,0.00340
1946.86265,0.00361
1944.80248,0.00349
1942.74231,0.00318
1940.68213,0.00305
1938.62196,0.00283
1936.56179,0.00219
1934.50162,0.00192
1932.44145,0.00229
1930.38127,0.00229
1928.32110,0.00224
1926.26093,0.00290
1924.20076,0.00364
1922.14059,0.00376
1920.08041,0.00332
1918.02024,0.00297
1915.96007,0.00325
1913.89990,0.00369
1911.83972,0.00365
1909.77955,0.00315
1907.71938,0.00272
1905.65921,0.00269
1903.59904,0.00292
1901.53886,0.00301
1899.47869,0.00309
1897.41852,0.00345
1895.35835,0.00362
1893.29818,0.00323
1891.23800,0.00294
1889.17783,0.00325
1887.11766,0.00353
1885.05749,0.00339
1882.99731,0.00315
1880.93714,0.00301
1878.87697,0.00289
1876.81680,0.00272
1874.75663,0.00258
1872.69645,0.00249
1870.63628,0.00243
1868.57611,0.00254
1866.51594,0.00273
1864.45577,0.00276
1862.39559,0.00267
1860.33542,0.00259
1858.27525,0.00273
1856.21508,0.00301
1854.15491,0.00306
1852.09473,0.00279
1850.03456,0.00242
1847.97439,0.00223
1845.91422,0.00237
1843.85404,0.00285
1841.79387,0.00330
1839.73370,0.00338
1837.67353,0.00320
1835.61336,0.00310
1833.55318,0.00317
1831.49301,0.00314
1829.43284,0.00282
1827.37267,0.00241
1825.31250,0.00237
1823.25232,0.00263
1821.19215,0.00281
1819.13198,0.00279
1817.07181,0.00259
1815.01163,0.00241
1812.95146,0.00243
1810.89129,0.00254
1808.83112,0.00265
1806.77095,0.00289
1804.71077,0.00319
1802.65060,0.00341
1800.59043,0.00355
1798.53026,0.00349
1796.47009,0.00315
1794.40991,0.00282
1792.34974,0.00288
1790.28957,0.00323
1788.22940,0.00349
1786.16923,0.00355
1784.10905,0.00346
1782.04888,0.00331
1779.98871,0.00322
1777.92854,0.00314
1775.86836,0.00290
1773.80819,0.00270
1771.74802,0.00287
1769.68785,0.00326
1767.62768,0.00347
1765.56750,0.00352
1763.50733,0.00358
1761.44716,0.00368
1759.38699,0.00377
1757.32682,0.00385
1755.26664,0.00399
1753.20647,0.00420
1751.14630,0.00431
1749.08613,0.00431
1747.02596,0.00444
1744.96578,0.00460
1742.90561,0.00449
1740.84544,0.00419
1738.78527,0.00403
1736.72509,0.00409
1734.66492,0.00433
1732.60475,0.00461
1730.54458,0.00460
1728.48441,0.00433
1726.42423,0.00421
1724.36406,0.00436
1722.30389,0.00460
1720.24372,0.00474
1718.18355,0.00464
1716.12337,0.00457
1714.06320,0.00478
1712.00303,0.00515
1709.94286,0.00536
1707.88268,0.00546
1705.82251,0.00581
1703.76234,0.00622
1701.70217,0.00611
1699.64200,0.00575
1697.58182,0.00598
1695.52165,0.00680
1693.46148,0.00764
1691.40131,0.00826
1689.34114,0.00858
1687.28096,0.00853
1685.22079,0.00840
1683.16062,0.00880
1681.10045,0.00952
1679.04028,0.01003
1676.98010,0.01036
1674.91993,0.01066
1672.85976,0.01089
1670.79959,0.01105
1668.73941,0.01137
1666.67924,0.01183
1664.61907,0.01214
1662.55890,0.01238
1660.49873,0.01289
1658.43855,0.01348
1656.37838,0.01366
1654.31821,0.01324
1652.25804,0.01267
1650.19787,0.01269
1648.13769,0.01292
1646.07752,0.01291
1644.01735,0.01284
1641.95718,0.01288
1639.89701,0.01299
1637.83683,0.01295
1635.77666,0.01258
1633.71649,0.01220
1631.65632,0.01208
1629.59614,0.01198
1627.53597,0.01175
1625.47580,0.01138
1623.41563,0.01087
1621.35546,0.01037
1619.29528,0.00989
1617.23511,0.00932
1615.17494,0.00896
1613.11477,0.00901
1611.05460,0.00915
1608.99442,0.00910
1606.93425,0.00885
1604.87408,0.00847
1602.81391,0.00809
1600.75373,0.00786
1598.69356,0.00778
1596.63339,0.00773
1594.57322,0.00760
1592.51305,0.00738
1590.45287,0.00722
1588.39270,0.00707
1586.33253,0.00687
1584.27236,0.00671
1582.21219,0.00661
1580.15201,0.00648
1578.09184,0.00629
1576.03167,0.00612
1573.97150,0.00608
1571.91133,0.00602
1569.85115,0.00588
1567.79098,0.00593
1565.73081,0.00612
1563.67064,0.00607
1561.61046,0.00554
1559.55029,0.00475
1557.49012,0.00472
1555.42995,0.00548
1553.36978,0.00604
1551.30960,0.00615
1549.24943,0.00600
1547.18926,0.00581
1545.12909,0.00565
1543.06892,0.00535
1541.00874,0.00487
1538.94857,0.00457
1536.88840,0.00461
1534.82823,0.00466
1532.76805,0.00466
1530.70788,0.00471
1528.64771,0.00480
1526.58754,0.00497
1524.52737,0.00513
1522.46719,0.00501
1520.40702,0.00468
1518.34685,0.00450
1516.28668,0.00446
1514.22651,0.00442
1512.16633,0.00442
1510.10616,0.00440
1508.04599,0.00413
1505.98582,0.00364
1503.92565,0.00352
1501.86547,0.00364
1499.80530,0.00347
1497.74513,0.00308
1495.68496,0.00301
1493.62478,0.00321
1491.56461,0.00328
1489.50444,0.00314
1487.44427,0.00291
1485.38410,0.00281
1483.32392,0.00292
1481.26375,0.00305
1479.20358,0.00306
1477.14341,0.00303
1475.08324,0.00298
1473.02306,0.00290
1470.96289,0.00297
1468.90272,0.00311
1466.84255,0.00311
1464.78238,0.00307
1462.72220,0.00325
1460.66203,0.00355
1458.60186,0.00364
1456.54169,0.00324
1454.48151,0.00283
1452.42134,0.00289
1450.36117,0.00310
1448.30100,0.00319
1446.24083,0.00323
1444.18065,0.00325
1442.12048,0.00317
1440.06031,0.00308
1438.00014,0.00308
1435.93997,0.00317
1433.87979,0.00324
1431.81962,0.00323
1429.75945,0.00314
1427.69928,0.00317
1425.63910,0.00338
1423.57893,0.00362
1421.51876,0.00368
1419.45859,0.00368
1417.39842,0.00364
1415.33824,0.00348
1413.27807,0.00345
1411.21790,0.00369
1409.15773,0.00385
1407.09756,0.00374
1405.03738,0.00358
1402.97721,0.00354
1400.91704,0.00361
1398.85687,0.00376
1396.79670,0.00382
1394.73652,0.00359
1392.67635,0.00328
1390.61618,0.00322
1388.55601,0.00325
1386.49583,0.00317
1384.43566,0.00305
1382.37549,0.00298
1380.31532,0.00293
1378.25515,0.00289
1376.19497,0.00288
1374.13480,0.00284
1372.07463,0.00276
1370.01446,0.00269
1367.95429,0.00266
1365.89411,0.00275
1363.83394,0.00292
1361.77377,0.00285
1359.71360,0.00250
1357.65343,0.00217
1355.59325,0.00206
1353.53308,0.00208
1351.47291,0.00203
1349.41274,0.00190
1347.35256,0.00183
1345.29239,0.00181
1343.23222,0.00182
1341.17205,0.00195
1339.11188,0.00211
1337.05170,0.00208
1334.99153,0.00199
1332.93136,0.00201
1330.87119,0.00203
1328.81102,0.00194
1326.75084,0.00179
1324.69067,0.00170
1322.63050,0.00167
1320.57033,0.00168
1318.51015,0.00176
1316.44998,0.00188
1314.38981,0.00194
1312.32964,0.00192
1310.26947,0.00191
1308.20929,0.00194
1306.14912,0.00198
1304.08895,0.00197
1302.02878,0.00189
1299.96861,0.00182
1297.90843,0.00188
1295.84826,0.00201
1293.78809,0.00213
1291.72792,0.00227
1289.66775,0.00240
1287.60757,0.00247
1285.54740,0.00237
1283.48723,0.00214
1281.42706,0.00202
1279.36688,0.00204
1277.30671,0.00212
1275.24654,0.00225
1273.18637,0.00238
1271.12620,0.00255
1269.06602,0.00264
1267.00585,0.00245
1264.94568,0.00224
1262.88551,0.00236
1260.82534,0.00263
1258.76516,0.00267
1256.70499,0.00249
1254.64482,0.00241
1252.58465,0.00249
1250.52447,0.00252
1248.46430,0.00242
1246.40413,0.00234
1244.34396,0.00224
1242.28379,0.00197
1240.22361,0.00168
1238.16344,0.00164
1236.10327,0.00181
1234.04310,0.00193
1231.98293,0.00186
1229.92275,0.00170
1227.86258,0.00155
1225.80241,0.00144
1223.74224,0.00143
1221.68207,0.00145
1219.62189,0.00144
1217.56172,0.00132
1215.50155,0.00109
1213.44138,0.00087
1211.38120,0.00080
1209.32103,0.00085
1207.26086,0.00086
1205.20069,0.00078
1203.14052,0.00058
1201.08034,0.00036
1199.02017,0.00028
1196.96000,0.00030
1194.89983,0.00022
1192.83966,0.00003
1190.77948,0.00000
1188.71931,0.00023
1186.65914,0.00051
1184.59897,0.00060
1182.53880,0.00067
1180.47862,0.00088
1178.41845,0.00103
1176.35828,0.00094
1174.29811,0.00075
1172.23793,0.00067
1170.17776,0.00076
1168.11759,0.00102
1166.05742,0.00130
1163.99725,0.00147
1161.93707,0.00166
1159.87690,0.00183
1157.81673,0.00199
1155.75656,0.00227
1153.69639,0.00266
1151.63621,0.00312
1149.57604,0.00352
1147.51587,0.00359
1145.45570,0.00344
1143.39552,0.00361
1141.33535,0.00421
1139.27518,0.00489
1137.21501,0.00554
1135.15484,0.00616
1133.09466,0.00670
1131.03449,0.00722
1128.97432,0.00774
1126.91415,0.00819
1124.85398,0.00868
1122.79380,0.00939
1120.73363,0.01021
1118.67346,0.01103
1116.61329,0.01173
1114.55312,0.01231
1112.49294,0.01304
1110.43277,0.01411
1108.37260,0.01517
1106.31243,0.01602
1104.25225,0.01702
1102.19208,0.01811
1100.13191,0.01883
1098.07174,0.01923
1096.01157,0.01969
1093.95139,0.02027
1091.89122,0.02081
1089.83105,0.02137
1087.77088,0.02188
1085.71071,0.02236
1083.65053,0.02290
1081.59036,0.02349
1079.53019,0.02422
1077.47002,0.02506
1075.40985,0.02573
1073.34967,0.02593
1071.28950,0.02580
1069.22933,0.02588
1067.16916,0.02624
1065.10898,0.02634
1063.04881,0.02600
1060.98864,0.02563
1058.92847,0.02553
1056.86830,0.02532
1054.80812,0.02458
1052.74795,0.02369
1050.68778,0.02296
1048.62761,0.02209
1046.56744,0.02103
1044.50726,0.01996
1042.44709,0.01888
1040.38692,0.01783
1038.32675,0.01695
1036.26657,0.01622
1034.20640,0.01539
1032.14623,0.01434
1030.08606,0.01327
1028.02589,0.01253
1025.96571,0.01205
1023.90554,0.01146
1021.84537,0.01078
1019.78520,0.01037
1017.72503,0.01028
1015.66485,0.01022
1013.60468,0.01003
1011.54451,0.00969
1009.48434,0.00946
1007.42417,0.00964
1005.36399,0.01018
1003.30382,0.01082
1001.24365,0.01146
999.18348,0.01199
997.12330,0.01224
995.06313,0.01264
993.00296,0.01363
990.94279,0.01458
988.88262,0.01507
986.82244,0.01543
984.76227,0.01555
982.70210,0.01536
980.64193,0.01526
978.58176,0.01513
976.52158,0.01461
974.46141,0.01382
972.40124,0.01307
970.34107,0.01249
968.28089,0.01166
966.22072,0.01062
964.16055,0.00989
962.10038,0.00938
960.04021,0.00869
957.98003,0.00795
955.91986,0.00745
953.85969,0.00692
951.79952,0.00632
949.73935,0.00599
947.67917,0.00580
945.61900,0.00533
943.55883,0.00461
941.49866,0.00384
939.43849,0.00326
937.37831,0.00301
935.31814,0.00275
933.25797,0.00234
931.19780,0.00211
929.13762,0.00203
927.07745,0.00191
925.01728,0.00196
922.95711,0.00213
920.89694,0.00203
918.83676,0.00176
916.77659,0.00168
914.71642,0.00173
912.65625,0.00163
910.59608,0.00135
908.53590,0.00120
906.47573,0.00139
904.41556,0.00178
902.35539,0.00215
900.29522,0.00227
898.23504,0.00212
896.17487,0.00184
894.11470,0.00173
892.05453,0.00201
889.99435,0.00250
887.93418,0.00311
885.87401,0.00375
883.81384,0.00414
881.75367,0.00441
879.69349,0.00474
877.63332,0.00501
875.57315,0.00519
873.51298,0.00531
871.45281,0.00551
869.39263,0.00590
867.33246,0.00606
865.27229,0.00580
863.21212,0.00569
861.15194,0.00617
859.09177,0.00681
857.03160,0.00693
854.97143,0.00673
852.91126,0.00672
850.85108,0.00682
848.79091,0.00665
846.73074,0.00613
844.67057,0.00566
842.61040,0.00560
840.55022,0.00572
838.49005,0.00580
836.42988,0.00586
834.36971,0.00549
832.30954,0.00488
830.24936,0.00493
828.18919,0.00519
826.12902,0.00488
824.06885,0.00467
822.00867,0.00489
819.94850,0.00477
817.88833,0.00418
815.82816,0.00372
813.76799,0.00349
811.70781,0.00333
809.64764,0.00344
807.58747,0.00373
805.52730,0.00420
803.46713,0.00470
801.40695,0.00475
799.34678,0.00418
797.28661,0.00331
795.22644,0.00259
793.16627,0.00244
791.10609,0.00273
789.04592,0.00281
786.98575,0.00277
784.92558,0.00306
782.86540,0.00340
780.80523,0.00361
778.74506,0.00396
776.68489,0.00420
774.62472,0.00395
772.56454,0.00362
770.50437,0.00331
768.44420,0.00325
766.38403,0.00370
764.32386,0.00394
762.26368,0.00388
760.20351,0.00386
758.14334,0.00382
756.08317,0.00364
754.02299,0.00361
751.96282,0.00410
749.90265,0.00463
747.84248,0.00483
745.78231,0.00480
743.72213,0.00462
741.66196,0.00472
739.60179,0.00503
737.54162,0.00502
735.48145,0.00467
733.42127,0.00427
731.36110,0.00411
729.30093,0.00417
727.24076,0.00411
725.18059,0.00419
723.12041,0.00455
721.06024,0.00546
719.00007,0.00550
716.93990,0.00511
714.87972,0.00459
712.81955,0.00417
710.75938,0.00413
708.69921,0.00424
706.63904,0.00448
704.57886,0.00498
702.51869,0.00518
700.45852,0.00449
698.39835,0.00399
696.33818,0.00491
694.27800,0.00625
692.21783,0.00656
690.15766,0.00589
688.09749,0.00472
686.03731,0.00337
683.97714,0.00259
681.91697,0.00266
679.85680,0.00297
677.79663,0.00331
675.73645,0.00357
673.67628,0.00237
671.61611,0.00000
669.55594,0.00587
667.49577,0.01228
665.43559,0.00186
663.37542,0.00370
661.31525,0.00671
659.25508,0.00566
657.19491,0.00333
655.13473,0.00226
653.07456,0.00259
651.01439,0.00304
648.95422,0.00299
646.89404,0.00264
644.83387,0.00301
642.77370,0.00353
640.71353,0.00421
638.65336,0.00485
636.59318,0.00446
634.53301,0.00314
632.47284,0.00200
630.41267,0.00143
628.35250,0.00128
626.29232,0.00107
624.23215,0.00036
622.17198,-0.00056
620.11181,-0.00082
618.05164,-0.00072
615.99146,-0.00038
613.93129,0.00027
611.87112,0.00058
609.81095,0.00117
607.75077,0.00107
605.69060,-0.00034
603.63043,-0.00017
601.57026,0.00068
599.51009,0.00000
