3996.73391,0.00053
3994.67373,0.00066
3992.61356,0.00063
3990.55339,0.00036
3988.49322,0.00001
3986.43305,0.00000
3984.37287,0.00033
3982.31270,0.00047
3980.25253,0.00028
3978.19236,0.00025
3976.13219,0.00043
3974.07201,0.00052
3972.01184,0.00053
3969.95167,0.00074
3967.89150,0.00100
3965.83133,0.00090
3963.77115,0.00045
3961.71098,0.00017
3959.65081,0.00042
3957.59064,0.00092
3955.53046,0.00114
3953.47029,0.00105
3951.41012,0.00086
3949.34995,0.00064
3947.28978,0.00053
3945.22960,0.00057
3943.16943,0.00070
3941.10926,0.00091
3939.04909,0.00101
3936.98892,0.00077
3934.92874,0.00036
3932.86857,0.00025
3930.80840,0.00043
3928.74823,0.00042
3926.68805,0.00029
3924.62788,0.00047
3922.56771,0.00090
3920.50754,0.00096
3918.44737,0.00063
3916.38719,0.00043
3914.32702,0.00051
3912.26685,0.00066
3910.20668,0.00078
3908.14651,0.00068
3906.08633,0.00038
3904.02616,0.00021
3901.96599,0.00033
3899.90582,0.00072
3897.84565,0.00112
3895.78547,0.00125
3893.72530,0.00119
3891.66513,0.00108
3889.60496,0.00085
3887.54478,0.00062
3885.48461,0.00077
3883.42444,0.00102
3881.36427,0.00110
3879.30410,0.00121
3877.24392,0.00112
3875.18375,0.00086
3873.12358,0.00075
3871.06341,0.00082
3869.00324,0.00100
3866.94306,0.00106
3864.88289,0.00097
3862.82272,0.00098
3860.76255,0.00115
3858.70237,0.00113
3856.64220,0.00076
3854.58203,0.00057
3852.52186,0.00106
3850.46169,0.00156
3848.40151,0.00151
3846.34134,0.00122
3844.28117,0.00105
3842.22100,0.00101
3840.16083,0.00110
3838.10065,0.00146
3836.04048,0.00174
3833.98031,0.00167
3831.92014,0.00155
3829.85997,0.00157
3827.79979,0.00163
3825.73962,0.00147
3823.67945,0.00099
3821.61928,0.00070
3819.55910,0.00084
3817.49893,0.00116
3815.43876,0.00156
3813.37859,0.00169
3811.31842,0.00135
3809.25824,0.00083
3807.19807,0.00045
3805.13790,0.00027
3803.07773,0.00044
3801.01756,0.00100
3798.95738,0.00123
3796.89721,0.00105
3794.83704,0.00110
3792.77687,0.00128
3790.71670,0.00116
3788.65652,0.00081
3786.59635,0.00059
3784.53618,0.00077
3782.47601,0.00122
3780.41583,0.00173
3778.35566,0.00210
3776.29549,0.00209
3774.23532,0.00166
3772.17515,0.00111
3770.11497,0.00086
3768.05480,0.00105
3765.99463,0.00136
3763.93446,0.00147
3761.87429,0.00132
3759.81411,0.00116
3757.75394,0.00112
3755.69377,0.00088
3753.63360,0.00041
3751.57342,0.00030
3749.51325,0.00077
3747.45308,0.00095
3745.39291,0.00095
3743.33274,0.00170
3741.27256,0.00240
3739.21239,0.00229
3737.15222,0.00193
3735.09205,0.00178
3733.03188,0.00192
3730.97170,0.00232
3728.91153,0.00249
3726.85136,0.00215
3724.79119,0.00152
3722.73102,0.00123
3720.67084,0.00150
3718.61067,0.00188
3716.55050,0.00219
3714.49033,0.00256
3712.43015,0.00321
3710.36998,0.00379
3708.30981,0.00332
3706.24964,0.00225
3704.18947,0.00154
3702.12929,0.00140
3700.06912,0.00155
3698.00895,0.00182
3695.94878,0.00204
3693.88861,0.00179
3691.82843,0.00129
3689.76826,0.00161
3687.70809,0.00270
3685.64792,0.00318
3683.58775,0.00287
3681.52757,0.00224
3679.46740,0.00149
3677.40723,0.00097
3675.34706,0.00115
3673.28688,0.00150
3671.22671,0.00161
3669.16654,0.00189
3667.10637,0.00218
3665.04620,0.00233
3662.98602,0.00251
3660.92585,0.00271
3658.86568,0.00293
3656.80551,0.00315
3654.74534,0.00329
3652.68516,0.00339
3650.62499,0.00375
3648.56482,0.00425
3646.50465,0.00407
3644.44447,0.00333
3642.38430,0.00287
3640.32413,0.00286
3638.26396,0.00291
3636.20379,0.00280
3634.14361,0.00280
3632.08344,0.00317
3630.02327,0.00364
3627.96310,0.00380
3625.90293,0.00355
3623.84275,0.00303
3621.78258,0.00255
3619.72241,0.00271
3617.66224,0.00353
3615.60207,0.00419
3613.54189,0.00436
3611.48172,0.00418
3609.42155,0.00403
3607.36138,0.00418
3605.30120,0.00429
3603.24103,0.00428
3601.18086,0.00462
3599.12069,0.00531
3597.06052,0.00576
3595.00034,0.00580
3592.94017,0.00575
3590.88000,0.00580
3588.81983,0.00605
3586.75966,0.00640
3584.69948,0.00646
3582.63931,0.00637
3580.57914,0.00633
3578.51897,0.00628
3576.45879,0.00635
3574.39862,0.00657
3572.33845,0.00663
3570.27828,0.00639
3568.21811,0.00612
3566.15793,0.00614
3564.09776,0.00644
3562.03759,0.00687
3559.97742,0.00740
3557.91725,0.00771
3555.85707,0.00770
3553.79690,0.00765
3551.73673,0.00754
3549.67656,0.00736
3547.61639,0.00750
3545.55621,0.00810
3543.49604,0.00858
3541.43587,0.00854
3539.37570,0.00841
3537.31552,0.00857
3535.25535,0.00876
3533.19518,0.00876
3531.13501,0.00875
3529.07484,0.00909
3527.01466,0.00969
3524.95449,0.00999
3522.89432,0.00987
3520.83415,0.00956
3518.77398,0.00928
3516.71380,0.00930
3514.65363,0.00959
3512.59346,0.00982
3510.53329,0.00995
3508.47312,0.01014
3506.41294,0.01034
3504.35277,0.01054
3502.29260,0.01074
3500.23243,0.01099
3498.17225,0.01129
3496.11208,0.01145
3494.05191,0.01147
3491.99174,0.01156
3489.93157,0.01186
3487.87139,0.01212
3485.81122,0.01206
3483.75105,0.01184
3481.69088,0.01180
3479.63071,0.01197
3477.57053,0.01218
3475.51036,0.01225
3473.45019,0.01212
3471.39002,0.01203
3469.32984,0.01214
3467.26967,0.01228
3465.20950,0.01247
3463.14933,0.01265
3461.08916,0.01255
3459.02898,0.01243
3456.96881,0.01264
3454.90864,0.01288
3452.84847,0.01289
3450.78830,0.01287
3448.72812,0.01301
3446.66795,0.01318
3444.60778,0.01316
3442.54761,0.01320
3440.48744,0.01354
3438.42726,0.01386
3436.36709,0.01388
3434.30692,0.01367
3432.24675,0.01343
3430.18657,0.01339
3428.12640,0.01362
3426.06623,0.01406
3424.00606,0.01440
3421.94589,0.01438
3419.88571,0.01408
3417.82554,0.01390
3415.76537,0.01391
3413.70520,0.01397
3411.64503,0.01401
3409.58485,0.01407
3407.52468,0.01413
3405.46451,0.01410
3403.40434,0.01417
3401.34416,0.01445
3399.28399,0.01458
3397.22382,0.01463
3395.16365,0.01484
3393.10348,0.01515
3391.04330,0.01534
3388.98313,0.01562
3386.92296,0.01582
3384.86279,0.01557
3382.80262,0.01527
3380.74244,0.01524
3378.68227,0.01541
3376.62210,0.01553
3374.56193,0.01537
3372.50176,0.01512
3370.44158,0.01509
3368.38141,0.01520
3366.32124,0.01525
3364.26107,0.01533
3362.20089,0.01556
3360.14072,0.01578
3358.08055,0.01581
3356.02038,0.01574
3353.96021,0.01569
3351.90003,0.01573
3349.83986,0.01590
3347.77969,0.01599
3345.71952,0.01595
3343.65935,0.01587
3341.59917,0.01580
3339.53900,0.01584
3337.47883,0.01592
3335.41866,0.01591
3333.35849,0.01587
3331.29831,0.01595
3329.23814,0.01620
3327.17797,0.01636
3325.11780,0.01634
3323.05762,0.01632
3320.99745,0.01636
3318.93728,0.01642
3316.87711,0.01640
3314.81694,0.01638
3312.75676,0.01633
3310.69659,0.01632
3308.63642,0.01645
3306.57625,0.01638
3304.51608,0.01619
3302.45590,0.01611
3300.39573,0.01600
3298.33556,0.01592
3296.27539,0.01612
3294.21521,0.01644
3292.15504,0.01672
3290.09487,0.01690
3288.03470,0.01680
3285.97453,0.01673
3283.91435,0.01694
3281.85418,0.01716
3279.79401,0.01733
3277.73384,0.01750
3275.67367,0.01734
3273.61349,0.01685
3271.55332,0.01651
3269.49315,0.01643
3267.43298,0.01641
3265.37281,0.01663
3263.31263,0.01697
3261.25246,0.01707
3259.19229,0.01696
3257.13212,0.01662
3255.07194,0.01620
3253.01177,0.01622
3250.95160,0.01649
3248.89143,0.01649
3246.83126,0.01649
3244.77108,0.01675
3242.71091,0.01702
3240.65074,0.01717
3238.59057,0.01703
3236.53040,0.01660
3234.47022,0.01623
3232.41005,0.01622
3230.34988,0.01659
3228.28971,0.01707
3226.22954,0.01724
3224.16936,0.01709
3222.10919,0.01692
3220.04902,0.01685
3217.98885,0.01689
3215.92867,0.01685
3213.86850,0.01662
3211.80833,0.01632
3209.74816,0.01621
3207.68799,0.01639
3205.62781,0.01667
3203.56764,0.01684
3201.50747,0.01686
3199.44730,0.01677
3197.38713,0.01674
3195.32695,0.01689
3193.26678,0.01704
3191.20661,0.01712
3189.14644,0.01702
3187.08626,0.01674
3185.02609,0.01655
3182.96592,0.01653
3180.90575,0.01672
3178.84558,0.01708
3176.78540,0.01728
3174.72523,0.01723
3172.66506,0.01696
3170.60489,0.01672
3168.54472,0.01667
3166.48454,0.01648
3164.42437,0.01610
3162.36420,0.01600
3160.30403,0.01618
3158.24386,0.01629
3156.18368,0.01625
3154.12351,0.01614
3152.06334,0.01597
3150.00317,0.01573
3147.94299,0.01554
3145.88282,0.01548
3143.82265,0.01551
3141.76248,0.01564
3139.70231,0.01577
3137.64213,0.01583
3135.58196,0.01587
3133.52179,0.01581
3131.46162,0.01569
3129.40145,0.01573
3127.34127,0.01588
3125.28110,0.01596
3123.22093,0.01600
3121.16076,0.01596
3119.10058,0.01589
3117.04041,0.01594
3114.98024,0.01599
3112.92007,0.01590
3110.85990,0.01577
3108.79972,0.01571
3106.73955,0.01569
3104.67938,0.01567
3102.61921,0.01571
3100.55904,0.01570
3098.49886,0.01555
3096.43869,0.01537
3094.37852,0.01536
3092.31835,0.01551
3090.25818,0.01559
3088.19800,0.01544
3086.13783,0.01510
3084.07766,0.01492
3082.01749,0.01510
3079.95731,0.01533
3077.89714,0.01527
3075.83697,0.01495
3073.77680,0.01458
3071.71663,0.01439
3069.65645,0.01433
3067.59628,0.01427
3065.53611,0.01422
3063.47594,0.01429
3061.41577,0.01430
3059.35559,0.01411
3057.29542,0.01396
3055.23525,0.01406
3053.17508,0.01413
3051.11491,0.01407
3049.05473,0.01409
3046.99456,0.01422
3044.93439,0.01426
3042.87422,0.01399
3040.81404,0.01362
3038.75387,0.01348
3036.69370,0.01349
3034.63353,0.01345
3032.57336,0.01336
3030.51318,0.01330
3028.45301,0.01332
3026.39284,0.01329
3024.33267,0.01313
3022.27250,0.01300
3020.21232,0.01299
3018.15215,0.01308
3016.09198,0.01320
3014.03181,0.01330
3011.97163,0.01331
3009.91146,0.01325
3007.85129,0.01313
3005.79112,0.01298
3003.73095,0.01290
3001.67077,0.01288
2999.61060,0.01280
2997.55043,0.01254
2995.49026,0.01238
2993.43009,0.01250
2991.36991,0.01257
2989.30974,0.01254
2987.24957,0.01255
2985.18940,0.01247
2983.12923,0.01226
2981.06905,0.01211
2979.00888,0.01205
2976.94871,0.01217
2974.88854,0.01246
2972.82836,0.01250
2970.76819,0.01224
2968.70802,0.01215
2966.64785,0.01240
2964.58768,0.01269
2962.52750,0.01264
2960.46733,0.01250
2958.40716,0.01253
2956.34699,0.01245
2954.28682,0.01218
2952.22664,0.01212
2950.16647,0.01238
2948.10630,0.01258
2946.04613,0.01241
2943.98596,0.01205
2941.92578,0.01190
2939.86561,0.01191
2937.80544,0.01183
2935.74527,0.01176
2933.68509,0.01184
2931.62492,0.01198
2929.56475,0.01211
2927.50458,0.01217
2925.44441,0.01219
2923.38423,0.01218
2921.32406,0.01204
2919.26389,0.01194
2917.20372,0.01195
2915.14355,0.01195
2913.08337,0.01197
2911.02320,0.01201
2908.96303,0.01198
2906.90286,0.01196
2904.84268,0.01212
2902.78251,0.01214
2900.72234,0.01181
2898.66217,0.01146
2896.60200,0.01125
2894.54182,0.01123
2892.48165,0.01138
2890.42148,0.01150
2888.36131,0.01152
2886.30114,0.01142
2884.24096,0.01115
2882.18079,0.01094
2880.12062,0.01097
2878.06045,0.01108
2876.00028,0.01111
2873.94010,0.01099
2871.87993,0.01085
2869.81976,0.01080
2867.75959,0.01080
2865.69941,0.01089
2863.63924,0.01105
2861.57907,0.01106
2859.51890,0.01079
2857.45873,0.01060
2855.39855,0.01077
2853.33838,0.01093
2851.27821,0.01078
2849.21804,0.01058
2847.15787,0.01044
2845.09769,0.01022
2843.03752,0.00998
2840.97735,0.00992
2838.91718,0.01004
2836.85700,0.01017
2834.79683,0.01026
2832.73666,0.01019
2830.67649,0.01002
2828.61632,0.00997
2826.55614,0.01002
2824.49597,0.01009
2822.43580,0.01016
2820.37563,0.00997
2818.31546,0.00956
2816.25528,0.00945
2814.19511,0.00957
2812.13494,0.00955
2810.07477,0.00943
2808.01460,0.00932
2805.95442,0.00934
2803.89425,0.00951
2801.83408,0.00959
2799.77391,0.00949
2797.71373,0.00934
2795.65356,0.00920
2793.59339,0.00915
2791.53322,0.00910
2789.47305,0.00895
2787.41287,0.00882
2785.35270,0.00887
2783.29253,0.00883
2781.23236,0.00860
2779.17219,0.00857
2777.11201,0.00872
2775.05184,0.00876
2772.99167,0.00867
2770.93150,0.00854
2768.87133,0.00849
2766.81115,0.00851
2764.75098,0.00851
2762.69081,0.00845
2760.63064,0.00848
2758.57046,0.00858
2756.51029,0.00866
2754.45012,0.00884
2752.38995,0.00901
2750.32978,0.00890
2748.26960,0.00863
2746.20943,0.00842
2744.14926,0.00831
2742.08909,0.00824
2740.02892,0.00818
2737.96874,0.00811
2735.90857,0.00810
2733.84840,0.00823
2731.78823,0.00825
2729.72805,0.00796
2727.66788,0.00766
2725.60771,0.00760
2723.54754,0.00771
2721.48737,0.00774
2719.42719,0.00763
2717.36702,0.00773
2715.30685,0.00799
2713.24668,0.00797
2711.18651,0.00774
2709.12633,0.00760
2707.06616,0.00765
2705.00599,0.00776
2702.94582,0.00769
2700.88565,0.00748
2698.82547,0.00732
2696.76530,0.00738
2694.70513,0.00755
2692.64496,0.00757
2690.58478,0.00746
2688.52461,0.00737
2686.46444,0.00736
2684.40427,0.00746
2682.34410,0.00745
2680.28392,0.00726
2678.22375,0.00727
2676.16358,0.00744
2674.10341,0.00744
2672.04324,0.00739
2669.98306,0.00731
2667.92289,0.00702
2665.86272,0.00677
2663.80255,0.00684
2661.74238,0.00694
2659.68220,0.00705
2657.62203,0.00730
2655.56186,0.00741
2653.50169,0.00722
2651.44151,0.00689
2649.38134,0.00682
2647.32117,0.00701
2645.26100,0.00701
2643.20083,0.00680
2641.14065,0.00672
2639.08048,0.00686
2637.02031,0.00703
2634.96014,0.00708
2632.89997,0.00714
2630.83979,0.00712
2628.77962,0.00693
2626.71945,0.00670
2624.65928,0.00636
2622.59910,0.00604
2620.53893,0.00604
2618.47876,0.00619
2616.41859,0.00614
2614.35842,0.00588
2612.29824,0.00573
2610.23807,0.00588
2608.17790,0.00615
2606.11773,0.00626
2604.05756,0.00605
2601.99738,0.00585
2599.93721,0.00594
2597.87704,0.00609
2595.81687,0.00597
2593.75670,0.00570
2591.69652,0.00562
2589.63635,0.00583
2587.57618,0.00601
2585.51601,0.00608
2583.45583,0.00626
2581.39566,0.00628
2579.33549,0.00610
2577.27532,0.00612
2575.21515,0.00605
2573.15497,0.00587
2571.09480,0.00590
2569.03463,0.00600
2566.97446,0.00603
2564.91429,0.00593
2562.85411,0.00575
2560.79394,0.00578
2558.73377,0.00587
2556.67360,0.00577
2554.61342,0.00565
2552.55325,0.00571
2550.49308,0.00566
2548.43291,0.00540
2546.37274,0.00557
2544.31256,0.00602
2542.25239,0.00618
2540.19222,0.00616
2538.13205,0.00602
2536.07188,0.00563
2534.01170,0.00529
2531.95153,0.00530
2529.89136,0.00547
2527.83119,0.00566
2525.77102,0.00584
2523.71084,0.00593
2521.65067,0.00592
2519.59050,0.00582
2517.53033,0.00586
2515.47015,0.00604
2513.40998,0.00630
2511.34981,0.00647
2509.28964,0.00618
2507.22947,0.00568
2505.16929,0.00544
2503.10912,0.00536
2501.04895,0.00513
2498.98878,0.00498
2496.92861,0.00530
2494.86843,0.00581
2492.80826,0.00608
2490.74809,0.00614
2488.68792,0.00620
2486.62775,0.00623
2484.56757,0.00606
2482.50740,0.00576
2480.44723,0.00563
2478.38706,0.00592
2476.32688,0.00641
2474.26671,0.00660
2472.20654,0.00624
2470.14637,0.00579
2468.08620,0.00574
2466.02602,0.00595
2463.96585,0.00599
2461.90568,0.00590
2459.84551,0.00606
2457.78534,0.00632
2455.72516,0.00653
2453.66499,0.00677
2451.60482,0.00684
2449.54465,0.00660
2447.48447,0.00631
2445.42430,0.00629
2443.36413,0.00656
2441.30396,0.00675
2439.24379,0.00673
2437.18361,0.00671
2435.12344,0.00661
2433.06327,0.00632
2431.00310,0.00601
2428.94293,0.00577
2426.88275,0.00576
2424.82258,0.00603
2422.76241,0.00625
2420.70224,0.00613
2418.64207,0.00591
2416.58189,0.00601
2414.52172,0.00643
2412.46155,0.00681
2410.40138,0.00672
2408.34120,0.00639
2406.28103,0.00644
2404.22086,0.00662
2402.16069,0.00635
2400.10052,0.00595
2398.04034,0.00578
2395.98017,0.00576
2393.92000,0.00569
2391.85983,0.00576
2389.79966,0.00600
2387.73948,0.00620
2385.67931,0.00631
2383.61914,0.00633
2381.55897,0.00636
2379.49880,0.00660
2377.43862,0.00694
2375.37845,0.00692
2373.31828,0.00646
2371.25811,0.00595
2369.19793,0.00618
2367.13776,0.00732
2365.07759,0.00797
2363.01742,0.00733
2360.95725,0.00664
2358.89707,0.00535
2356.83690,0.00491
2354.77673,0.00600
2352.71656,0.00715
2350.65639,0.00785
2348.59621,0.00758
2346.53604,0.00606
2344.47587,0.00668
2342.41570,0.00820
2340.35552,0.00887
2338.29535,0.00873
2336.23518,0.00789
2334.17501,0.00708
2332.11484,0.00708
2330.05466,0.00771
2327.99449,0.00804
2325.93432,0.00844
2323.87415,0.00851
2321.81398,0.00826
2319.75380,0.00770
2317.69363,0.00771
2315.63346,0.00777
2313.57329,0.00752
2311.51312,0.00737
2309.45294,0.00738
2307.39277,0.00728
2305.33260,0.00698
2303.27243,0.00661
2301.21225,0.00639
2299.15208,0.00637
2297.09191,0.00635
2295.03174,0.00639
2292.97157,0.00657
2290.91139,0.00678
2288.85122,0.00691
2286.79105,0.00683
2284.73088,0.00665
2282.67071,0.00648
2280.61053,0.00648
2278.55036,0.00663
2276.49019,0.00653
2274.43002,0.00604
2272.36984,0.00560
2270.30967,0.00541
2268.24950,0.00531
2266.18933,0.00545
2264.12916,0.00574
2262.06898,0.00569
2260.00881,0.00538
2257.94864,0.00564
2255.88847,0.00639
2253.82830,0.00621
2251.76812,0.00474
2249.70795,0.00366
2247.64778,0.00436
2245.58761,0.00588
2243.52744,0.00658
2241.46726,0.00608
2239.40709,0.00548
2237.34692,0.00535
2235.28675,0.00531
2233.22657,0.00552
2231.16640,0.00611
2229.10623,0.00631
2227.04606,0.00577
2224.98589,0.00511
2222.92571,0.00503
2220.86554,0.00552
2218.80537,0.00578
2216.74520,0.00576
2214.68503,0.00553
2212.62485,0.00479
2210.56468,0.00431
2208.50451,0.00480
2206.44434,0.00548
2204.38417,0.00522
2202.32399,0.00473
2200.26382,0.00479
2198.20365,0.00483
2196.14348,0.00487
2194.08330,0.00533
2192.02313,0.00581
2189.96296,0.00534
2187.90279,0.00442
2185.84262,0.00425
2183.78244,0.00416
2181.72227,0.00310
2179.66210,0.00194
2177.60193,0.00238
2175.54176,0.00381
2173.48158,0.00384
2171.42141,0.00281
2169.36124,0.00312
2167.30107,0.00401
2165.24089,0.00381
2163.18072,0.00396
2161.12055,0.00457
2159.06038,0.00365
2157.00021,0.00261
2154.94003,0.00312
2152.87986,0.00383
2150.81969,0.00366
2148.75952,0.00354
2146.69935,0.00402
2144.63917,0.00413
2142.57900,0.00384
2140.51883,0.00369
2138.45866,0.00358
2136.39849,0.00335
2134.33831,0.00267
2132.27814,0.00208
2130.21797,0.00250
2128.15780,0.00316
2126.09762,0.00340
2124.03745,0.00385
2121.97728,0.00454
2119.91711,0.00493
2117.85694,0.00512
2115.79676,0.00504
2113.73659,0.00465
2111.67642,0.00459
2109.61625,0.00479
2107.55608,0.00461
2105.49590,0.00432
2103.43573,0.00456
2101.37556,0.00451
2099.31539,0.00348
2097.25521,0.00289
2095.19504,0.00374
2093.13487,0.00467
2091.07470,0.00483
2089.01453,0.00486
2086.95435,0.00481
2084.89418,0.00446
2082.83401,0.00413
2080.77384,0.00397
2078.71367,0.00398
2076.65349,0.00409
2074.59332,0.00429
2072.53315,0.00477
2070.47298,0.00520
2068.41281,0.00497
2066.35263,0.00409
2064.29246,0.00317
2062.23229,0.00305
2060.17212,0.00353
2058.11194,0.00343
2056.05177,0.00294
2053.99160,0.00313
2051.93143,0.00379
2049.87126,0.00403
2047.81108,0.00379
2045.75091,0.00352
2043.69074,0.00321
2041.63057,0.00246
2039.57040,0.00143
2037.51022,0.00136
2035.45005,0.00229
2033.38988,0.00280
2031.32971,0.00269
2029.26954,0.00276
2027.20936,0.00323
2025.14919,0.00335
2023.08902,0.00324
2021.02885,0.00326
2018.96867,0.00285
2016.90850,0.00264
2014.84833,0.00323
2012.78816,0.00384
2010.72799,0.00365
2008.66781,0.00328
2006.60764,0.00379
2004.54747,0.00449
2002.48730,0.00457
2000.42713,0.00447
1998.36695,0.00470
1996.30678,0.00485
1994.24661,0.00462
1992.18644,0.00471
1990.12626,0.00531
1988.06609,0.00567
1986.00592,0.00536
1983.94575,0.00462
1981.88558,0.00417
1979.82540,0.00387
1977.76523,0.00313
1975.70506,0.00265
1973.64489,0.00284
1971.58472,0.00314
1969.52454,0.00276
1967.46437,0.00199
1965.40420,0.00204
1963.34403,0.00231
1961.28386,0.00229
1959.22368,0.00311
1957.16351,0.00427
1955.10334,0.00418
1953.04317,0.00340
1950.98299,0.00312
1948.92282,0.00305
1946.86265,0.00277
1944.80248,0.00291
1942.74231,0.00338
1940.68213,0.00340
1938.62196,0.00341
1936.56179,0.00376
1934.50162,0.00403
1932.44145,0.00386
1930.38127,0.00333
1928.32110,0.00299
1926.26093,0.00301
1924.20076,0.00280
1922.14059,0.00222
1920.08041,0.00214
1918.02024,0.00298
1915.96007,0.00380
1913.89990,0.00397
1911.83972,0.00371
1909.77955,0.00328
1907.71938,0.00319
1905.65921,0.00365
1903.59904,0.00395
1901.53886,0.00379
1899.47869,0.00371
1897.41852,0.00388
1895.35835,0.00393
1893.29818,0.00373
1891.23800,0.00355
1889.17783,0.00370
1887.11766,0.00399
1885.05749,0.00394
1882.99731,0.00369
1880.93714,0.00364
1878.87697,0.00382
1876.81680,0.00399
1874.75663,0.00391
1872.69645,0.00363
1870.63628,0.00351
1868.57611,0.00366
1866.51594,0.00373
1864.45577,0.00363
1862.39559,0.00354
1860.33542,0.00329
1858.27525,0.00300
1856.21508,0.00307
1854.15491,0.00333
1852.09473,0.00349
1850.03456,0.00352
1847.97439,0.00342
1845.91422,0.00343
1843.85404,0.00373
1841.79387,0.00391
1839.73370,0.00378
1837.67353,0.00362
1835.61336,0.00364
1833.55318,0.00390
1831.49301,0.00432
1829.43284,0.00454
1827.37267,0.00423
1825.31250,0.00381
1823.25232,0.00363
1821.19215,0.00342
1819.13198,0.00321
1817.07181,0.00341
1815.01163,0.00389
1812.95146,0.00420
1810.89129,0.00426
1808.83112,0.00418
1806.77095,0.00407
1804.71077,0.00396
1802.65060,0.00380
1800.59043,0.00369
1798.53026,0.00366
1796.47009,0.00375
1794.40991,0.00397
1792.34974,0.00417
1790.28957,0.00424
1788.22940,0.00416
1786.16923,0.00403
1784.10905,0.00403
1782.04888,0.00415
1779.98871,0.00411
1777.92854,0.00399
1775.86836,0.00405
1773.80819,0.00422
1771.74802,0.00427
1769.68785,0.00424
1767.62768,0.00434
1765.56750,0.00445
1763.50733,0.00445
1761.44716,0.00444
1759.38699,0.00444
1757.32682,0.00444
1755.26664,0.00445
1753.20647,0.00443
1751.14630,0.00447
1749.08613,0.00471
1747.02596,0.00501
1744.96578,0.00523
1742.90561,0.00527
1740.84544,0.00508
1738.78527,0.00486
1736.72509,0.00475
1734.66492,0.00475
1732.60475,0.00498
1730.54458,0.00524
1728.48441,0.00526
1726.42423,0.00523
1724.36406,0.00532
1722.30389,0.00535
1720.24372,0.00529
1718.18355,0.00538
1716.12337,0.00554
1714.06320,0.00552
1712.00303,0.00536
1709.94286,0.00525
1707.88268,0.00523
1705.82251,0.00525
1703.76234,0.00531
1701.70217,0.00544
1699.64200,0.00557
1697.58182,0.00577
1695.52165,0.00628
1693.46148,0.00680
1691.40131,0.00706
1689.34114,0.00721
1687.28096,0.00725
1685.22079,0.00725
1683.16062,0.00748
1681.10045,0.00785
1679.04028,0.00813
1676.98010,0.00839
1674.91993,0.00862
1672.85976,0.00876
1670.79959,0.00893
1668.73941,0.00925
1666.67924,0.00954
1664.61907,0.00975
1662.55890,0.00996
1660.49873,0.01007
1658.43855,0.00996
1656.37838,0.00976
1654.31821,0.00983
1652.25804,0.01015
1650.19787,0.01024
1648.13769,0.01013
1646.07752,0.01008
1644.01735,0.00994
1641.95718,0.00961
1639.89701,0.00918
1637.83683,0.00896
1635.77666,0.00924
1633.71649,0.00964
1631.65632,0.00965
1629.59614,0.00942
1627.53597,0.00915
1625.47580,0.00896
1623.41563,0.00896
1621.35546,0.00894
1619.29528,0.00869
1617.23511,0.00851
1615.17494,0.00864
1613.11477,0.00878
1611.05460,0.00878
1608.99442,0.00872
1606.93425,0.00862
1604.87408,0.00849
1602.81391,0.00835
1600.75373,0.00820
1598.69356,0.00807
1596.63339,0.00795
1594.57322,0.00789
1592.51305,0.00791
1590.45287,0.00791
1588.39270,0.00780
1586.33253,0.00765
1584.27236,0.00751
1582.21219,0.00743
1580.15201,0.00733
1578.09184,0.00719
1576.03167,0.00715
1573.97150,0.00708
1571.91133,0.00678
1569.85115,0.00637
1567.79098,0.00606
1565.73081,0.00588
1563.67064,0.00573
1561.61046,0.00558
1559.55029,0.00550
1557.49012,0.00559
1555.42995,0.00573
1553.36978,0.00591
1551.30960,0.00614
1549.24943,0.00617
1547.18926,0.00591
1545.12909,0.00564
1543.06892,0.00557
1541.00874,0.00564
1538.94857,0.00560
1536.88840,0.00538
1534.82823,0.00515
1532.76805,0.00509
1530.70788,0.00506
1528.64771,0.00491
1526.58754,0.00473
1524.52737,0.00460
1522.46719,0.00448
1520.40702,0.00443
1518.34685,0.00442
1516.28668,0.00444
1514.22651,0.00452
1512.16633,0.00449
1510.10616,0.00429
1508.04599,0.00414
1505.98582,0.00420
1503.92565,0.00422
1501.86547,0.00410
1499.80530,0.00398
1497.74513,0.00393
1495.68496,0.00398
1493.62478,0.00402
1491.56461,0.00401
1489.50444,0.00401
1487.44427,0.00405
1485.38410,0.00408
1483.32392,0.00411
1481.26375,0.00408
1479.20358,0.00397
1477.14341,0.00396
1475.08324,0.00412
1473.02306,0.00431
1470.96289,0.00442
1468.90272,0.00450
1466.84255,0.00461
1464.78238,0.00476
1462.72220,0.00485
1460.66203,0.00485
1458.60186,0.00479
1456.54169,0.00467
1454.48151,0.00457
1452.42134,0.00452
1450.36117,0.00455
1448.30100,0.00470
1446.24083,0.00486
1444.18065,0.00493
1442.12048,0.00487
1440.06031,0.00476
1438.00014,0.00470
1435.93997,0.00471
1433.87979,0.00469
1431.81962,0.00472
1429.75945,0.00487
1427.69928,0.00500
1425.63910,0.00496
1423.57893,0.00490
1421.51876,0.00501
1419.45859,0.00520
1417.39842,0.00526
1415.33824,0.00525
1413.27807,0.00527
1411.21790,0.00519
1409.15773,0.00498
1407.09756,0.00486
1405.03738,0.00487
1402.97721,0.00487
1400.91704,0.00477
1398.85687,0.00461
1396.79670,0.00450
1394.73652,0.00446
1392.67635,0.00446
1390.61618,0.00446
1388.55601,0.00456
1386.49583,0.00477
1384.43566,0.00490
1382.37549,0.00484
1380.31532,0.00469
1378.25515,0.00451
1376.19497,0.00437
1374.13480,0.00437
1372.07463,0.00447
1370.01446,0.00455
1367.95429,0.00453
1365.89411,0.00443
1363.83394,0.00433
1361.77377,0.00434
1359.71360,0.00441
1357.65343,0.00444
1355.59325,0.00442
1353.53308,0.00443
1351.47291,0.00452
1349.41274,0.00458
1347.35256,0.00452
1345.29239,0.00436
1343.23222,0.00423
1341.17205,0.00422
1339.11188,0.00429
1337.05170,0.00433
1334.99153,0.00425
1332.93136,0.00416
1330.87119,0.00418
1328.81102,0.00425
1326.75084,0.00419
1324.69067,0.00410
1322.63050,0.00412
1320.57033,0.00422
1318.51015,0.00426
1316.44998,0.00426
1314.38981,0.00428
1312.32964,0.00428
1310.26947,0.00428
1308.20929,0.00427
1306.14912,0.00424
1304.08895,0.00420
1302.02878,0.00421
1299.96861,0.00431
1297.90843,0.00445
1295.84826,0.00459
1293.78809,0.00472
1291.72792,0.00480
1289.66775,0.00474
1287.60757,0.00454
1285.54740,0.00430
1283.48723,0.00424
1281.42706,0.00437
1279.36688,0.00447
1277.30671,0.00457
1275.24654,0.00466
1273.18637,0.00462
1271.12620,0.00461
1269.06602,0.00469
1267.00585,0.00464
1264.94568,0.00443
1262.88551,0.00429
1260.82534,0.00433
1258.76516,0.00437
1256.70499,0.00428
1254.64482,0.00426
1252.58465,0.00441
1250.52447,0.00456
1248.46430,0.00454
1246.40413,0.00445
1244.34396,0.00438
1242.28379,0.00436
1240.22361,0.00434
1238.16344,0.00423
1236.10327,0.00414
1234.04310,0.00410
1231.98293,0.00397
1229.92275,0.00373
1227.86258,0.00358
1225.80241,0.00363
1223.74224,0.00372
1221.68207,0.00372
1219.62189,0.00373
1217.56172,0.00372
1215.50155,0.00357
1213.44138,0.00338
1211.38120,0.00317
1209.32103,0.00292
1207.26086,0.00275
1205.20069,0.00273
1203.14052,0.00276
1201.08034,0.00275
1199.02017,0.00288
1196.96000,0.00313
1194.89983,0.00322
1192.83966,0.00308
1190.77948,0.00291
1188.71931,0.00280
1186.65914,0.00280
1184.59897,0.00301
1182.53880,0.00330
1180.47862,0.00347
1178.41845,0.00350
1176.35828,0.00357
1174.29811,0.00377
1172.23793,0.00393
1170.17776,0.00401
1168.11759,0.00425
1166.05742,0.00455
1163.99725,0.00479
1161.93707,0.00508
1159.87690,0.00537
1157.81673,0.00567
1155.75656,0.00606
1153.69639,0.00649
1151.63621,0.00677
1149.57604,0.00698
1147.51587,0.00737
1145.45570,0.00795
1143.39552,0.00846
1141.33535,0.00883
1139.27518,0.00915
1137.21501,0.00944
1135.15484,0.00995
1133.09466,0.01059
1131.03449,0.01102
1128.97432,0.01139
1126.91415,0.01192
1124.85398,0.01260
1122.79380,0.01328
1120.73363,0.01385
1118.67346,0.01440
1116.61329,0.01493
1114.55312,0.01527
1112.49294,0.01562
1110.43277,0.01611
1108.37260,0.01654
1106.31243,0.01685
1104.25225,0.01731
1102.19208,0.01798
1100.13191,0.01857
1098.07174,0.01885
1096.01157,0.01895
1093.95139,0.01907
1091.89122,0.01931
1089.83105,0.01974
1087.77088,0.02023
1085.71071,0.02062
1083.65053,0.02093
1081.59036,0.02129
1079.53019,0.02165
1077.47002,0.02172
1075.40985,0.02161
1073.34967,0.02177
1071.28950,0.02202
1069.22933,0.02195
1067.16916,0.02177
1065.10898,0.02184
1063.04881,0.02194
1060.98864,0.02179
1058.92847,0.02154
1056.86830,0.02135
1054.80812,0.02103
1052.74795,0.02053
1050.68778,0.02009
1048.62761,0.01952
1046.56744,0.01856
1044.50726,0.01769
1042.44709,0.01726
1040.38692,0.01690
1038.32675,0.01626
1036.26657,0.01543
1034.20640,0.01462
1032.14623,0.01387
1030.08606,0.01321
1028.02589,0.01276
1025.96571,0.01241
1023.90554,0.01212
1021.84537,0.01183
1019.78520,0.01137
1017.72503,0.01108
1015.66485,0.01110
1013.60468,0.01100
1011.54451,0.01073
1009.48434,0.01062
1007.42417,0.01077
1005.36399,0.01116
1003.30382,0.01176
1001.24365,0.01236
999.18348,0.01283
997.12330,0.01321
995.06313,0.01354
993.00296,0.01379
990.94279,0.01402
988.88262,0.01439
986.82244,0.01480
984.76227,0.01511
982.70210,0.01545
980.64193,0.01562
978.58176,0.01541
976.52158,0.01511
974.46141,0.01499
972.40124,0.01503
970.34107,0.01507
968.28089,0.01487
966.22072,0.01437
964.16055,0.01400
962.10038,0.01373
960.04021,0.01314
957.98003,0.01242
955.91986,0.01183
953.85969,0.01142
951.79952,0.01120
949.73935,0.01087
947.67917,0.01035
945.61900,0.00985
943.55883,0.00926
941.49866,0.00867
939.43849,0.00834
937.37831,0.00837
935.31814,0.00843
933.25797,0.00807
931.19780,0.00739
929.13762,0.00695
927.07745,0.00695
925.01728,0.00708
922.95711,0.00705
920.89694,0.00689
918.83676,0.00670
916.77659,0.00648
914.71642,0.00628
912.65625,0.00610
910.59608,0.00586
908.53590,0.00576
906.47573,0.00592
904.41556,0.00601
902.35539,0.00593
900.29522,0.00594
898.23504,0.00634
896.17487,0.00693
894.11470,0.00716
892.05453,0.00702
889.99435,0.00693
887.93418,0.00709
885.87401,0.00738
883.81384,0.00774
881.75367,0.00801
879.69349,0.00815
877.63332,0.00835
875.57315,0.00855
873.51298,0.00889
871.45281,0.00938
869.39263,0.00962
867.33246,0.00971
865.27229,0.00993
863.21212,0.00999
861.15194,0.00975
859.09177,0.00963
857.03160,0.00958
854.97143,0.00948
852.91126,0.00966
850.85108,0.00981
848.79091,0.00944
846.73074,0.00918
844.67057,0.00938
842.61040,0.00964
840.55022,0.00965
838.49005,0.00918
836.42988,0.00860
834.36971,0.00829
832.30954,0.00782
830.24936,0.00725
828.18919,0.00720
826.12902,0.00739
824.06885,0.00731
822.00867,0.00703
819.94850,0.00681
817.88833,0.00655
815.82816,0.00622
813.76799,0.00623
811.70781,0.00666
809.64764,0.00683
807.58747,0.00662
805.52730,0.00654
803.46713,0.00644
801.40695,0.00623
799.34678,0.00604
797.28661,0.00562
795.22644,0.00505
793.16627,0.00483
791.10609,0.00484
789.04592,0.00463
786.98575,0.00469
784.92558,0.00534
782.86540,0.00583
780.80523,0.00573
778.74506,0.00547
776.68489,0.00535
774.62472,0.00541
772.56454,0.00537
770.50437,0.00531
768.44420,0.00530
766.38403,0.00466
764.32386,0.00404
762.26368,0.00433
760.20351,0.00475
758.14334,0.00468
756.08317,0.00458
754.02299,0.00465
751.96282,0.00459
749.90265,0.00434
747.84248,0.00432
745.78231,0.00494
743.72213,0.00554
741.66196,0.00542
739.60179,0.00495
737.54162,0.00478
735.48145,0.00519
733.42127,0.00536
731.36110,0.00478
729.30093,0.00466
727.24076,0.00531
725.18059,0.00554
723.12041,0.00545
721.06024,0.00518
719.00007,0.00513
716.93990,0.00502
714.87972,0.00508
712.81955,0.00520
710.75938,0.00516
708.69921,0.00517
706.63904,0.00521
704.57886,0.00516
702.51869,0.00504
700.45852,0.00522
698.39835,0.00591
696.33818,0.00665
694.27800,0.00697
692.21783,0.00702
690.15766,0.00708
688.09749,0.00680
686.03731,0.00582
683.97714,0.00471
681.91697,0.00437
679.85680,0.00490
677.79663,0.00556
675.73645,0.00594
673.67628,0.00646
671.61611,0.00734
669.55594,0.00662
667.49577,0.00521
665.43559,0.00718
663.37542,0.00631
661.31525,0.00565
659.25508,0.00589
657.19491,0.00615
655.13473,0.00637
653.07456,0.00695
651.01439,0.00754
648.95422,0.00779
646.89404,0.00784
644.83387,0.00731
642.77370,0.00618
640.71353,0.00519
638.65336,0.00525
636.59318,0.00571
634.53301,0.00520
632.47284,0.00484
630.41267,0.00621
628.35250,0.00698
626.29232,0.00432
624.23215,0.00223
622.17198,0.00307
620.11181,0.00370
618.05164,0.00246
615.99146,0.00209
613.93129,0.00312
611.87112,0.00219
609.81095,0.00000
607.75077,0.00008
605.69060,0.00149
603.63043,0.00148
601.57026,0.00088
599.51009,0.00000
