3996.73391,0.00072
3994.67374,0.00055
3992.61357,0.00034
3990.55339,0.00020
3988.49322,0.00011
3986.43305,0.00000
3984.37288,0.00004
3982.31271,0.00028
3980.25253,0.00044
3978.19236,0.00053
3976.13219,0.00065
3974.07202,0.00068
3972.01184,0.00064
3969.95167,0.00073
3967.89150,0.00089
3965.83133,0.00089
3963.77116,0.00076
3961.71098,0.00068
3959.65081,0.00080
3957.59064,0.00098
3955.53047,0.00103
3953.47030,0.00092
3951.41012,0.00071
3949.34995,0.00046
3947.28978,0.00039
3945.22961,0.00059
3943.16943,0.00093
3941.10926,0.00126
3939.04909,0.00136
3936.98892,0.00106
3934.92875,0.00051
3932.86857,0.00017
3930.80840,0.00019
3928.74823,0.00036
3926.68806,0.00057
3924.62789,0.00086
3922.56771,0.00109
3920.50754,0.00095
3918.44737,0.00044
3916.38720,0.00004
3914.32703,0.00006
3912.26685,0.00027
3910.20668,0.00042
3908.14651,0.00049
3906.08634,0.00041
3904.02616,0.00020
3901.96599,0.00019
3899.90582,0.00069
3897.84565,0.00122
3895.78548,0.00132
3893.72530,0.00117
3891.66513,0.00103
3889.60496,0.00086
3887.54479,0.00073
3885.48462,0.00089
3883.42444,0.00110
3881.36427,0.00106
3879.30410,0.00095
3877.24393,0.00081
3875.18376,0.00059
3873.12358,0.00050
3871.06341,0.00061
3869.00324,0.00094
3866.94307,0.00121
3864.88289,0.00111
3862.82272,0.00080
3860.76255,0.00062
3858.70238,0.00065
3856.64221,0.00081
3854.58203,0.00132
3852.52186,0.00195
3850.46169,0.00186
3848.40152,0.00127
3846.34135,0.00091
3844.28117,0.00088
3842.22100,0.00095
3840.16083,0.00119
3838.10066,0.00170
3836.04048,0.00195
3833.98031,0.00179
3831.92014,0.00174
3829.85997,0.00182
3827.79980,0.00171
3825.73962,0.00137
3823.67945,0.00108
3821.61928,0.00123
3819.55911,0.00169
3817.49894,0.00200
3815.43876,0.00216
3813.37859,0.00206
3811.31842,0.00164
3809.25825,0.00115
3807.19808,0.00074
3805.13790,0.00030
3803.07773,0.00001
3801.01756,0.00049
3798.95739,0.00118
3796.89721,0.00125
3794.83704,0.00123
3792.77687,0.00141
3790.71670,0.00141
3788.65653,0.00120
3786.59635,0.00115
3784.53618,0.00139
3782.47601,0.00167
3780.41584,0.00188
3778.35567,0.00202
3776.29549,0.00194
3774.23532,0.00151
3772.17515,0.00092
3770.11498,0.00070
3768.05481,0.00107
3765.99463,0.00140
3763.93446,0.00133
3761.87429,0.00113
3759.81412,0.00107
3757.75394,0.00109
3755.69377,0.00084
3753.63360,0.00026
3751.57343,0.00012
3749.51326,0.00100
3747.45308,0.00184
3745.39291,0.00194
3743.33274,0.00192
3741.27257,0.00186
3739.21240,0.00140
3737.15222,0.00080
3735.09205,0.00076
3733.03188,0.00138
3730.97171,0.00200
3728.91153,0.00238
3726.85136,0.00250
3724.79119,0.00223
3722.73102,0.00183
3720.67085,0.00165
3718.61067,0.00178
3716.55050,0.00216
3714.49033,0.00259
3712.43016,0.00304
3710.36999,0.00330
3708.30981,0.00285
3706.24964,0.00205
3704.18947,0.00157
3702.12930,0.00147
3700.06913,0.00156
3698.00895,0.00181
3695.94878,0.00209
3693.88861,0.00192
3691.82844,0.00131
3689.76826,0.00114
3687.70809,0.00170
3685.64792,0.00215
3683.58775,0.00221
3681.52758,0.00195
3679.46740,0.00121
3677.40723,0.00033
3675.34706,0.00018
3673.28689,0.00066
3671.22672,0.00107
3669.16654,0.00151
3667.10637,0.00199
3665.04620,0.00238
3662.98603,0.00268
3660.92586,0.00279
3658.86568,0.00272
3656.80551,0.00266
3654.74534,0.00278
3652.68517,0.00304
3650.62499,0.00335
3648.56482,0.00359
3646.50465,0.00360
3644.44448,0.00333
3642.38431,0.00309
3640.32413,0.00302
3638.26396,0.00299
3636.20379,0.00296
3634.14362,0.00312
3632.08345,0.00342
3630.02327,0.00343
3627.96310,0.00315
3625.90293,0.00308
3623.84276,0.00310
3621.78258,0.00307
3619.72241,0.00346
3617.66224,0.00424
3615.60207,0.00452
3613.54190,0.00432
3611.48172,0.00424
3609.42155,0.00433
3607.36138,0.00431
3605.30121,0.00407
3603.24104,0.00403
3601.18086,0.00463
3599.12069,0.00547
3597.06052,0.00566
3595.00035,0.00529
3592.94018,0.00529
3590.88000,0.00575
3588.81983,0.00619
3586.75966,0.00640
3584.69949,0.00639
3582.63931,0.00643
3580.57914,0.00662
3578.51897,0.00680
3576.45880,0.00685
3574.39863,0.00692
3572.33845,0.00713
3570.27828,0.00707
3568.21811,0.00660
3566.15794,0.00651
3564.09777,0.00693
3562.03759,0.00723
3559.97742,0.00738
3557.91725,0.00755
3555.85708,0.00782
3553.79690,0.00814
3551.73673,0.00823
3549.67656,0.00814
3547.61639,0.00829
3545.55622,0.00872
3543.49604,0.00902
3541.43587,0.00903
3539.37570,0.00911
3537.31553,0.00942
3535.25536,0.00961
3533.19518,0.00952
3531.13501,0.00940
3529.07484,0.00949
3527.01467,0.00972
3524.95450,0.00991
3522.89432,0.00997
3520.83415,0.00999
3518.77398,0.01005
3516.71381,0.01025
3514.65363,0.01052
3512.59346,0.01062
3510.53329,0.01051
3508.47312,0.01047
3506.41295,0.01070
3504.35277,0.01109
3502.29260,0.01144
3500.23243,0.01157
3498.17226,0.01167
3496.11209,0.01191
3494.05191,0.01211
3491.99174,0.01215
3489.93157,0.01215
3487.87140,0.01222
3485.81123,0.01232
3483.75105,0.01232
3481.69088,0.01222
3479.63071,0.01225
3477.57054,0.01249
3475.51036,0.01264
3473.45019,0.01253
3471.39002,0.01237
3469.32985,0.01237
3467.26968,0.01256
3465.20950,0.01283
3463.14933,0.01301
3461.08916,0.01302
3459.02899,0.01307
3456.96882,0.01340
3454.90864,0.01373
3452.84847,0.01368
3450.78830,0.01348
3448.72813,0.01341
3446.66795,0.01337
3444.60778,0.01341
3442.54761,0.01375
3440.48744,0.01425
3438.42727,0.01447
3436.36709,0.01430
3434.30692,0.01413
3432.24675,0.01407
3430.18658,0.01406
3428.12641,0.01423
3426.06623,0.01463
3424.00606,0.01502
3421.94589,0.01507
3419.88572,0.01493
3417.82555,0.01496
3415.76537,0.01505
3413.70520,0.01493
3411.64503,0.01475
3409.58486,0.01479
3407.52468,0.01482
3405.46451,0.01462
3403.40434,0.01472
3401.34417,0.01520
3399.28400,0.01545
3397.22382,0.01548
3395.16365,0.01542
3393.10348,0.01552
3391.04331,0.01589
3388.98314,0.01631
3386.92296,0.01639
3384.86279,0.01609
3382.80262,0.01581
3380.74245,0.01580
3378.68228,0.01602
3376.62210,0.01619
3374.56193,0.01601
3372.50176,0.01575
3370.44159,0.01587
3368.38141,0.01620
3366.32124,0.01624
3364.26107,0.01615
3362.20090,0.01638
3360.14073,0.01673
3358.08055,0.01678
3356.02038,0.01668
3353.96021,0.01676
3351.90004,0.01691
3349.83987,0.01674
3347.77969,0.01638
3345.71952,0.01623
3343.65935,0.01624
3341.59918,0.01629
3339.53900,0.01662
3337.47883,0.01717
3335.41866,0.01731
3333.35849,0.01688
3331.29832,0.01669
3329.23814,0.01705
3327.17797,0.01742
3325.11780,0.01752
3323.05763,0.01743
3320.99746,0.01726
3318.93728,0.01709
3316.87711,0.01696
3314.81694,0.01695
3312.75677,0.01708
3310.69660,0.01737
3308.63642,0.01762
3306.57625,0.01748
3304.51608,0.01712
3302.45591,0.01691
3300.39573,0.01690
3298.33556,0.01714
3296.27539,0.01748
3294.21522,0.01755
3292.15505,0.01748
3290.09487,0.01748
3288.03470,0.01737
3285.97453,0.01718
3283.91436,0.01724
3281.85419,0.01752
3279.79401,0.01776
3277.73384,0.01790
3275.67367,0.01785
3273.61350,0.01767
3271.55333,0.01760
3269.49315,0.01756
3267.43298,0.01747
3265.37281,0.01759
3263.31264,0.01796
3261.25246,0.01800
3259.19229,0.01763
3257.13212,0.01730
3255.07195,0.01714
3253.01178,0.01720
3250.95160,0.01739
3248.89143,0.01745
3246.83126,0.01760
3244.77109,0.01785
3242.71092,0.01780
3240.65074,0.01757
3238.59057,0.01740
3236.53040,0.01719
3234.47023,0.01701
3232.41005,0.01705
3230.34988,0.01737
3228.28971,0.01775
3226.22954,0.01778
3224.16937,0.01744
3222.10919,0.01717
3220.04902,0.01729
3217.98885,0.01749
3215.92868,0.01745
3213.86851,0.01741
3211.80833,0.01734
3209.74816,0.01705
3207.68799,0.01686
3205.62782,0.01708
3203.56765,0.01751
3201.50747,0.01770
3199.44730,0.01753
3197.38713,0.01747
3195.32696,0.01761
3193.26678,0.01754
3191.20661,0.01739
3189.14644,0.01743
3187.08627,0.01745
3185.02610,0.01734
3182.96592,0.01735
3180.90575,0.01762
3178.84558,0.01786
3176.78541,0.01776
3174.72524,0.01743
3172.66506,0.01719
3170.60489,0.01729
3168.54472,0.01754
3166.48455,0.01745
3164.42437,0.01699
3162.36420,0.01674
3160.30403,0.01687
3158.24386,0.01694
3156.18369,0.01685
3154.12351,0.01676
3152.06334,0.01663
3150.00317,0.01637
3147.94300,0.01609
3145.88283,0.01595
3143.82265,0.01593
3141.76248,0.01603
3139.70231,0.01615
3137.64214,0.01632
3135.58197,0.01650
3133.52179,0.01643
3131.46162,0.01622
3129.40145,0.01619
3127.34128,0.01625
3125.28110,0.01623
3123.22093,0.01618
3121.16076,0.01623
3119.10059,0.01632
3117.04042,0.01637
3114.98024,0.01639
3112.92007,0.01640
3110.85990,0.01644
3108.79973,0.01647
3106.73956,0.01633
3104.67938,0.01609
3102.61921,0.01588
3100.55904,0.01578
3098.49887,0.01581
3096.43870,0.01590
3094.37852,0.01595
3092.31835,0.01589
3090.25818,0.01568
3088.19801,0.01545
3086.13783,0.01534
3084.07766,0.01539
3082.01749,0.01555
3079.95732,0.01559
3077.89715,0.01540
3075.83697,0.01507
3073.77680,0.01488
3071.71663,0.01492
3069.65646,0.01493
3067.59629,0.01482
3065.53611,0.01479
3063.47594,0.01481
3061.41577,0.01474
3059.35560,0.01458
3057.29542,0.01443
3055.23525,0.01443
3053.17508,0.01457
3051.11491,0.01474
3049.05474,0.01481
3046.99456,0.01470
3044.93439,0.01446
3042.87422,0.01416
3040.81405,0.01398
3038.75388,0.01403
3036.69370,0.01404
3034.63353,0.01393
3032.57336,0.01388
3030.51319,0.01392
3028.45302,0.01393
3026.39284,0.01375
3024.33267,0.01348
3022.27250,0.01332
3020.21233,0.01328
3018.15215,0.01332
3016.09198,0.01347
3014.03181,0.01362
3011.97164,0.01364
3009.91147,0.01359
3007.85129,0.01352
3005.79112,0.01337
3003.73095,0.01320
3001.67078,0.01306
2999.61061,0.01298
2997.55043,0.01287
2995.49026,0.01273
2993.43009,0.01268
2991.36992,0.01262
2989.30975,0.01256
2987.24957,0.01266
2985.18940,0.01283
2983.12923,0.01286
2981.06906,0.01281
2979.00888,0.01273
2976.94871,0.01266
2974.88854,0.01266
2972.82837,0.01259
2970.76820,0.01250
2968.70802,0.01255
2966.64785,0.01274
2964.58768,0.01293
2962.52751,0.01294
2960.46734,0.01278
2958.40716,0.01266
2956.34699,0.01263
2954.28682,0.01256
2952.22665,0.01254
2950.16647,0.01275
2948.10630,0.01285
2946.04613,0.01254
2943.98596,0.01225
2941.92579,0.01228
2939.86561,0.01234
2937.80544,0.01211
2935.74527,0.01191
2933.68510,0.01214
2931.62493,0.01248
2929.56475,0.01263
2927.50458,0.01260
2925.44441,0.01257
2923.38424,0.01258
2921.32407,0.01254
2919.26389,0.01259
2917.20372,0.01267
2915.14355,0.01259
2913.08338,0.01251
2911.02320,0.01255
2908.96303,0.01243
2906.90286,0.01209
2904.84269,0.01198
2902.78252,0.01200
2900.72234,0.01183
2898.66217,0.01168
2896.60200,0.01157
2894.54183,0.01154
2892.48166,0.01163
2890.42148,0.01163
2888.36131,0.01159
2886.30114,0.01159
2884.24097,0.01148
2882.18080,0.01132
2880.12062,0.01126
2878.06045,0.01131
2876.00028,0.01125
2873.94011,0.01105
2871.87993,0.01093
2869.81976,0.01100
2867.75959,0.01113
2865.69942,0.01120
2863.63925,0.01124
2861.57907,0.01115
2859.51890,0.01083
2857.45873,0.01051
2855.39856,0.01045
2853.33839,0.01058
2851.27821,0.01069
2849.21804,0.01075
2847.15787,0.01079
2845.09770,0.01062
2843.03752,0.01023
2840.97735,0.01004
2838.91718,0.01005
2836.85701,0.01007
2834.79684,0.01007
2832.73666,0.00999
2830.67649,0.00995
2828.61632,0.01002
2826.55615,0.00995
2824.49598,0.00983
2822.43580,0.00984
2820.37563,0.00976
2818.31546,0.00955
2816.25529,0.00949
2814.19512,0.00952
2812.13494,0.00952
2810.07477,0.00957
2808.01460,0.00957
2805.95443,0.00956
2803.89425,0.00963
2801.83408,0.00950
2799.77391,0.00925
2797.71374,0.00920
2795.65357,0.00917
2793.59339,0.00903
2791.53322,0.00896
2789.47305,0.00885
2787.41288,0.00867
2785.35271,0.00863
2783.29253,0.00858
2781.23236,0.00839
2779.17219,0.00844
2777.11202,0.00875
2775.05184,0.00890
2772.99167,0.00881
2770.93150,0.00863
2768.87133,0.00856
2766.81116,0.00856
2764.75098,0.00846
2762.69081,0.00828
2760.63064,0.00835
2758.57047,0.00855
2756.51030,0.00850
2754.45012,0.00847
2752.38995,0.00872
2750.32978,0.00891
2748.26961,0.00880
2746.20944,0.00852
2744.14926,0.00823
2742.08909,0.00799
2740.02892,0.00792
2737.96875,0.00796
2735.90857,0.00800
2733.84840,0.00807
2731.78823,0.00809
2729.72806,0.00788
2727.66789,0.00762
2725.60771,0.00754
2723.54754,0.00763
2721.48737,0.00765
2719.42720,0.00760
2717.36703,0.00776
2715.30685,0.00794
2713.24668,0.00791
2711.18651,0.00783
2709.12634,0.00778
2707.06617,0.00783
2705.00599,0.00789
2702.94582,0.00763
2700.88565,0.00720
2698.82548,0.00713
2696.76530,0.00738
2694.70513,0.00748
2692.64496,0.00737
2690.58479,0.00731
2688.52462,0.00728
2686.46444,0.00720
2684.40427,0.00725
2682.34410,0.00731
2680.28393,0.00713
2678.22376,0.00706
2676.16358,0.00719
2674.10341,0.00713
2672.04324,0.00695
2669.98307,0.00681
2667.92289,0.00667
2665.86272,0.00658
2663.80255,0.00660
2661.74238,0.00660
2659.68221,0.00668
2657.62203,0.00696
2655.56186,0.00710
2653.50169,0.00694
2651.44152,0.00676
2649.38135,0.00672
2647.32117,0.00674
2645.26100,0.00670
2643.20083,0.00650
2641.14066,0.00628
2639.08049,0.00631
2637.02031,0.00659
2634.96014,0.00684
2632.89997,0.00692
2630.83980,0.00687
2628.77962,0.00675
2626.71945,0.00663
2624.65928,0.00651
2622.59911,0.00634
2620.53894,0.00615
2618.47876,0.00606
2616.41859,0.00604
2614.35842,0.00590
2612.29825,0.00563
2610.23808,0.00535
2608.17790,0.00533
2606.11773,0.00574
2604.05756,0.00603
2601.99739,0.00595
2599.93722,0.00593
2597.87704,0.00601
2595.81687,0.00597
2593.75670,0.00580
2591.69653,0.00577
2589.63635,0.00589
2587.57618,0.00582
2585.51601,0.00567
2583.45584,0.00569
2581.39567,0.00559
2579.33549,0.00541
2577.27532,0.00550
2575.21515,0.00560
2573.15498,0.00565
2571.09481,0.00577
2569.03463,0.00576
2566.97446,0.00572
2564.91429,0.00570
2562.85412,0.00550
2560.79394,0.00536
2558.73377,0.00552
2556.67360,0.00572
2554.61343,0.00571
2552.55326,0.00560
2550.49308,0.00537
2548.43291,0.00510
2546.37274,0.00522
2544.31257,0.00548
2542.25240,0.00555
2540.19222,0.00560
2538.13205,0.00552
2536.07188,0.00526
2534.01171,0.00529
2531.95154,0.00554
2529.89136,0.00553
2527.83119,0.00546
2525.77102,0.00543
2523.71085,0.00543
2521.65067,0.00558
2519.59050,0.00558
2517.53033,0.00546
2515.47016,0.00552
2513.40999,0.00583
2511.34981,0.00601
2509.28964,0.00548
2507.22947,0.00473
2505.16930,0.00469
2503.10913,0.00515
2501.04895,0.00537
2498.98878,0.00529
2496.92861,0.00532
2494.86844,0.00543
2492.80827,0.00556
2490.74809,0.00570
2488.68792,0.00552
2486.62775,0.00523
2484.56758,0.00519
2482.50740,0.00529
2480.44723,0.00536
2478.38706,0.00538
2476.32689,0.00543
2474.26672,0.00544
2472.20654,0.00529
2470.14637,0.00526
2468.08620,0.00549
2466.02603,0.00580
2463.96586,0.00602
2461.90568,0.00615
2459.84551,0.00631
2457.78534,0.00626
2455.72517,0.00593
2453.66499,0.00576
2451.60482,0.00588
2449.54465,0.00595
2447.48448,0.00569
2445.42431,0.00533
2443.36413,0.00539
2441.30396,0.00580
2439.24379,0.00605
2437.18362,0.00615
2435.12345,0.00615
2433.06327,0.00582
2431.00310,0.00548
2428.94293,0.00557
2426.88276,0.00579
2424.82259,0.00586
2422.76241,0.00594
2420.70224,0.00594
2418.64207,0.00575
2416.58190,0.00572
2414.52172,0.00595
2412.46155,0.00608
2410.40138,0.00600
2408.34121,0.00607
2406.28104,0.00623
2404.22086,0.00611
2402.16069,0.00586
2400.10052,0.00571
2398.04035,0.00550
2395.98018,0.00535
2393.92000,0.00517
2391.85983,0.00514
2389.79966,0.00531
2387.73949,0.00553
2385.67931,0.00577
2383.61914,0.00591
2381.55897,0.00594
2379.49880,0.00610
2377.43863,0.00628
2375.37845,0.00600
2373.31828,0.00540
2371.25811,0.00522
2369.19794,0.00576
2367.13777,0.00632
2365.07759,0.00596
2363.01742,0.00522
2360.95725,0.00478
2358.89708,0.00417
2356.83691,0.00415
2354.77673,0.00538
2352.71656,0.00639
2350.65639,0.00635
2348.59622,0.00590
2346.53604,0.00570
2344.47587,0.00611
2342.41570,0.00682
2340.35553,0.00704
2338.29536,0.00677
2336.23518,0.00620
2334.17501,0.00541
2332.11484,0.00489
2330.05467,0.00498
2327.99450,0.00560
2325.93432,0.00620
2323.87415,0.00642
2321.81398,0.00659
2319.75381,0.00684
2317.69364,0.00688
2315.63346,0.00661
2313.57329,0.00613
2311.51312,0.00601
2309.45295,0.00647
2307.39277,0.00694
2305.33260,0.00695
2303.27243,0.00664
2301.21226,0.00640
2299.15209,0.00631
2297.09191,0.00624
2295.03174,0.00619
2292.97157,0.00613
2290.91140,0.00602
2288.85123,0.00596
2286.79105,0.00599
2284.73088,0.00608
2282.67071,0.00608
2280.61054,0.00599
2278.55036,0.00602
2276.49019,0.00616
2274.43002,0.00608
2272.36985,0.00551
2270.30968,0.00468
2268.24950,0.00446
2266.18933,0.00511
2264.12916,0.00570
2262.06899,0.00573
2260.00882,0.00550
2257.94864,0.00541
2255.88847,0.00556
2253.82830,0.00526
2251.76813,0.00425
2249.70796,0.00365
2247.64778,0.00448
2245.58761,0.00559
2243.52744,0.00570
2241.46727,0.00525
2239.40709,0.00504
2237.34692,0.00513
2235.28675,0.00528
2233.22658,0.00548
2231.16641,0.00570
2229.10623,0.00544
2227.04606,0.00472
2224.98589,0.00425
2222.92572,0.00433
2220.86555,0.00473
2218.80537,0.00501
2216.74520,0.00529
2214.68503,0.00511
2212.62486,0.00390
2210.56469,0.00288
2208.50451,0.00288
2206.44434,0.00330
2204.38417,0.00356
2202.32400,0.00390
2200.26382,0.00413
2198.20365,0.00419
2196.14348,0.00508
2194.08331,0.00556
2192.02314,0.00446
2189.96296,0.00353
2187.90279,0.00353
2185.84262,0.00401
2183.78245,0.00456
2181.72228,0.00411
2179.66210,0.00280
2177.60193,0.00232
2175.54176,0.00327
2173.48159,0.00423
2171.42141,0.00441
2169.36124,0.00481
2167.30107,0.00487
2165.24090,0.00346
2163.18073,0.00216
2161.12055,0.00212
2159.06038,0.00199
2157.00021,0.00157
2154.94004,0.00234
2152.87987,0.00345
2150.81969,0.00372
2148.75952,0.00383
2146.69935,0.00423
2144.63918,0.00441
2142.57901,0.00397
2140.51883,0.00340
2138.45866,0.00302
2136.39849,0.00236
2134.33832,0.00132
2132.27814,0.00081
2130.21797,0.00152
2128.15780,0.00245
2126.09763,0.00273
2124.03746,0.00303
2121.97728,0.00346
2119.91711,0.00382
2117.85694,0.00447
2115.79677,0.00471
2113.73660,0.00402
2111.67642,0.00358
2109.61625,0.00381
2107.55608,0.00375
2105.49591,0.00348
2103.43573,0.00386
2101.37556,0.00415
2099.31539,0.00349
2097.25522,0.00304
2095.19505,0.00367
2093.13487,0.00430
2091.07470,0.00436
2089.01453,0.00433
2086.95436,0.00428
2084.89419,0.00410
2082.83401,0.00405
2080.77384,0.00413
2078.71367,0.00398
2076.65350,0.00379
2074.59333,0.00379
2072.53315,0.00378
2070.47298,0.00371
2068.41281,0.00375
2066.35264,0.00376
2064.29246,0.00328
2062.23229,0.00304
2060.17212,0.00363
2058.11195,0.00363
2056.05178,0.00266
2053.99160,0.00243
2051.93143,0.00315
2049.87126,0.00330
2047.81109,0.00268
2045.75092,0.00248
2043.69074,0.00278
2041.63057,0.00280
2039.57040,0.00285
2037.51023,0.00329
2035.45006,0.00372
2033.38988,0.00405
2031.32971,0.00411
2029.26954,0.00362
2027.20937,0.00323
2025.14919,0.00322
2023.08902,0.00333
2021.02885,0.00274
2018.96868,0.00094
2016.90851,0.00006
2014.84833,0.00142
2012.78816,0.00306
2010.72799,0.00353
2008.66782,0.00392
2006.60765,0.00471
2004.54747,0.00429
2002.48730,0.00301
2000.42713,0.00282
1998.36696,0.00375
1996.30678,0.00453
1994.24661,0.00460
1992.18644,0.00405
1990.12627,0.00332
1988.06610,0.00339
1986.00592,0.00393
1983.94575,0.00404
1981.88558,0.00378
1979.82541,0.00286
1977.76524,0.00163
1975.70506,0.00162
1973.64489,0.00246
1971.58472,0.00301
1969.52455,0.00285
1967.46438,0.00236
1965.40420,0.00236
1963.34403,0.00230
1961.28386,0.00189
1959.22369,0.00253
1957.16351,0.00365
1955.10334,0.00341
1953.04317,0.00262
1950.98300,0.00283
1948.92283,0.00318
1946.86265,0.00239
1944.80248,0.00118
1942.74231,0.00086
1940.68214,0.00150
1938.62197,0.00240
1936.56179,0.00281
1934.50162,0.00257
1932.44145,0.00196
1930.38128,0.00109
1928.32111,0.00056
1926.26093,0.00087
1924.20076,0.00140
1922.14059,0.00157
1920.08042,0.00174
1918.02024,0.00249
1915.96007,0.00324
1913.89990,0.00315
1911.83973,0.00257
1909.77956,0.00210
1907.71938,0.00211
1905.65921,0.00257
1903.59904,0.00297
1901.53887,0.00303
1899.47870,0.00295
1897.41852,0.00272
1895.35835,0.00251
1893.29818,0.00267
1891.23801,0.00299
1889.17783,0.00328
1887.11766,0.00347
1885.05749,0.00337
1882.99732,0.00317
1880.93715,0.00319
1878.87697,0.00330
1876.81680,0.00323
1874.75663,0.00290
1872.69646,0.00237
1870.63629,0.00215
1868.57611,0.00246
1866.51594,0.00282
1864.45577,0.00298
1862.39560,0.00307
1860.33543,0.00293
1858.27525,0.00261
1856.21508,0.00254
1854.15491,0.00270
1852.09474,0.00279
1850.03456,0.00264
1847.97439,0.00239
1845.91422,0.00240
1843.85405,0.00269
1841.79388,0.00278
1839.73370,0.00266
1837.67353,0.00261
1835.61336,0.00271
1833.55319,0.00296
1831.49302,0.00325
1829.43284,0.00326
1827.37267,0.00287
1825.31250,0.00267
1823.25233,0.00293
1821.19216,0.00310
1819.13198,0.00295
1817.07181,0.00288
1815.01164,0.00303
1812.95147,0.00312
1810.89129,0.00304
1808.83112,0.00298
1806.77095,0.00303
1804.71078,0.00307
1802.65061,0.00299
1800.59043,0.00290
1798.53026,0.00288
1796.47009,0.00283
1794.40992,0.00279
1792.34975,0.00288
1790.28957,0.00313
1788.22940,0.00326
1786.16923,0.00319
1784.10906,0.00323
1782.04888,0.00341
1779.98871,0.00338
1777.92854,0.00314
1775.86837,0.00298
1773.80820,0.00296
1771.74802,0.00295
1769.68785,0.00305
1767.62768,0.00337
1765.56751,0.00361
1763.50734,0.00358
1761.44716,0.00344
1759.38699,0.00333
1757.32682,0.00320
1755.26665,0.00313
1753.20648,0.00321
1751.14630,0.00336
1749.08613,0.00355
1747.02596,0.00381
1744.96579,0.00410
1742.90561,0.00429
1740.84544,0.00424
1738.78527,0.00404
1736.72510,0.00387
1734.66493,0.00381
1732.60475,0.00396
1730.54458,0.00419
1728.48441,0.00430
1726.42424,0.00439
1724.36407,0.00444
1722.30389,0.00437
1720.24372,0.00434
1718.18355,0.00451
1716.12338,0.00470
1714.06320,0.00476
1712.00303,0.00476
1709.94286,0.00470
1707.88269,0.00456
1705.82252,0.00439
1703.76234,0.00433
1701.70217,0.00450
1699.64200,0.00488
1697.58183,0.00535
1695.52166,0.00586
1693.46148,0.00628
1691.40131,0.00652
1689.34114,0.00673
1687.28097,0.00701
1685.22080,0.00735
1683.16062,0.00762
1681.10045,0.00776
1679.04028,0.00801
1676.98011,0.00841
1674.91993,0.00870
1672.85976,0.00872
1670.79959,0.00875
1668.73942,0.00915
1666.67925,0.00968
1664.61907,0.01004
1662.55890,0.01022
1660.49873,0.01028
1658.43856,0.01023
1656.37839,0.01022
1654.31821,0.01042
1652.25804,0.01060
1650.19787,0.01043
1648.13770,0.01005
1646.07753,0.00987
1644.01735,0.00995
1641.95718,0.01005
1639.89701,0.00993
1637.83684,0.00970
1635.77666,0.00965
1633.71649,0.00975
1631.65632,0.00970
1629.59615,0.00954
1627.53598,0.00930
1625.47580,0.00898
1623.41563,0.00880
1621.35546,0.00880
1619.29529,0.00877
1617.23512,0.00868
1615.17494,0.00866
1613.11477,0.00862
1611.05460,0.00851
1608.99443,0.00844
1606.93425,0.00843
1604.87408,0.00836
1602.81391,0.00818
1600.75374,0.00797
1598.69357,0.00779
1596.63339,0.00764
1594.57322,0.00754
1592.51305,0.00748
1590.45288,0.00739
1588.39271,0.00721
1586.33253,0.00702
1584.27236,0.00688
1582.21219,0.00683
1580.15202,0.00676
1578.09185,0.00660
1576.03167,0.00654
1573.97150,0.00655
1571.91133,0.00633
1569.85116,0.00594
1567.79098,0.00566
1565.73081,0.00549
1563.67064,0.00531
1561.61047,0.00509
1559.55030,0.00473
1557.49012,0.00451
1555.42995,0.00473
1553.36978,0.00514
1551.30961,0.00550
1549.24944,0.00562
1547.18926,0.00540
1545.12909,0.00498
1543.06892,0.00471
1541.00875,0.00480
1538.94858,0.00495
1536.88840,0.00476
1534.82823,0.00439
1532.76806,0.00416
1530.70789,0.00416
1528.64771,0.00418
1526.58754,0.00402
1524.52737,0.00377
1522.46720,0.00360
1520.40703,0.00363
1518.34685,0.00373
1516.28668,0.00372
1514.22651,0.00359
1512.16634,0.00344
1510.10617,0.00332
1508.04599,0.00328
1505.98582,0.00333
1503.92565,0.00335
1501.86548,0.00332
1499.80530,0.00330
1497.74513,0.00323
1495.68496,0.00312
1493.62479,0.00306
1491.56462,0.00306
1489.50444,0.00311
1487.44427,0.00318
1485.38410,0.00328
1483.32393,0.00338
1481.26376,0.00337
1479.20358,0.00330
1477.14341,0.00333
1475.08324,0.00338
1473.02307,0.00340
1470.96290,0.00349
1468.90272,0.00362
1466.84255,0.00376
1464.78238,0.00396
1462.72221,0.00409
1460.66203,0.00401
1458.60186,0.00384
1456.54169,0.00384
1454.48152,0.00394
1452.42135,0.00395
1450.36117,0.00394
1448.30100,0.00397
1446.24083,0.00398
1444.18066,0.00398
1442.12049,0.00401
1440.06031,0.00400
1438.00014,0.00392
1435.93997,0.00383
1433.87980,0.00382
1431.81963,0.00394
1429.75945,0.00407
1427.69928,0.00409
1425.63911,0.00406
1423.57894,0.00409
1421.51876,0.00423
1419.45859,0.00437
1417.39842,0.00452
1415.33825,0.00467
1413.27808,0.00469
1411.21790,0.00449
1409.15773,0.00424
1407.09756,0.00408
1405.03739,0.00401
1402.97722,0.00394
1400.91704,0.00383
1398.85687,0.00373
1396.79670,0.00368
1394.73653,0.00365
1392.67635,0.00361
1390.61618,0.00360
1388.55601,0.00371
1386.49584,0.00392
1384.43567,0.00408
1382.37549,0.00409
1380.31532,0.00398
1378.25515,0.00378
1376.19498,0.00356
1374.13481,0.00346
1372.07463,0.00351
1370.01446,0.00356
1367.95429,0.00349
1365.89412,0.00331
1363.83395,0.00319
1361.77377,0.00324
1359.71360,0.00335
1357.65343,0.00339
1355.59326,0.00338
1353.53308,0.00341
1351.47291,0.00349
1349.41274,0.00355
1347.35257,0.00351
1345.29240,0.00333
1343.23222,0.00311
1341.17205,0.00299
1339.11188,0.00300
1337.05171,0.00304
1334.99154,0.00303
1332.93136,0.00303
1330.87119,0.00310
1328.81102,0.00315
1326.75085,0.00310
1324.69067,0.00301
1322.63050,0.00294
1320.57033,0.00294
1318.51016,0.00302
1316.44999,0.00307
1314.38981,0.00303
1312.32964,0.00300
1310.26947,0.00305
1308.20930,0.00313
1306.14913,0.00313
1304.08895,0.00304
1302.02878,0.00296
1299.96861,0.00305
1297.90844,0.00335
1295.84827,0.00359
1293.78809,0.00366
1291.72792,0.00369
1289.66775,0.00365
1287.60758,0.00347
1285.54740,0.00329
1283.48723,0.00328
1281.42706,0.00332
1279.36689,0.00324
1277.30672,0.00319
1275.24654,0.00325
1273.18637,0.00329
1271.12620,0.00339
1269.06603,0.00357
1267.00586,0.00360
1264.94568,0.00337
1262.88551,0.00315
1260.82534,0.00320
1258.76517,0.00330
1256.70500,0.00320
1254.64482,0.00304
1252.58465,0.00310
1250.52448,0.00329
1248.46431,0.00328
1246.40413,0.00313
1244.34396,0.00307
1242.28379,0.00306
1240.22362,0.00308
1238.16345,0.00309
1236.10327,0.00305
1234.04310,0.00294
1231.98293,0.00268
1229.92276,0.00237
1227.86259,0.00230
1225.80241,0.00244
1223.74224,0.00248
1221.68207,0.00239
1219.62190,0.00232
1217.56172,0.00231
1215.50155,0.00226
1213.44138,0.00213
1211.38121,0.00189
1209.32104,0.00161
1207.26086,0.00149
1205.20069,0.00152
1203.14052,0.00154
1201.08035,0.00153
1199.02018,0.00161
1196.96000,0.00166
1194.89983,0.00159
1192.83966,0.00150
1190.77949,0.00145
1188.71932,0.00144
1186.65914,0.00147
1184.59897,0.00165
1182.53880,0.00195
1180.47863,0.00214
1178.41845,0.00210
1176.35828,0.00205
1174.29811,0.00219
1172.23794,0.00231
1170.17777,0.00220
1168.11759,0.00224
1166.05742,0.00258
1163.99725,0.00301
1161.93708,0.00337
1159.87691,0.00361
1157.81673,0.00384
1155.75656,0.00419
1153.69639,0.00457
1151.63622,0.00482
1149.57605,0.00512
1147.51587,0.00573
1145.45570,0.00644
1143.39553,0.00696
1141.33536,0.00732
1139.27518,0.00762
1137.21501,0.00801
1135.15484,0.00857
1133.09467,0.00900
1131.03450,0.00923
1128.97432,0.00962
1126.91415,0.01030
1124.85398,0.01106
1122.79381,0.01175
1120.73364,0.01228
1118.67346,0.01277
1116.61329,0.01337
1114.55312,0.01388
1112.49295,0.01432
1110.43277,0.01487
1108.37260,0.01539
1106.31243,0.01581
1104.25226,0.01633
1102.19209,0.01693
1100.13191,0.01745
1098.07174,0.01778
1096.01157,0.01792
1093.95140,0.01801
1091.89123,0.01830
1089.83105,0.01882
1087.77088,0.01932
1085.71071,0.01962
1083.65054,0.01975
1081.59037,0.01993
1079.53019,0.02023
1077.47002,0.02041
1075.40985,0.02052
1073.34968,0.02076
1071.28950,0.02093
1069.22933,0.02083
1067.16916,0.02075
1065.10899,0.02087
1063.04882,0.02097
1060.98864,0.02080
1058.92847,0.02049
1056.86830,0.02030
1054.80813,0.02004
1052.74796,0.01957
1050.68778,0.01906
1048.62761,0.01848
1046.56744,0.01768
1044.50727,0.01693
1042.44710,0.01639
1040.38692,0.01590
1038.32675,0.01525
1036.26658,0.01448
1034.20641,0.01372
1032.14623,0.01295
1030.08606,0.01222
1028.02589,0.01170
1025.96572,0.01140
1023.90555,0.01105
1021.84537,0.01055
1019.78520,0.01007
1017.72503,0.00991
1015.66486,0.00982
1013.60469,0.00947
1011.54451,0.00922
1009.48434,0.00942
1007.42417,0.00971
1005.36400,0.00987
1003.30382,0.01031
1001.24365,0.01099
999.18348,0.01147
997.12331,0.01180
995.06314,0.01225
993.00296,0.01260
990.94279,0.01276
988.88262,0.01304
986.82245,0.01342
984.76228,0.01375
982.70210,0.01406
980.64193,0.01414
978.58176,0.01388
976.52159,0.01359
974.46142,0.01348
972.40124,0.01333
970.34107,0.01299
968.28090,0.01256
966.22073,0.01214
964.16055,0.01186
962.10038,0.01164
960.04021,0.01115
957.98004,0.01044
955.91987,0.00981
953.85969,0.00949
951.79952,0.00941
949.73935,0.00911
947.67918,0.00843
945.61901,0.00759
943.55883,0.00674
941.49866,0.00618
939.43849,0.00612
937.37832,0.00622
935.31814,0.00594
933.25797,0.00529
931.19780,0.00465
929.13763,0.00428
927.07746,0.00425
925.01728,0.00442
922.95711,0.00441
920.89694,0.00424
918.83677,0.00411
916.77660,0.00395
914.71642,0.00383
912.65625,0.00381
910.59608,0.00375
908.53591,0.00364
906.47574,0.00356
904.41556,0.00340
902.35539,0.00317
900.29522,0.00318
898.23505,0.00376
896.17487,0.00442
894.11470,0.00458
892.05453,0.00456
889.99436,0.00461
887.93419,0.00474
885.87401,0.00505
883.81384,0.00546
881.75367,0.00571
879.69350,0.00578
877.63333,0.00584
875.57315,0.00604
873.51298,0.00664
871.45281,0.00729
869.39264,0.00756
867.33247,0.00778
865.27229,0.00804
863.21212,0.00799
861.15195,0.00774
859.09178,0.00768
857.03160,0.00774
854.97143,0.00775
852.91126,0.00780
850.85109,0.00758
848.79092,0.00701
846.73074,0.00681
844.67057,0.00692
842.61040,0.00678
840.55023,0.00662
838.49006,0.00638
836.42988,0.00591
834.36971,0.00556
832.30954,0.00524
830.24937,0.00501
828.18919,0.00517
826.12902,0.00522
824.06885,0.00478
822.00868,0.00444
819.94851,0.00442
817.88833,0.00433
815.82816,0.00407
813.76799,0.00384
811.70782,0.00382
809.64765,0.00392
807.58747,0.00407
805.52730,0.00425
803.46713,0.00419
801.40696,0.00396
799.34679,0.00370
797.28661,0.00339
795.22644,0.00296
793.16627,0.00267
791.10610,0.00274
789.04592,0.00268
786.98575,0.00251
784.92558,0.00268
782.86541,0.00306
780.80524,0.00328
778.74506,0.00333
776.68489,0.00340
774.62472,0.00347
772.56455,0.00343
770.50438,0.00320
768.44420,0.00279
766.38403,0.00238
764.32386,0.00239
762.26369,0.00278
760.20352,0.00306
758.14334,0.00282
756.08317,0.00243
754.02300,0.00251
751.96283,0.00290
749.90265,0.00299
747.84248,0.00280
745.78231,0.00286
743.72214,0.00289
741.66197,0.00244
739.60179,0.00199
737.54162,0.00196
735.48145,0.00215
733.42128,0.00214
731.36111,0.00198
729.30093,0.00231
727.24076,0.00290
725.18059,0.00293
723.12042,0.00295
721.06024,0.00325
719.00007,0.00366
716.93990,0.00371
714.87973,0.00346
712.81956,0.00319
710.75938,0.00283
708.69921,0.00254
706.63904,0.00263
704.57887,0.00294
702.51870,0.00308
700.45852,0.00322
698.39835,0.00351
696.33818,0.00380
694.27801,0.00417
692.21784,0.00460
690.15766,0.00457
688.09749,0.00401
686.03732,0.00320
683.97715,0.00226
681.91697,0.00184
679.85680,0.00227
677.79663,0.00242
675.73646,0.00192
673.67629,0.00172
671.61611,0.00214
669.55594,0.00316
667.49577,0.00442
665.43560,0.00481
663.37543,0.00492
661.31525,0.00468
659.25508,0.00393
657.19491,0.00300
655.13474,0.00257
653.07457,0.00304
651.01439,0.00385
648.95422,0.00455
646.89405,0.00493
644.83388,0.00433
642.77370,0.00312
640.71353,0.00234
638.65336,0.00200
636.59319,0.00151
634.53302,0.00118
632.47284,0.00235
630.41267,0.00478
628.35250,0.00579
626.29233,0.00401
624.23216,0.00262
622.17198,0.00296
620.11181,0.00337
618.05164,0.00309
615.99147,0.00316
613.93129,0.00375
611.87112,0.00259
609.81095,0.00011
607.75078,0.00000
605.69061,0.00173
603.63043,0.00168
601.57026,0.00065
599.51009,0.00000
