3996.73391,0.00021
3994.67374,0.00017
3992.61357,0.00024
3990.55339,0.00019
3988.49322,0.00002
3986.43305,0.00000
3984.37288,0.00014
3982.31271,0.00018
3980.25253,0.00011
3978.19236,0.00022
3976.13219,0.00047
3974.07202,0.00048
3972.01184,0.00032
3969.95167,0.00038
3967.89150,0.00049
3965.83133,0.00032
3963.77116,0.00006
3961.71098,0.00006
3959.65081,0.00025
3957.59064,0.00032
3955.53047,0.00038
3953.47030,0.00059
3951.41012,0.00077
3949.34995,0.00075
3947.28978,0.00064
3945.22961,0.00065
3943.16943,0.00080
3941.10926,0.00095
3939.04909,0.00094
3936.98892,0.00069
3934.92875,0.00032
3932.86857,0.00013
3930.80840,0.00025
3928.74823,0.00040
3926.68806,0.00041
3924.62789,0.00045
3922.56771,0.00067
3920.50754,0.00079
3918.44737,0.00064
3916.38720,0.00044
3914.32703,0.00041
3912.26685,0.00053
3910.20668,0.00059
3908.14651,0.00036
3906.08634,0.00007
3904.02616,0.00007
3901.96599,0.00032
3899.90582,0.00065
3897.84565,0.00098
3895.78548,0.00114
3893.72530,0.00119
3891.66513,0.00122
3889.60496,0.00105
3887.54479,0.00071
3885.48462,0.00061
3883.42444,0.00078
3881.36427,0.00089
3879.30410,0.00092
3877.24393,0.00078
3875.18376,0.00054
3873.12358,0.00044
3871.06341,0.00040
3869.00324,0.00055
3866.94307,0.00084
3864.88289,0.00091
3862.82272,0.00076
3860.76255,0.00074
3858.70238,0.00078
3856.64221,0.00070
3854.58203,0.00096
3852.52186,0.00172
3850.46169,0.00199
3848.40152,0.00151
3846.34135,0.00095
3844.28117,0.00068
3842.22100,0.00066
3840.16083,0.00099
3838.10066,0.00164
3836.04048,0.00191
3833.98031,0.00164
3831.92014,0.00154
3829.85997,0.00179
3827.79980,0.00194
3825.73962,0.00150
3823.67945,0.00060
3821.61928,0.00010
3819.55911,0.00051
3817.49894,0.00115
3815.43876,0.00155
3813.37859,0.00155
3811.31842,0.00115
3809.25825,0.00061
3807.19808,0.00024
3805.13790,0.00009
3803.07773,0.00008
3801.01756,0.00041
3798.95739,0.00076
3796.89721,0.00080
3794.83704,0.00095
3792.77687,0.00109
3790.71670,0.00087
3788.65653,0.00062
3786.59635,0.00077
3784.53618,0.00117
3782.47601,0.00151
3780.41584,0.00171
3778.35567,0.00179
3776.29549,0.00173
3774.23532,0.00144
3772.17515,0.00102
3770.11498,0.00085
3768.05481,0.00101
3765.99463,0.00108
3763.93446,0.00103
3761.87429,0.00099
3759.81412,0.00095
3757.75394,0.00101
3755.69377,0.00104
3753.63360,0.00067
3751.57343,0.00012
3749.51326,0.00022
3747.45308,0.00058
3745.39291,0.00068
3743.33274,0.00098
3741.27257,0.00142
3739.21240,0.00157
3737.15222,0.00147
3735.09205,0.00142
3733.03188,0.00168
3730.97171,0.00207
3728.91153,0.00216
3726.85136,0.00186
3724.79119,0.00136
3722.73102,0.00110
3720.67085,0.00136
3718.61067,0.00183
3716.55050,0.00214
3714.49033,0.00226
3712.43016,0.00248
3710.36999,0.00272
3708.30981,0.00235
3706.24964,0.00170
3704.18947,0.00142
3702.12930,0.00151
3700.06913,0.00157
3698.00895,0.00153
3695.94878,0.00164
3693.88861,0.00164
3691.82844,0.00126
3689.76826,0.00101
3687.70809,0.00146
3685.64792,0.00199
3683.58775,0.00208
3681.52758,0.00177
3679.46740,0.00130
3677.40723,0.00093
3675.34706,0.00093
3673.28689,0.00096
3671.22672,0.00078
3669.16654,0.00085
3667.10637,0.00118
3665.04620,0.00155
3662.98603,0.00189
3660.92586,0.00220
3658.86568,0.00242
3656.80551,0.00243
3654.74534,0.00230
3652.68517,0.00236
3650.62499,0.00269
3648.56482,0.00302
3646.50465,0.00298
3644.44448,0.00255
3642.38431,0.00225
3640.32413,0.00244
3638.26396,0.00281
3636.20379,0.00295
3634.14362,0.00293
3632.08345,0.00286
3630.02327,0.00271
3627.96310,0.00255
3625.90293,0.00243
3623.84276,0.00219
3621.78258,0.00177
3619.72241,0.00174
3617.66224,0.00250
3615.60207,0.00333
3613.54190,0.00372
3611.48172,0.00364
3609.42155,0.00335
3607.36138,0.00324
3605.30121,0.00336
3603.24104,0.00367
3601.18086,0.00415
3599.12069,0.00443
3597.06052,0.00421
3595.00035,0.00393
3592.94018,0.00409
3590.88000,0.00445
3588.81983,0.00477
3586.75966,0.00511
3584.69949,0.00534
3582.63931,0.00544
3580.57914,0.00545
3578.51897,0.00535
3576.45880,0.00529
3574.39863,0.00539
3572.33845,0.00551
3570.27828,0.00534
3568.21811,0.00491
3566.15794,0.00474
3564.09777,0.00517
3562.03759,0.00580
3559.97742,0.00618
3557.91725,0.00617
3555.85708,0.00604
3553.79690,0.00603
3551.73673,0.00605
3549.67656,0.00608
3547.61639,0.00627
3545.55622,0.00673
3543.49604,0.00717
3541.43587,0.00729
3539.37570,0.00730
3537.31553,0.00742
3535.25536,0.00748
3533.19518,0.00740
3531.13501,0.00744
3529.07484,0.00774
3527.01467,0.00807
3524.95450,0.00816
3522.89432,0.00804
3520.83415,0.00794
3518.77398,0.00789
3516.71381,0.00795
3514.65363,0.00809
3512.59346,0.00822
3510.53329,0.00828
3508.47312,0.00819
3506.41295,0.00811
3504.35277,0.00835
3502.29260,0.00886
3500.23243,0.00923
3498.17226,0.00926
3496.11209,0.00910
3494.05191,0.00894
3491.99174,0.00890
3489.93157,0.00912
3487.87140,0.00962
3485.81123,0.00998
3483.75105,0.00995
3481.69088,0.00983
3479.63071,0.00994
3477.57054,0.01022
3475.51036,0.01028
3473.45019,0.00992
3471.39002,0.00964
3469.32985,0.00976
3467.26968,0.00999
3465.20950,0.01009
3463.14933,0.01008
3461.08916,0.01007
3459.02899,0.01022
3456.96882,0.01050
3454.90864,0.01065
3452.84847,0.01065
3450.78830,0.01070
3448.72813,0.01076
3446.66795,0.01066
3444.60778,0.01059
3442.54761,0.01083
3440.48744,0.01123
3438.42727,0.01142
3436.36709,0.01131
3434.30692,0.01113
3432.24675,0.01093
3430.18658,0.01083
3428.12641,0.01099
3426.06623,0.01128
3424.00606,0.01155
3421.94589,0.01158
3419.88572,0.01124
3417.82555,0.01090
3415.76537,0.01088
3413.70520,0.01100
3411.64503,0.01116
3409.58486,0.01143
3407.52468,0.01160
3405.46451,0.01148
3403.40434,0.01149
3401.34417,0.01179
3399.28400,0.01193
3397.22382,0.01199
3395.16365,0.01222
3393.10348,0.01247
3391.04331,0.01256
3388.98314,0.01269
3386.92296,0.01278
3384.86279,0.01263
3382.80262,0.01241
3380.74245,0.01238
3378.68228,0.01260
3376.62210,0.01281
3374.56193,0.01260
3372.50176,0.01219
3370.44159,0.01205
3368.38141,0.01209
3366.32124,0.01218
3364.26107,0.01239
3362.20090,0.01262
3360.14073,0.01275
3358.08055,0.01270
3356.02038,0.01260
3353.96021,0.01275
3351.90004,0.01313
3349.83987,0.01343
3347.77969,0.01330
3345.71952,0.01286
3343.65935,0.01252
3341.59918,0.01255
3339.53900,0.01283
3337.47883,0.01313
3335.41866,0.01312
3333.35849,0.01281
3331.29832,0.01268
3329.23814,0.01286
3327.17797,0.01300
3325.11780,0.01302
3323.05763,0.01306
3320.99746,0.01315
3318.93728,0.01314
3316.87711,0.01306
3314.81694,0.01312
3312.75677,0.01324
3310.69660,0.01334
3308.63642,0.01348
3306.57625,0.01345
3304.51608,0.01311
3302.45591,0.01284
3300.39573,0.01282
3298.33556,0.01288
3296.27539,0.01301
3294.21522,0.01311
3292.15505,0.01314
3290.09487,0.01325
3288.03470,0.01333
3285.97453,0.01336
3283.91436,0.01339
3281.85419,0.01336
3279.79401,0.01350
3277.73384,0.01385
3275.67367,0.01391
3273.61350,0.01363
3271.55333,0.01341
3269.49315,0.01330
3267.43298,0.01333
3265.37281,0.01362
3263.31264,0.01396
3261.25246,0.01407
3259.19229,0.01393
3257.13212,0.01355
3255.07195,0.01310
3253.01178,0.01308
3250.95160,0.01333
3248.89143,0.01326
3246.83126,0.01323
3244.77109,0.01352
3242.71092,0.01375
3240.65074,0.01378
3238.59057,0.01357
3236.53040,0.01314
3234.47023,0.01290
3232.41005,0.01305
3230.34988,0.01339
3228.28971,0.01363
3226.22954,0.01360
3224.16937,0.01350
3222.10919,0.01348
3220.04902,0.01339
3217.98885,0.01327
3215.92868,0.01321
3213.86851,0.01313
3211.80833,0.01283
3209.74816,0.01253
3207.68799,0.01255
3205.62782,0.01276
3203.56765,0.01296
3201.50747,0.01301
3199.44730,0.01287
3197.38713,0.01287
3195.32696,0.01310
3193.26678,0.01328
3191.20661,0.01342
3189.14644,0.01346
3187.08627,0.01331
3185.02610,0.01316
3182.96592,0.01322
3180.90575,0.01352
3178.84558,0.01386
3176.78541,0.01384
3174.72524,0.01345
3172.66506,0.01303
3170.60489,0.01300
3168.54472,0.01328
3166.48455,0.01333
3164.42437,0.01310
3162.36420,0.01299
3160.30403,0.01304
3158.24386,0.01309
3156.18369,0.01313
3154.12351,0.01297
3152.06334,0.01256
3150.00317,0.01228
3147.94300,0.01228
3145.88283,0.01227
3143.82265,0.01222
3141.76248,0.01227
3139.70231,0.01236
3137.64214,0.01247
3135.58197,0.01258
3133.52179,0.01249
3131.46162,0.01233
3129.40145,0.01236
3127.34128,0.01245
3125.28110,0.01257
3123.22093,0.01271
3121.16076,0.01264
3119.10059,0.01251
3117.04042,0.01255
3114.98024,0.01256
3112.92007,0.01245
3110.85990,0.01241
3108.79973,0.01245
3106.73956,0.01238
3104.67938,0.01222
3102.61921,0.01220
3100.55904,0.01232
3098.49887,0.01237
3096.43870,0.01236
3094.37852,0.01237
3092.31835,0.01232
3090.25818,0.01219
3088.19801,0.01208
3086.13783,0.01190
3084.07766,0.01176
3082.01749,0.01191
3079.95732,0.01210
3077.89715,0.01193
3075.83697,0.01154
3073.77680,0.01142
3071.71663,0.01150
3069.65646,0.01140
3067.59629,0.01115
3065.53611,0.01103
3063.47594,0.01100
3061.41577,0.01109
3059.35560,0.01126
3057.29542,0.01141
3055.23525,0.01153
3053.17508,0.01155
3051.11491,0.01151
3049.05474,0.01159
3046.99456,0.01166
3044.93439,0.01151
3042.87422,0.01111
3040.81405,0.01072
3038.75388,0.01057
3036.69370,0.01057
3034.63353,0.01063
3032.57336,0.01056
3030.51319,0.01043
3028.45302,0.01054
3026.39284,0.01066
3024.33267,0.01052
3022.27250,0.01043
3020.21233,0.01049
3018.15215,0.01051
3016.09198,0.01049
3014.03181,0.01044
3011.97164,0.01036
3009.91147,0.01028
3007.85129,0.01024
3005.79112,0.01022
3003.73095,0.01016
3001.67078,0.01010
2999.61061,0.01005
2997.55043,0.00986
2995.49026,0.00962
2993.43009,0.00957
2991.36992,0.00958
2989.30975,0.00958
2987.24957,0.00971
2985.18940,0.00984
2983.12923,0.00977
2981.06906,0.00974
2979.00888,0.00979
2976.94871,0.00980
2974.88854,0.00991
2972.82837,0.00998
2970.76820,0.00984
2968.70802,0.00966
2966.64785,0.00968
2964.58768,0.00996
2962.52751,0.01017
2960.46734,0.01007
2958.40716,0.00982
2956.34699,0.00965
2954.28682,0.00962
2952.22665,0.00968
2950.16647,0.00978
2948.10630,0.00982
2946.04613,0.00971
2943.98596,0.00962
2941.92579,0.00963
2939.86561,0.00959
2937.80544,0.00953
2935.74527,0.00955
2933.68510,0.00973
2931.62493,0.00990
2929.56475,0.00991
2927.50458,0.00985
2925.44441,0.00994
2923.38424,0.01005
2921.32407,0.00993
2919.26389,0.00986
2917.20372,0.00982
2915.14355,0.00972
2913.08338,0.00972
2911.02320,0.00969
2908.96303,0.00954
2906.90286,0.00950
2904.84269,0.00963
2902.78252,0.00958
2900.72234,0.00933
2898.66217,0.00911
2896.60200,0.00901
2894.54183,0.00911
2892.48166,0.00923
2890.42148,0.00913
2888.36131,0.00910
2886.30114,0.00908
2884.24097,0.00890
2882.18080,0.00878
2880.12062,0.00884
2878.06045,0.00880
2876.00028,0.00860
2873.94011,0.00844
2871.87993,0.00841
2869.81976,0.00844
2867.75959,0.00851
2865.69942,0.00860
2863.63925,0.00860
2861.57907,0.00852
2859.51890,0.00837
2857.45873,0.00831
2855.39856,0.00842
2853.33839,0.00849
2851.27821,0.00838
2849.21804,0.00815
2847.15787,0.00797
2845.09770,0.00788
2843.03752,0.00770
2840.97735,0.00756
2838.91718,0.00763
2836.85701,0.00778
2834.79684,0.00785
2832.73666,0.00784
2830.67649,0.00776
2828.61632,0.00758
2826.55615,0.00734
2824.49598,0.00728
2822.43580,0.00743
2820.37563,0.00747
2818.31546,0.00731
2816.25529,0.00724
2814.19512,0.00733
2812.13494,0.00737
2810.07477,0.00733
2808.01460,0.00727
2805.95443,0.00733
2803.89425,0.00740
2801.83408,0.00718
2799.77391,0.00690
2797.71374,0.00684
2795.65357,0.00682
2793.59339,0.00678
2791.53322,0.00674
2789.47305,0.00659
2787.41288,0.00637
2785.35271,0.00624
2783.29253,0.00620
2781.23236,0.00619
2779.17219,0.00630
2777.11202,0.00646
2775.05184,0.00655
2772.99167,0.00646
2770.93150,0.00626
2768.87133,0.00625
2766.81116,0.00641
2764.75098,0.00646
2762.69081,0.00641
2760.63064,0.00635
2758.57047,0.00635
2756.51030,0.00637
2754.45012,0.00648
2752.38995,0.00668
2750.32978,0.00674
2748.26961,0.00661
2746.20944,0.00650
2744.14926,0.00646
2742.08909,0.00635
2740.02892,0.00624
2737.96875,0.00618
2735.90857,0.00615
2733.84840,0.00627
2731.78823,0.00632
2729.72806,0.00601
2727.66789,0.00564
2725.60771,0.00557
2723.54754,0.00568
2721.48737,0.00565
2719.42720,0.00551
2717.36703,0.00562
2715.30685,0.00590
2713.24668,0.00595
2711.18651,0.00578
2709.12634,0.00563
2707.06617,0.00565
2705.00599,0.00570
2702.94582,0.00559
2700.88565,0.00538
2698.82548,0.00525
2696.76530,0.00525
2694.70513,0.00529
2692.64496,0.00540
2690.58479,0.00559
2688.52462,0.00559
2686.46444,0.00540
2684.40427,0.00531
2682.34410,0.00523
2680.28393,0.00503
2678.22376,0.00508
2676.16358,0.00535
2674.10341,0.00537
2672.04324,0.00519
2669.98307,0.00505
2667.92289,0.00494
2665.86272,0.00488
2663.80255,0.00490
2661.74238,0.00485
2659.68221,0.00492
2657.62203,0.00515
2655.56186,0.00517
2653.50169,0.00500
2651.44152,0.00487
2649.38135,0.00492
2647.32117,0.00516
2645.26100,0.00528
2643.20083,0.00505
2641.14066,0.00479
2639.08049,0.00482
2637.02031,0.00498
2634.96014,0.00511
2632.89997,0.00519
2630.83980,0.00506
2628.77962,0.00480
2626.71945,0.00466
2624.65928,0.00450
2622.59911,0.00426
2620.53894,0.00418
2618.47876,0.00426
2616.41859,0.00430
2614.35842,0.00419
2612.29825,0.00412
2610.23808,0.00426
2608.17790,0.00451
2606.11773,0.00466
2604.05756,0.00447
2601.99739,0.00410
2599.93722,0.00402
2597.87704,0.00425
2595.81687,0.00430
2593.75670,0.00403
2591.69653,0.00390
2589.63635,0.00395
2587.57618,0.00394
2585.51601,0.00414
2583.45584,0.00451
2581.39567,0.00436
2579.33549,0.00385
2577.27532,0.00375
2575.21515,0.00387
2573.15498,0.00393
2571.09481,0.00402
2569.03463,0.00394
2566.97446,0.00375
2564.91429,0.00378
2562.85412,0.00400
2560.79394,0.00405
2558.73377,0.00397
2556.67360,0.00393
2554.61343,0.00401
2552.55326,0.00417
2550.49308,0.00406
2548.43291,0.00381
2546.37274,0.00398
2544.31257,0.00430
2542.25240,0.00431
2540.19222,0.00414
2538.13205,0.00382
2536.07188,0.00326
2534.01171,0.00299
2531.95154,0.00328
2529.89136,0.00365
2527.83119,0.00396
2525.77102,0.00422
2523.71085,0.00415
2521.65067,0.00387
2519.59050,0.00371
2517.53033,0.00381
2515.47016,0.00388
2513.40999,0.00393
2511.34981,0.00408
2509.28964,0.00381
2507.22947,0.00328
2505.16930,0.00316
2503.10913,0.00325
2501.04895,0.00316
2498.98878,0.00314
2496.92861,0.00354
2494.86844,0.00400
2492.80827,0.00413
2490.74809,0.00415
2488.68792,0.00419
2486.62775,0.00409
2484.56758,0.00393
2482.50740,0.00395
2480.44723,0.00400
2478.38706,0.00403
2476.32689,0.00419
2474.26672,0.00442
2472.20654,0.00428
2470.14637,0.00385
2468.08620,0.00374
2466.02603,0.00395
2463.96586,0.00414
2461.90568,0.00435
2459.84551,0.00460
2457.78534,0.00461
2455.72517,0.00433
2453.66499,0.00406
2451.60482,0.00410
2449.54465,0.00425
2447.48448,0.00414
2445.42431,0.00384
2443.36413,0.00383
2441.30396,0.00407
2439.24379,0.00406
2437.18362,0.00392
2435.12345,0.00382
2433.06327,0.00367
2431.00310,0.00367
2428.94293,0.00393
2426.88276,0.00413
2424.82259,0.00409
2422.76241,0.00397
2420.70224,0.00380
2418.64207,0.00377
2416.58190,0.00399
2414.52172,0.00419
2412.46155,0.00428
2410.40138,0.00436
2408.34121,0.00436
2406.28104,0.00419
2404.22086,0.00389
2402.16069,0.00381
2400.10052,0.00396
2398.04035,0.00388
2395.98018,0.00376
2393.92000,0.00363
2391.85983,0.00358
2389.79966,0.00362
2387.73949,0.00370
2385.67931,0.00381
2383.61914,0.00390
2381.55897,0.00391
2379.49880,0.00402
2377.43863,0.00441
2375.37845,0.00478
2373.31828,0.00484
2371.25811,0.00452
2369.19794,0.00421
2367.13777,0.00457
2365.07759,0.00488
2363.01742,0.00399
2360.95725,0.00294
2358.89708,0.00137
2356.83691,0.00067
2354.77673,0.00189
2352.71656,0.00343
2350.65639,0.00455
2348.59622,0.00460
2346.53604,0.00331
2344.47587,0.00398
2342.41570,0.00537
2340.35553,0.00581
2338.29536,0.00568
2336.23518,0.00518
2334.17501,0.00458
2332.11484,0.00429
2330.05467,0.00464
2327.99450,0.00498
2325.93432,0.00516
2323.87415,0.00502
2321.81398,0.00509
2319.75381,0.00502
2317.69364,0.00509
2315.63346,0.00496
2313.57329,0.00466
2311.51312,0.00451
2309.45295,0.00443
2307.39277,0.00434
2305.33260,0.00431
2303.27243,0.00423
2301.21226,0.00396
2299.15209,0.00375
2297.09191,0.00368
2295.03174,0.00381
2292.97157,0.00409
2290.91140,0.00429
2288.85123,0.00447
2286.79105,0.00452
2284.73088,0.00429
2282.67071,0.00407
2280.61054,0.00422
2278.55036,0.00460
2276.49019,0.00475
2274.43002,0.00449
2272.36985,0.00403
2270.30968,0.00374
2268.24950,0.00395
2266.18933,0.00462
2264.12916,0.00491
2262.06899,0.00432
2260.00882,0.00364
2257.94864,0.00378
2255.88847,0.00458
2253.82830,0.00495
2251.76813,0.00419
2249.70796,0.00333
2247.64778,0.00369
2245.58761,0.00431
2243.52744,0.00432
2241.46727,0.00419
2239.40709,0.00425
2237.34692,0.00426
2235.28675,0.00409
2233.22658,0.00411
2231.16641,0.00425
2229.10623,0.00380
2227.04606,0.00302
2224.98589,0.00271
2222.92572,0.00316
2220.86555,0.00403
2218.80537,0.00396
2216.74520,0.00306
2214.68503,0.00229
2212.62486,0.00159
2210.56469,0.00156
2208.50451,0.00235
2206.44434,0.00307
2204.38417,0.00325
2202.32400,0.00309
2200.26382,0.00305
2198.20365,0.00359
2196.14348,0.00414
2194.08331,0.00381
2192.02314,0.00304
2189.96296,0.00268
2187.90279,0.00287
2185.84262,0.00316
2183.78245,0.00309
2181.72228,0.00214
2179.66210,0.00111
2177.60193,0.00164
2175.54176,0.00270
2173.48159,0.00233
2171.42141,0.00142
2169.36124,0.00193
2167.30107,0.00274
2165.24090,0.00188
2163.18073,0.00065
2161.12055,0.00032
2159.06038,0.00042
2157.00021,0.00056
2154.94004,0.00077
2152.87987,0.00101
2150.81969,0.00096
2148.75952,0.00099
2146.69935,0.00128
2144.63918,0.00139
2142.57901,0.00147
2140.51883,0.00186
2138.45866,0.00212
2136.39849,0.00163
2134.33832,0.00087
2132.27814,0.00080
2130.21797,0.00146
2128.15780,0.00188
2126.09763,0.00173
2124.03746,0.00190
2121.97728,0.00252
2119.91711,0.00300
2117.85694,0.00315
2115.79677,0.00290
2113.73660,0.00270
2111.67642,0.00301
2109.61625,0.00324
2107.55608,0.00284
2105.49591,0.00250
2103.43573,0.00278
2101.37556,0.00291
2099.31539,0.00238
2097.25522,0.00214
2095.19505,0.00274
2093.13487,0.00319
2091.07470,0.00320
2089.01453,0.00312
2086.95436,0.00273
2084.89419,0.00230
2082.83401,0.00219
2080.77384,0.00210
2078.71367,0.00195
2076.65350,0.00205
2074.59333,0.00234
2072.53315,0.00264
2070.47298,0.00278
2068.41281,0.00260
2066.35264,0.00235
2064.29246,0.00199
2062.23229,0.00176
2060.17212,0.00182
2058.11195,0.00141
2056.05178,0.00073
2053.99160,0.00094
2051.93143,0.00163
2049.87126,0.00182
2047.81109,0.00174
2045.75092,0.00210
2043.69074,0.00242
2041.63057,0.00179
2039.57040,0.00066
2037.51023,0.00027
2035.45006,0.00049
2033.38988,0.00090
2031.32971,0.00163
2029.26954,0.00236
2027.20937,0.00294
2025.14919,0.00309
2023.08902,0.00244
2021.02885,0.00145
2018.96868,0.00096
2016.90851,0.00095
2014.84833,0.00081
2012.78816,0.00098
2010.72799,0.00132
2008.66782,0.00112
2006.60765,0.00098
2004.54747,0.00133
2002.48730,0.00147
2000.42713,0.00140
1998.36696,0.00178
1996.30678,0.00239
1994.24661,0.00290
1992.18644,0.00321
1990.12627,0.00312
1988.06610,0.00278
1986.00592,0.00247
1983.94575,0.00222
1981.88558,0.00211
1979.82541,0.00200
1977.76524,0.00186
1975.70506,0.00209
1973.64489,0.00218
1971.58472,0.00158
1969.52455,0.00085
1967.46438,0.00067
1965.40420,0.00107
1963.34403,0.00126
1961.28386,0.00111
1959.22369,0.00141
1957.16351,0.00185
1955.10334,0.00174
1953.04317,0.00143
1950.98300,0.00120
1948.92283,0.00084
1946.86265,0.00045
1944.80248,0.00036
1942.74231,0.00052
1940.68214,0.00063
1938.62197,0.00078
1936.56179,0.00104
1934.50162,0.00139
1932.44145,0.00139
1930.38128,0.00096
1928.32111,0.00092
1926.26093,0.00136
1924.20076,0.00141
1922.14059,0.00095
1920.08042,0.00071
1918.02024,0.00116
1915.96007,0.00176
1913.89990,0.00176
1911.83973,0.00133
1909.77956,0.00103
1907.71938,0.00114
1905.65921,0.00155
1903.59904,0.00178
1901.53887,0.00170
1899.47870,0.00148
1897.41852,0.00131
1895.35835,0.00145
1893.29818,0.00179
1891.23801,0.00186
1889.17783,0.00182
1887.11766,0.00189
1885.05749,0.00184
1882.99732,0.00167
1880.93715,0.00165
1878.87697,0.00180
1876.81680,0.00194
1874.75663,0.00180
1872.69646,0.00130
1870.63629,0.00101
1868.57611,0.00131
1866.51594,0.00172
1864.45577,0.00192
1862.39560,0.00201
1860.33543,0.00178
1858.27525,0.00130
1856.21508,0.00111
1854.15491,0.00124
1852.09474,0.00142
1850.03456,0.00152
1847.97439,0.00143
1845.91422,0.00132
1843.85405,0.00138
1841.79388,0.00141
1839.73370,0.00138
1837.67353,0.00154
1835.61336,0.00183
1833.55319,0.00210
1831.49302,0.00233
1829.43284,0.00241
1827.37267,0.00212
1825.31250,0.00175
1823.25233,0.00163
1821.19216,0.00162
1819.13198,0.00150
1817.07181,0.00146
1815.01164,0.00160
1812.95147,0.00162
1810.89129,0.00151
1808.83112,0.00145
1806.77095,0.00147
1804.71078,0.00153
1802.65061,0.00154
1800.59043,0.00147
1798.53026,0.00147
1796.47009,0.00152
1794.40992,0.00152
1792.34975,0.00161
1790.28957,0.00193
1788.22940,0.00214
1786.16923,0.00216
1784.10906,0.00223
1782.04888,0.00228
1779.98871,0.00213
1777.92854,0.00196
1775.86837,0.00197
1773.80820,0.00193
1771.74802,0.00171
1769.68785,0.00166
1767.62768,0.00189
1765.56751,0.00206
1763.50734,0.00206
1761.44716,0.00209
1759.38699,0.00218
1757.32682,0.00219
1755.26665,0.00212
1753.20648,0.00213
1751.14630,0.00221
1749.08613,0.00228
1747.02596,0.00235
1744.96579,0.00252
1742.90561,0.00271
1740.84544,0.00264
1738.78527,0.00241
1736.72510,0.00231
1734.66493,0.00241
1732.60475,0.00271
1730.54458,0.00299
1728.48441,0.00306
1726.42424,0.00303
1724.36407,0.00298
1722.30389,0.00283
1720.24372,0.00263
1718.18355,0.00250
1716.12338,0.00253
1714.06320,0.00268
1712.00303,0.00283
1709.94286,0.00291
1707.88269,0.00287
1705.82252,0.00276
1703.76234,0.00278
1701.70217,0.00299
1699.64200,0.00322
1697.58183,0.00339
1695.52166,0.00374
1693.46148,0.00423
1691.40131,0.00458
1689.34114,0.00490
1687.28097,0.00524
1685.22080,0.00544
1683.16062,0.00551
1681.10045,0.00560
1679.04028,0.00583
1676.98011,0.00612
1674.91993,0.00633
1672.85976,0.00638
1670.79959,0.00659
1668.73942,0.00714
1666.67925,0.00761
1664.61907,0.00778
1662.55890,0.00789
1660.49873,0.00803
1658.43856,0.00800
1656.37839,0.00787
1654.31821,0.00798
1652.25804,0.00834
1650.19787,0.00832
1648.13770,0.00793
1646.07753,0.00773
1644.01735,0.00789
1641.95718,0.00797
1639.89701,0.00777
1637.83684,0.00743
1635.77666,0.00735
1633.71649,0.00752
1631.65632,0.00757
1629.59615,0.00744
1627.53598,0.00713
1625.47580,0.00679
1623.41563,0.00663
1621.35546,0.00657
1619.29529,0.00634
1617.23512,0.00615
1615.17494,0.00625
1613.11477,0.00636
1611.05460,0.00630
1608.99443,0.00623
1606.93425,0.00623
1604.87408,0.00625
1602.81391,0.00622
1600.75374,0.00612
1598.69357,0.00596
1596.63339,0.00577
1594.57322,0.00567
1592.51305,0.00566
1590.45288,0.00559
1588.39271,0.00544
1586.33253,0.00535
1584.27236,0.00535
1582.21219,0.00533
1580.15202,0.00511
1578.09185,0.00479
1576.03167,0.00477
1573.97150,0.00499
1571.91133,0.00491
1569.85116,0.00455
1567.79098,0.00426
1565.73081,0.00409
1563.67064,0.00390
1561.61047,0.00355
1559.55030,0.00306
1557.49012,0.00302
1555.42995,0.00355
1553.36978,0.00403
1551.30961,0.00424
1549.24944,0.00419
1547.18926,0.00396
1545.12909,0.00365
1543.06892,0.00334
1541.00875,0.00317
1538.94858,0.00331
1536.88840,0.00344
1534.82823,0.00337
1532.76806,0.00326
1530.70789,0.00313
1528.64771,0.00289
1526.58754,0.00255
1524.52737,0.00224
1522.46720,0.00214
1520.40703,0.00241
1518.34685,0.00267
1516.28668,0.00260
1514.22651,0.00246
1512.16634,0.00239
1510.10617,0.00222
1508.04599,0.00192
1505.98582,0.00183
1503.92565,0.00202
1501.86548,0.00214
1499.80530,0.00208
1497.74513,0.00199
1495.68496,0.00206
1493.62479,0.00213
1491.56462,0.00206
1489.50444,0.00204
1487.44427,0.00216
1485.38410,0.00232
1483.32393,0.00244
1481.26376,0.00244
1479.20358,0.00236
1477.14341,0.00231
1475.08324,0.00231
1473.02307,0.00233
1470.96290,0.00239
1468.90272,0.00247
1466.84255,0.00259
1464.78238,0.00277
1462.72221,0.00286
1460.66203,0.00282
1458.60186,0.00280
1456.54169,0.00291
1454.48152,0.00302
1452.42135,0.00300
1450.36117,0.00291
1448.30100,0.00288
1446.24083,0.00294
1444.18066,0.00303
1442.12049,0.00310
1440.06031,0.00313
1438.00014,0.00307
1435.93997,0.00294
1433.87980,0.00289
1431.81963,0.00298
1429.75945,0.00310
1427.69928,0.00309
1425.63911,0.00294
1423.57894,0.00283
1421.51876,0.00291
1419.45859,0.00305
1417.39842,0.00314
1415.33825,0.00323
1413.27808,0.00330
1411.21790,0.00324
1409.15773,0.00310
1407.09756,0.00300
1405.03739,0.00294
1402.97722,0.00287
1400.91704,0.00279
1398.85687,0.00272
1396.79670,0.00266
1394.73653,0.00260
1392.67635,0.00254
1390.61618,0.00251
1388.55601,0.00257
1386.49584,0.00273
1384.43567,0.00289
1382.37549,0.00293
1380.31532,0.00283
1378.25515,0.00262
1376.19498,0.00240
1374.13481,0.00233
1372.07463,0.00236
1370.01446,0.00240
1367.95429,0.00243
1365.89412,0.00242
1363.83395,0.00229
1361.77377,0.00223
1359.71360,0.00232
1357.65343,0.00244
1355.59326,0.00249
1353.53308,0.00248
1351.47291,0.00245
1349.41274,0.00241
1347.35257,0.00234
1345.29240,0.00225
1343.23222,0.00214
1341.17205,0.00205
1339.11188,0.00207
1337.05171,0.00212
1334.99154,0.00207
1332.93136,0.00203
1330.87119,0.00210
1328.81102,0.00217
1326.75085,0.00208
1324.69067,0.00193
1322.63050,0.00192
1320.57033,0.00199
1318.51016,0.00203
1316.44999,0.00205
1314.38981,0.00208
1312.32964,0.00212
1310.26947,0.00216
1308.20930,0.00222
1306.14913,0.00227
1304.08895,0.00227
1302.02878,0.00226
1299.96861,0.00230
1297.90844,0.00244
1295.84827,0.00259
1293.78809,0.00268
1291.72792,0.00274
1289.66775,0.00275
1287.60758,0.00261
1285.54740,0.00238
1283.48723,0.00231
1281.42706,0.00234
1279.36689,0.00234
1277.30672,0.00238
1275.24654,0.00239
1273.18637,0.00235
1271.12620,0.00247
1269.06603,0.00265
1267.00586,0.00261
1264.94568,0.00237
1262.88551,0.00222
1260.82534,0.00223
1258.76517,0.00221
1256.70500,0.00207
1254.64482,0.00204
1252.58465,0.00224
1250.52448,0.00248
1248.46431,0.00245
1246.40413,0.00229
1244.34396,0.00226
1242.28379,0.00229
1240.22362,0.00226
1238.16345,0.00213
1236.10327,0.00204
1234.04310,0.00202
1231.98293,0.00198
1229.92276,0.00184
1227.86259,0.00168
1225.80241,0.00173
1223.74224,0.00187
1221.68207,0.00182
1219.62190,0.00165
1217.56172,0.00153
1215.50155,0.00147
1213.44138,0.00138
1211.38121,0.00120
1209.32104,0.00099
1207.26086,0.00090
1205.20069,0.00089
1203.14052,0.00078
1201.08035,0.00070
1199.02018,0.00082
1196.96000,0.00101
1194.89983,0.00109
1192.83966,0.00094
1190.77949,0.00071
1188.71932,0.00065
1186.65914,0.00075
1184.59897,0.00092
1182.53880,0.00108
1180.47863,0.00108
1178.41845,0.00099
1176.35828,0.00101
1174.29811,0.00114
1172.23794,0.00128
1170.17777,0.00134
1168.11759,0.00143
1166.05742,0.00166
1163.99725,0.00196
1161.93708,0.00228
1159.87691,0.00254
1157.81673,0.00262
1155.75656,0.00275
1153.69639,0.00299
1151.63622,0.00312
1149.57605,0.00327
1147.51587,0.00367
1145.45570,0.00418
1143.39553,0.00458
1141.33536,0.00487
1139.27518,0.00513
1137.21501,0.00540
1135.15484,0.00576
1133.09467,0.00604
1131.03450,0.00615
1128.97432,0.00636
1126.91415,0.00687
1124.85398,0.00759
1122.79381,0.00825
1120.73364,0.00860
1118.67346,0.00893
1116.61329,0.00940
1114.55312,0.00970
1112.49295,0.00995
1110.43277,0.01044
1108.37260,0.01102
1106.31243,0.01143
1104.25226,0.01177
1102.19209,0.01218
1100.13191,0.01259
1098.07174,0.01291
1096.01157,0.01317
1093.95140,0.01338
1091.89123,0.01364
1089.83105,0.01406
1087.77088,0.01435
1085.71071,0.01444
1083.65054,0.01465
1081.59037,0.01507
1079.53019,0.01546
1077.47002,0.01557
1075.40985,0.01558
1073.34968,0.01578
1071.28950,0.01600
1069.22933,0.01599
1067.16916,0.01587
1065.10899,0.01596
1063.04882,0.01631
1060.98864,0.01649
1058.92847,0.01637
1056.86830,0.01622
1054.80813,0.01605
1052.74796,0.01582
1050.68778,0.01569
1048.62761,0.01544
1046.56744,0.01486
1044.50727,0.01432
1042.44710,0.01398
1040.38692,0.01360
1038.32675,0.01312
1036.26658,0.01255
1034.20641,0.01193
1032.14623,0.01127
1030.08606,0.01074
1028.02589,0.01048
1025.96572,0.01032
1023.90555,0.01005
1021.84537,0.00962
1019.78520,0.00910
1017.72503,0.00888
1015.66486,0.00879
1013.60469,0.00841
1011.54451,0.00809
1009.48434,0.00820
1007.42417,0.00838
1005.36400,0.00843
1003.30382,0.00869
1001.24365,0.00912
999.18348,0.00948
997.12331,0.00979
995.06314,0.01017
993.00296,0.01048
990.94279,0.01060
988.88262,0.01076
986.82245,0.01107
984.76228,0.01142
982.70210,0.01171
980.64193,0.01162
978.58176,0.01131
976.52159,0.01117
974.46142,0.01124
972.40124,0.01140
970.34107,0.01137
968.28090,0.01100
966.22073,0.01054
964.16055,0.01032
962.10038,0.01022
960.04021,0.00977
957.98004,0.00912
955.91987,0.00868
953.85969,0.00847
951.79952,0.00834
949.73935,0.00806
947.67918,0.00762
945.61901,0.00702
943.55883,0.00619
941.49866,0.00549
939.43849,0.00533
937.37832,0.00549
935.31814,0.00544
933.25797,0.00509
931.19780,0.00469
929.13763,0.00448
927.07746,0.00442
925.01728,0.00438
922.95711,0.00443
920.89694,0.00451
918.83677,0.00438
916.77660,0.00416
914.71642,0.00397
912.65625,0.00373
910.59608,0.00348
908.53591,0.00338
906.47574,0.00339
904.41556,0.00330
902.35539,0.00319
900.29522,0.00324
898.23505,0.00351
896.17487,0.00393
894.11470,0.00425
892.05453,0.00439
889.99436,0.00439
887.93419,0.00450
885.87401,0.00489
883.81384,0.00528
881.75367,0.00535
879.69350,0.00521
877.63333,0.00517
875.57315,0.00538
873.51298,0.00589
871.45281,0.00632
869.39264,0.00643
867.33247,0.00661
865.27229,0.00681
863.21212,0.00661
861.15195,0.00631
859.09178,0.00638
857.03160,0.00655
854.97143,0.00663
852.91126,0.00694
850.85109,0.00702
848.79092,0.00642
846.73074,0.00606
844.67057,0.00625
842.61040,0.00632
840.55023,0.00640
838.49006,0.00643
836.42988,0.00609
834.36971,0.00572
832.30954,0.00530
830.24937,0.00478
828.18919,0.00456
826.12902,0.00471
824.06885,0.00484
822.00868,0.00498
819.94851,0.00513
817.88833,0.00495
815.82816,0.00454
813.76799,0.00443
811.70782,0.00462
809.64765,0.00463
807.58747,0.00464
805.52730,0.00479
803.46713,0.00448
801.40696,0.00395
799.34679,0.00376
797.28661,0.00367
795.22644,0.00330
793.16627,0.00316
791.10610,0.00346
789.04592,0.00339
786.98575,0.00305
784.92558,0.00315
782.86541,0.00366
780.80524,0.00403
778.74506,0.00400
776.68489,0.00389
774.62472,0.00396
772.56455,0.00397
770.50438,0.00401
768.44420,0.00395
766.38403,0.00332
764.32386,0.00295
762.26369,0.00339
760.20352,0.00378
758.14334,0.00364
756.08317,0.00357
754.02300,0.00387
751.96283,0.00401
749.90265,0.00371
747.84248,0.00353
745.78231,0.00417
743.72214,0.00473
741.66197,0.00417
739.60179,0.00325
737.54162,0.00293
735.48145,0.00329
733.42128,0.00364
731.36111,0.00338
729.30093,0.00323
727.24076,0.00386
725.18059,0.00456
723.12042,0.00490
721.06024,0.00469
719.00007,0.00459
716.93990,0.00440
714.87973,0.00435
712.81956,0.00459
710.75938,0.00455
708.69921,0.00397
706.63904,0.00344
704.57887,0.00344
702.51870,0.00380
700.45852,0.00425
698.39835,0.00472
696.33818,0.00519
694.27801,0.00578
692.21784,0.00644
690.15766,0.00676
688.09749,0.00619
686.03732,0.00478
683.97715,0.00357
681.91697,0.00362
679.85680,0.00449
677.79663,0.00499
675.73646,0.00511
673.67629,0.00544
671.61611,0.00605
669.55594,0.00500
667.49577,0.00349
665.43560,0.00563
663.37543,0.00545
661.31525,0.00542
659.25508,0.00573
657.19491,0.00546
655.13474,0.00531
653.07457,0.00626
651.01439,0.00735
648.95422,0.00746
646.89405,0.00688
644.83388,0.00601
642.77370,0.00533
640.71353,0.00461
638.65336,0.00395
636.59319,0.00404
634.53302,0.00442
632.47284,0.00460
630.41267,0.00499
628.35250,0.00477
626.29233,0.00282
624.23216,0.00173
622.17198,0.00359
620.11181,0.00558
618.05164,0.00626
615.99147,0.00686
613.93129,0.00630
611.87112,0.00314
609.81095,0.00043
607.75078,0.00090
605.69061,0.00239
603.63043,0.00126
601.57026,0.00000
599.51009,0.00000
