3996.73391,0.00004
3994.67373,0.00003
3992.61356,0.00010
3990.55339,0.00028
3988.49322,0.00055
3986.43305,0.00084
3984.37287,0.00096
3982.31270,0.00084
3980.25253,0.00071
3978.19236,0.00075
3976.13219,0.00085
3974.07201,0.00091
3972.01184,0.00094
3969.95167,0.00096
3967.89150,0.00107
3965.83133,0.00115
3963.77115,0.00093
3961.71098,0.00055
3959.65081,0.00044
3957.59064,0.00071
3955.53046,0.00116
3953.47029,0.00143
3951.41012,0.00110
3949.34995,0.00032
3947.28978,0.00000
3945.22960,0.00053
3943.16943,0.00103
3941.10926,0.00103
3939.04909,0.00104
3936.98892,0.00117
3934.92874,0.00106
3932.86857,0.00081
3930.80840,0.00096
3928.74823,0.00142
3926.68805,0.00164
3924.62788,0.00136
3922.56771,0.00082
3920.50754,0.00056
3918.44737,0.00067
3916.38719,0.00114
3914.32702,0.00176
3912.26685,0.00208
3910.20668,0.00204
3908.14651,0.00197
3906.08633,0.00177
3904.02616,0.00103
3901.96599,0.00045
3899.90582,0.00081
3897.84565,0.00130
3895.78547,0.00145
3893.72530,0.00147
3891.66513,0.00128
3889.60496,0.00104
3887.54478,0.00091
3885.48461,0.00072
3883.42444,0.00049
3881.36427,0.00039
3879.30410,0.00048
3877.24392,0.00081
3875.18375,0.00107
3873.12358,0.00097
3871.06341,0.00065
3869.00324,0.00056
3866.94306,0.00074
3864.88289,0.00067
3862.82272,0.00023
3860.76255,0.00001
3858.70237,0.00009
3856.64220,0.00000
3854.58203,0.00007
3852.52186,0.00059
3850.46169,0.00124
3848.40151,0.00140
3846.34134,0.00150
3844.28117,0.00178
3842.22100,0.00185
3840.16083,0.00149
3838.10065,0.00098
3836.04048,0.00108
3833.98031,0.00170
3831.92014,0.00225
3829.85997,0.00260
3827.79979,0.00271
3825.73962,0.00264
3823.67945,0.00260
3821.61928,0.00258
3819.55910,0.00226
3817.49893,0.00215
3815.43876,0.00242
3813.37859,0.00286
3811.31842,0.00318
3809.25824,0.00337
3807.19807,0.00337
3805.13790,0.00332
3803.07773,0.00351
3801.01756,0.00357
3798.95738,0.00344
3796.89721,0.00356
3794.83704,0.00408
3792.77687,0.00461
3790.71670,0.00485
3788.65652,0.00502
3786.59635,0.00525
3784.53618,0.00538
3782.47601,0.00556
3780.41583,0.00579
3778.35566,0.00578
3776.29549,0.00572
3774.23532,0.00577
3772.17515,0.00570
3770.11497,0.00522
3768.05480,0.00468
3765.99463,0.00444
3763.93446,0.00442
3761.87429,0.00444
3759.81411,0.00411
3757.75394,0.00331
3755.69377,0.00279
3753.63360,0.00273
3751.57342,0.00219
3749.51325,0.00089
3747.45308,0.00016
3745.39291,0.00000
3743.33274,0.00061
3741.27256,0.00148
3739.21239,0.00184
3737.15222,0.00199
3735.09205,0.00185
3733.03188,0.00176
3730.97170,0.00221
3728.91153,0.00283
3726.85136,0.00315
3724.79119,0.00329
3722.73102,0.00347
3720.67084,0.00364
3718.61067,0.00353
3716.55050,0.00347
3714.49033,0.00393
3712.43015,0.00469
3710.36998,0.00496
3708.30981,0.00495
3706.24964,0.00511
3704.18947,0.00529
3702.12929,0.00540
3700.06912,0.00544
3698.00895,0.00557
3695.94878,0.00586
3693.88861,0.00632
3691.82843,0.00682
3689.76826,0.00654
3687.70809,0.00576
3685.64792,0.00564
3683.58775,0.00598
3681.52757,0.00620
3679.46740,0.00621
3677.40723,0.00621
3675.34706,0.00620
3673.28688,0.00614
3671.22671,0.00622
3669.16654,0.00647
3667.10637,0.00673
3665.04620,0.00701
3662.98602,0.00733
3660.92585,0.00751
3658.86568,0.00755
3656.80551,0.00759
3654.74534,0.00784
3652.68516,0.00852
3650.62499,0.00909
3648.56482,0.00880
3646.50465,0.00887
3644.44447,0.00929
3642.38430,0.00964
3640.32413,0.00998
3638.26396,0.01038
3636.20379,0.01087
3634.14361,0.01127
3632.08344,0.01145
3630.02327,0.01167
3627.96310,0.01220
3625.90293,0.01282
3623.84275,0.01329
3621.78258,0.01369
3619.72241,0.01391
3617.66224,0.01397
3615.60207,0.01406
3613.54189,0.01409
3611.48172,0.01408
3609.42155,0.01454
3607.36138,0.01553
3605.30120,0.01658
3603.24103,0.01752
3601.18086,0.01822
3599.12069,0.01863
3597.06052,0.01888
3595.00034,0.01918
3592.94017,0.01963
3590.88000,0.02017
3588.81983,0.02053
3586.75966,0.02075
3584.69948,0.02122
3582.63931,0.02193
3580.57914,0.02275
3578.51897,0.02352
3576.45879,0.02408
3574.39862,0.02445
3572.33845,0.02490
3570.27828,0.02540
3568.21811,0.02558
3566.15793,0.02571
3564.09776,0.02632
3562.03759,0.02700
3559.97742,0.02759
3557.91725,0.02818
3555.85707,0.02864
3553.79690,0.02899
3551.73673,0.02941
3549.67656,0.02975
3547.61639,0.02968
3545.55621,0.02964
3543.49604,0.03024
3541.43587,0.03130
3539.37570,0.03228
3537.31552,0.03294
3535.25535,0.03337
3533.19518,0.03381
3531.13501,0.03427
3529.07484,0.03448
3527.01466,0.03435
3524.95449,0.03443
3522.89432,0.03513
3520.83415,0.03613
3518.77398,0.03688
3516.71380,0.03735
3514.65363,0.03782
3512.59346,0.03837
3510.53329,0.03878
3508.47312,0.03894
3506.41294,0.03897
3504.35277,0.03897
3502.29260,0.03916
3500.23243,0.03987
3498.17225,0.04080
3496.11208,0.04149
3494.05191,0.04191
3491.99174,0.04224
3489.93157,0.04261
3487.87139,0.04304
3485.81122,0.04345
3483.75105,0.04384
3481.69088,0.04409
3479.63071,0.04420
3477.57053,0.04455
3475.51036,0.04513
3473.45019,0.04558
3471.39002,0.04590
3469.32984,0.04634
3467.26967,0.04684
3465.20950,0.04720
3463.14933,0.04745
3461.08916,0.04771
3459.02898,0.04800
3456.96881,0.04831
3454.90864,0.04876
3452.84847,0.04926
3450.78830,0.04960
3448.72812,0.04980
3446.66795,0.05002
3444.60778,0.05026
3442.54761,0.05038
3440.48744,0.05045
3438.42726,0.05068
3436.36709,0.05105
3434.30692,0.05148
3432.24675,0.05195
3430.18657,0.05239
3428.12640,0.05271
3426.06623,0.05278
3424.00606,0.05273
3421.94589,0.05289
3419.88571,0.05323
3417.82554,0.05369
3415.76537,0.05418
3413.70520,0.05461
3411.64503,0.05487
3409.58485,0.05494
3407.52468,0.05511
3405.46451,0.05535
3403.40434,0.05541
3401.34416,0.05533
3399.28399,0.05443
3397.22382,0.05458
3395.16365,0.05500
3393.10348,0.05535
3391.04330,0.05573
3388.98313,0.05619
3386.92296,0.05648
3384.86279,0.05665
3382.80262,0.05699
3380.74244,0.05735
3378.68227,0.05766
3376.62210,0.05792
3374.56193,0.05810
3372.50176,0.05817
3370.44158,0.05824
3368.38141,0.05830
3366.32124,0.05830
3364.26107,0.05845
3362.20089,0.05869
3360.14072,0.05885
3358.08055,0.05889
3356.02038,0.05882
3353.96021,0.05870
3351.90003,0.05870
3349.83986,0.05896
3347.77969,0.05934
3345.71952,0.05957
3343.65935,0.05968
3341.59917,0.05966
3339.53900,0.05948
3337.47883,0.05940
3335.41866,0.05953
3333.35849,0.05976
3331.29831,0.06009
3329.23814,0.06040
3327.17797,0.06051
3325.11780,0.06045
3323.05762,0.06050
3320.99745,0.06060
3318.93728,0.06058
3316.87711,0.06040
3314.81694,0.06015
3312.75676,0.05995
3310.69659,0.05995
3308.63642,0.06019
3306.57625,0.06052
3304.51608,0.06081
3302.45590,0.06110
3300.39573,0.06120
3298.33556,0.06096
3296.27539,0.06073
3294.21521,0.06075
3292.15504,0.06084
3290.09487,0.06087
3288.03470,0.06090
3285.97453,0.06094
3283.91435,0.06097
3281.85418,0.06106
3279.79401,0.06107
3277.73384,0.06096
3275.67367,0.06086
3273.61349,0.06087
3271.55332,0.06099
3269.49315,0.06112
3267.43298,0.06122
3265.37281,0.06128
3263.31263,0.06124
3261.25246,0.06105
3259.19229,0.06082
3257.13212,0.06070
3255.07194,0.06071
3253.01177,0.06079
3250.95160,0.06086
3248.89143,0.06087
3246.83126,0.06081
3244.77108,0.06073
3242.71091,0.06078
3240.65074,0.06077
3238.59057,0.06063
3236.53040,0.06049
3234.47022,0.06036
3232.41005,0.06020
3230.34988,0.06007
3228.28971,0.06008
3226.22954,0.06021
3224.16936,0.06025
3222.10919,0.06002
3220.04902,0.05967
3217.98885,0.05955
3215.92867,0.05965
3213.86850,0.05974
3211.80833,0.05968
3209.74816,0.05950
3207.68799,0.05937
3205.62781,0.05942
3203.56764,0.05942
3201.50747,0.05916
3199.44730,0.05889
3197.38713,0.05884
3195.32695,0.05886
3193.26678,0.05883
3191.20661,0.05876
3189.14644,0.05853
3187.08626,0.05809
3185.02609,0.05767
3182.96592,0.05758
3180.90575,0.05766
3178.84558,0.05759
3176.78540,0.05755
3174.72523,0.05765
3172.66506,0.05761
3170.60489,0.05735
3168.54472,0.05705
3166.48454,0.05684
3164.42437,0.05678
3162.36420,0.05678
3160.30403,0.05668
3158.24386,0.05650
3156.18368,0.05628
3154.12351,0.05596
3152.06334,0.05572
3150.00317,0.05570
3147.94299,0.05571
3145.88282,0.05553
3143.82265,0.05516
3141.76248,0.05488
3139.70231,0.05482
3137.64213,0.05481
3135.58196,0.05463
3133.52179,0.05433
3131.46162,0.05413
3129.40145,0.05400
3127.34127,0.05371
3125.28110,0.05330
3123.22093,0.05294
3121.16076,0.05273
3119.10058,0.05258
3117.04041,0.05237
3114.98024,0.05216
3112.92007,0.05204
3110.85990,0.05195
3108.79972,0.05179
3106.73955,0.05155
3104.67938,0.05121
3102.61921,0.05082
3100.55904,0.05062
3098.49886,0.05056
3096.43869,0.05045
3094.37852,0.05043
3092.31835,0.05048
3090.25818,0.05029
3088.19800,0.04997
3086.13783,0.04983
3084.07766,0.04965
3082.01749,0.04925
3079.95731,0.04892
3077.89714,0.04883
3075.83697,0.04883
3073.77680,0.04877
3071.71663,0.04860
3069.65645,0.04829
3067.59628,0.04792
3065.53611,0.04769
3063.47594,0.04764
3061.41577,0.04748
3059.35559,0.04714
3057.29542,0.04684
3055.23525,0.04666
3053.17508,0.04652
3051.11491,0.04627
3049.05473,0.04590
3046.99456,0.04557
3044.93439,0.04537
3042.87422,0.04520
3040.81404,0.04503
3038.75387,0.04487
3036.69370,0.04462
3034.63353,0.04426
3032.57336,0.04394
3030.51318,0.04365
3028.45301,0.04336
3026.39284,0.04309
3024.33267,0.04284
3022.27250,0.04264
3020.21232,0.04249
3018.15215,0.04224
3016.09198,0.04180
3014.03181,0.04133
3011.97163,0.04102
3009.91146,0.04091
3007.85129,0.04088
3005.79112,0.04075
3003.73095,0.04047
3001.67077,0.04020
2999.61060,0.04011
2997.55043,0.03992
2995.49026,0.03974
2993.43009,0.03960
2991.36991,0.03956
2989.30974,0.03947
2987.24957,0.03933
2985.18940,0.03932
2983.12923,0.03938
2981.06905,0.03940
2979.00888,0.03942
2976.94871,0.03946
2974.88854,0.03937
2972.82836,0.03916
2970.76819,0.03905
2968.70802,0.03905
2966.64785,0.03906
2964.58768,0.03906
2962.52750,0.03910
2960.46733,0.03912
2958.40716,0.03912
2956.34699,0.03914
2954.28682,0.03913
2952.22664,0.03916
2950.16647,0.03918
2948.10630,0.03907
2946.04613,0.03893
2943.98596,0.03882
2941.92578,0.03868
2939.86561,0.03846
2937.80544,0.03827
2935.74527,0.03828
2933.68509,0.03851
2931.62492,0.03871
2929.56475,0.03866
2927.50458,0.03840
2925.44441,0.03809
2923.38423,0.03789
2921.32406,0.03789
2919.26389,0.03798
2917.20372,0.03792
2915.14355,0.03767
2913.08337,0.03728
2911.02320,0.03686
2908.96303,0.03649
2906.90286,0.03617
2904.84268,0.03589
2902.78251,0.03568
2900.72234,0.03560
2898.66217,0.03550
2896.60200,0.03526
2894.54182,0.03497
2892.48165,0.03475
2890.42148,0.03467
2888.36131,0.03475
2886.30114,0.03482
2884.24096,0.03481
2882.18079,0.03473
2880.12062,0.03456
2878.06045,0.03430
2876.00028,0.03403
2873.94010,0.03380
2871.87993,0.03360
2869.81976,0.03333
2867.75959,0.03304
2865.69941,0.03282
2863.63924,0.03266
2861.57907,0.03256
2859.51890,0.03240
2857.45873,0.03211
2855.39855,0.03187
2853.33838,0.03170
2851.27821,0.03151
2849.21804,0.03137
2847.15787,0.03119
2845.09769,0.03086
2843.03752,0.03050
2840.97735,0.03022
2838.91718,0.02998
2836.85700,0.02979
2834.79683,0.02966
2832.73666,0.02937
2830.67649,0.02895
2828.61632,0.02867
2826.55614,0.02858
2824.49597,0.02847
2822.43580,0.02820
2820.37563,0.02789
2818.31546,0.02775
2816.25528,0.02774
2814.19511,0.02768
2812.13494,0.02751
2810.07477,0.02717
2808.01460,0.02678
2805.95442,0.02647
2803.89425,0.02622
2801.83408,0.02609
2799.77391,0.02603
2797.71373,0.02591
2795.65356,0.02571
2793.59339,0.02555
2791.53322,0.02549
2789.47305,0.02540
2787.41287,0.02517
2785.35270,0.02492
2783.29253,0.02475
2781.23236,0.02463
2779.17219,0.02454
2777.11201,0.02443
2775.05184,0.02422
2772.99167,0.02390
2770.93150,0.02362
2768.87133,0.02352
2766.81115,0.02352
2764.75098,0.02344
2762.69081,0.02324
2760.63064,0.02299
2758.57046,0.02285
2756.51029,0.02282
2754.45012,0.02274
2752.38995,0.02256
2750.32978,0.02234
2748.26960,0.02215
2746.20943,0.02202
2744.14926,0.02187
2742.08909,0.02172
2740.02892,0.02164
2737.96874,0.02156
2735.90857,0.02139
2733.84840,0.02118
2731.78823,0.02102
2729.72805,0.02089
2727.66788,0.02073
2725.60771,0.02053
2723.54754,0.02038
2721.48737,0.02030
2719.42719,0.02018
2717.36702,0.02004
2715.30685,0.01995
2713.24668,0.01985
2711.18651,0.01975
2709.12633,0.01962
2707.06616,0.01938
2705.00599,0.01919
2702.94582,0.01911
2700.88565,0.01900
2698.82547,0.01885
2696.76530,0.01873
2694.70513,0.01867
2692.64496,0.01861
2690.58478,0.01844
2688.52461,0.01816
2686.46444,0.01796
2684.40427,0.01785
2682.34410,0.01775
2680.28392,0.01768
2678.22375,0.01762
2676.16358,0.01747
2674.10341,0.01732
2672.04324,0.01721
2669.98306,0.01705
2667.92289,0.01687
2665.86272,0.01675
2663.80255,0.01671
2661.74238,0.01672
2659.68220,0.01675
2657.62203,0.01667
2655.56186,0.01646
2653.50169,0.01623
2651.44151,0.01607
2649.38134,0.01597
2647.32117,0.01583
2645.26100,0.01565
2643.20083,0.01551
2641.14065,0.01537
2639.08048,0.01515
2637.02031,0.01506
2634.96014,0.01516
2632.89997,0.01513
2630.83979,0.01494
2628.77962,0.01470
2626.71945,0.01449
2624.65928,0.01439
2622.59910,0.01428
2620.53893,0.01419
2618.47876,0.01428
2616.41859,0.01437
2614.35842,0.01423
2612.29824,0.01399
2610.23807,0.01373
2608.17790,0.01355
2606.11773,0.01354
2604.05756,0.01362
2601.99738,0.01360
2599.93721,0.01351
2597.87704,0.01341
2595.81687,0.01332
2593.75670,0.01335
2591.69652,0.01341
2589.63635,0.01327
2587.57618,0.01301
2585.51601,0.01287
2583.45583,0.01289
2581.39566,0.01298
2579.33549,0.01301
2577.27532,0.01284
2575.21515,0.01267
2573.15497,0.01269
2571.09480,0.01277
2569.03463,0.01289
2566.97446,0.01309
2564.91429,0.01313
2562.85411,0.01289
2560.79394,0.01270
2558.73377,0.01275
2556.67360,0.01288
2554.61342,0.01296
2552.55325,0.01300
2550.49308,0.01293
2548.43291,0.01284
2546.37274,0.01281
2544.31256,0.01278
2542.25239,0.01276
2540.19222,0.01267
2538.13205,0.01251
2536.07188,0.01246
2534.01170,0.01252
2531.95153,0.01263
2529.89136,0.01271
2527.83119,0.01271
2525.77102,0.01279
2523.71084,0.01282
2521.65067,0.01259
2519.59050,0.01248
2517.53033,0.01258
2515.47015,0.01253
2513.40998,0.01240
2511.34981,0.01250
2509.28964,0.01284
2507.22947,0.01316
2505.16929,0.01324
2503.10912,0.01306
2501.04895,0.01280
2498.98878,0.01260
2496.92861,0.01247
2494.86843,0.01248
2492.80826,0.01269
2490.74809,0.01298
2488.68792,0.01302
2486.62775,0.01283
2484.56757,0.01277
2482.50740,0.01297
2480.44723,0.01317
2478.38706,0.01318
2476.32688,0.01321
2474.26671,0.01341
2472.20654,0.01361
2470.14637,0.01372
2468.08620,0.01380
2466.02602,0.01387
2463.96585,0.01389
2461.90568,0.01386
2459.84551,0.01388
2457.78534,0.01385
2455.72516,0.01376
2453.66499,0.01372
2451.60482,0.01364
2449.54465,0.01358
2447.48447,0.01374
2445.42430,0.01387
2443.36413,0.01388
2441.30396,0.01403
2439.24379,0.01419
2437.18361,0.01402
2435.12344,0.01364
2433.06327,0.01336
2431.00310,0.01326
2428.94293,0.01346
2426.88275,0.01373
2424.82258,0.01372
2422.76241,0.01358
2420.70224,0.01351
2418.64207,0.01347
2416.58189,0.01343
2414.52172,0.01340
2412.46155,0.01323
2410.40138,0.01292
2408.34120,0.01276
2406.28103,0.01286
2404.22086,0.01300
2402.16069,0.01306
2400.10052,0.01301
2398.04034,0.01253
2395.98017,0.01258
2393.92000,0.01289
2391.85983,0.01302
2389.79966,0.01293
2387.73948,0.01278
2385.67931,0.01262
2383.61914,0.01229
2381.55897,0.01173
2379.49880,0.01128
2377.43862,0.01114
2375.37845,0.01107
2373.31828,0.01143
2371.25811,0.01199
2369.19793,0.01248
2367.13776,0.01335
2365.07759,0.01413
2363.01742,0.01365
2360.95725,0.01429
2358.89707,0.01420
2356.83690,0.01377
2354.77673,0.01303
2352.71656,0.01294
2350.65639,0.01494
2348.59621,0.01610
2346.53604,0.01233
2344.47587,0.01155
2342.41570,0.01299
2340.35552,0.01401
2338.29535,0.01402
2336.23518,0.01359
2334.17501,0.01338
2332.11484,0.01303
2330.05466,0.01289
2327.99449,0.01260
2325.93432,0.01277
2323.87415,0.01150
2321.81398,0.01033
2319.75380,0.00946
2317.69363,0.00986
2315.63346,0.00988
2313.57329,0.00940
2311.51312,0.00925
2309.45294,0.00923
2307.39277,0.00915
2305.33260,0.00930
2303.27243,0.00990
2301.21225,0.01033
2299.15208,0.01030
2297.09191,0.00994
2295.03174,0.00981
2292.97157,0.01015
2290.91139,0.01039
2288.85122,0.01025
2286.79105,0.00994
2284.73088,0.00972
2282.67071,0.00971
2280.61053,0.00982
2278.55036,0.00975
2276.49019,0.00943
2274.43002,0.00916
2272.36984,0.00879
2270.30967,0.00844
2268.24950,0.00860
2266.18933,0.00905
2264.12916,0.00918
2262.06898,0.00904
2260.00881,0.00891
2257.94864,0.00884
2255.88847,0.00867
2253.82830,0.00843
2251.76812,0.00819
2249.70795,0.00778
2247.64778,0.00765
2245.58761,0.00763
2243.52744,0.00728
2241.46726,0.00685
2239.40709,0.00705
2237.34692,0.00743
2235.28675,0.00732
2233.22657,0.00725
2231.16640,0.00770
2229.10623,0.00802
2227.04606,0.00786
2224.98589,0.00750
2222.92571,0.00699
2220.86554,0.00663
2218.80537,0.00668
2216.74520,0.00675
2214.68503,0.00670
2212.62485,0.00669
2210.56468,0.00642
2208.50451,0.00596
2206.44434,0.00588
2204.38417,0.00616
2202.32399,0.00627
2200.26382,0.00558
2198.20365,0.00470
2196.14348,0.00475
2194.08330,0.00491
2192.02313,0.00496
2189.96296,0.00552
2187.90279,0.00564
2185.84262,0.00488
2183.78244,0.00410
2181.72227,0.00370
2179.66210,0.00411
2177.60193,0.00495
2175.54176,0.00493
2173.48158,0.00427
2171.42141,0.00399
2169.36124,0.00392
2167.30107,0.00381
2165.24089,0.00376
2163.18072,0.00342
2161.12055,0.00242
2159.06038,0.00142
2157.00021,0.00119
2154.94003,0.00156
2152.87986,0.00257
2150.81969,0.00366
2148.75952,0.00362
2146.69935,0.00294
2144.63917,0.00281
2142.57900,0.00312
2140.51883,0.00322
2138.45866,0.00292
2136.39849,0.00239
2134.33831,0.00210
2132.27814,0.00219
2130.21797,0.00231
2128.15780,0.00259
2126.09762,0.00293
2124.03745,0.00299
2121.97728,0.00317
2119.91711,0.00355
2117.85694,0.00337
2115.79676,0.00271
2113.73659,0.00253
2111.67642,0.00289
2109.61625,0.00300
2107.55608,0.00270
2105.49590,0.00250
2103.43573,0.00257
2101.37556,0.00274
2099.31539,0.00364
2097.25521,0.00388
2095.19504,0.00327
2093.13487,0.00245
2091.07470,0.00208
2089.01453,0.00212
2086.95435,0.00227
2084.89418,0.00240
2082.83401,0.00291
2080.77384,0.00394
2078.71367,0.00456
2076.65349,0.00431
2074.59332,0.00393
2072.53315,0.00393
2070.47298,0.00396
2068.41281,0.00389
2066.35263,0.00361
2064.29246,0.00299
2062.23229,0.00238
2060.17212,0.00199
2058.11194,0.00165
2056.05177,0.00129
2053.99160,0.00150
2051.93143,0.00250
2049.87126,0.00382
2047.81108,0.00496
2045.75091,0.00538
2043.69074,0.00495
2041.63057,0.00441
2039.57040,0.00422
2037.51022,0.00413
2035.45005,0.00397
2033.38988,0.00350
2031.32971,0.00239
2029.26954,0.00128
2027.20936,0.00134
2025.14919,0.00202
2023.08902,0.00206
2021.02885,0.00180
2018.96867,0.00192
2016.90850,0.00218
2014.84833,0.00256
2012.78816,0.00300
2010.72799,0.00322
2008.66781,0.00313
2006.60764,0.00249
2004.54747,0.00134
2002.48730,0.00036
2000.42713,0.00000
1998.36695,0.00008
1996.30678,0.00025
1994.24661,0.00061
1992.18644,0.00098
1990.12626,0.00111
1988.06609,0.00093
1986.00592,0.00054
1983.94575,0.00072
1981.88558,0.00233
1979.82540,0.00450
1977.76523,0.00510
1975.70506,0.00407
1973.64489,0.00320
1971.58472,0.00279
1969.52454,0.00207
1967.46437,0.00148
1965.40420,0.00146
1963.34403,0.00144
1961.28386,0.00126
1959.22368,0.00102
1957.16351,0.00063
1955.10334,0.00029
1953.04317,0.00026
1950.98299,0.00042
1948.92282,0.00071
1946.86265,0.00114
1944.80248,0.00152
1942.74231,0.00161
1940.68213,0.00143
1938.62196,0.00137
1936.56179,0.00152
1934.50162,0.00164
1932.44145,0.00148
1930.38127,0.00125
1928.32110,0.00121
1926.26093,0.00125
1924.20076,0.00128
1922.14059,0.00117
1920.08041,0.00088
1918.02024,0.00086
1915.96007,0.00129
1913.89990,0.00189
1911.83972,0.00231
1909.77955,0.00234
1907.71938,0.00203
1905.65921,0.00166
1903.59904,0.00134
1901.53886,0.00114
1899.47869,0.00121
1897.41852,0.00148
1895.35835,0.00154
1893.29818,0.00135
1891.23800,0.00124
1889.17783,0.00115
1887.11766,0.00106
1885.05749,0.00115
1882.99731,0.00139
1880.93714,0.00165
1878.87697,0.00181
1876.81680,0.00185
1874.75663,0.00183
1872.69645,0.00193
1870.63628,0.00228
1868.57611,0.00263
1866.51594,0.00261
1864.45577,0.00238
1862.39559,0.00218
1860.33542,0.00205
1858.27525,0.00200
1856.21508,0.00204
1854.15491,0.00206
1852.09473,0.00198
1850.03456,0.00190
1847.97439,0.00179
1845.91422,0.00148
1843.85404,0.00112
1841.79387,0.00103
1839.73370,0.00119
1837.67353,0.00143
1835.61336,0.00152
1833.55318,0.00162
1831.49301,0.00208
1829.43284,0.00248
1827.37267,0.00250
1825.31250,0.00256
1823.25232,0.00284
1821.19215,0.00305
1819.13198,0.00280
1817.07181,0.00228
1815.01163,0.00196
1812.95146,0.00185
1810.89129,0.00168
1808.83112,0.00149
1806.77095,0.00151
1804.71077,0.00155
1802.65060,0.00150
1800.59043,0.00162
1798.53026,0.00174
1796.47009,0.00168
1794.40991,0.00174
1792.34974,0.00184
1790.28957,0.00173
1788.22940,0.00145
1786.16923,0.00112
1784.10905,0.00108
1782.04888,0.00145
1779.98871,0.00166
1777.92854,0.00162
1775.86836,0.00188
1773.80819,0.00248
1771.74802,0.00252
1769.68785,0.00175
1767.62768,0.00130
1765.56750,0.00169
1763.50733,0.00237
1761.44716,0.00279
1759.38699,0.00296
1757.32682,0.00320
1755.26664,0.00351
1753.20647,0.00383
1751.14630,0.00438
1749.08613,0.00508
1747.02596,0.00540
1744.96578,0.00547
1742.90561,0.00572
1740.84544,0.00600
1738.78527,0.00606
1736.72509,0.00609
1734.66492,0.00623
1732.60475,0.00618
1730.54458,0.00596
1728.48441,0.00563
1726.42423,0.00540
1724.36406,0.00531
1722.30389,0.00546
1720.24372,0.00612
1718.18355,0.00668
1716.12337,0.00598
1714.06320,0.00502
1712.00303,0.00457
1709.94286,0.00471
1707.88268,0.00520
1705.82251,0.00552
1703.76234,0.00568
1701.70217,0.00641
1699.64200,0.00739
1697.58182,0.00795
1695.52165,0.00840
1693.46148,0.00896
1691.40131,0.00964
1689.34114,0.01074
1687.28096,0.01233
1685.22079,0.01436
1683.16062,0.01566
1681.10045,0.01601
1679.04028,0.01656
1676.98010,0.01790
1674.91993,0.01970
1672.85976,0.02127
1670.79959,0.02257
1668.73941,0.02353
1666.67924,0.02407
1664.61907,0.02474
1662.55890,0.02556
1660.49873,0.02579
1658.43855,0.02576
1656.37838,0.02639
1654.31821,0.02775
1652.25804,0.02841
1650.19787,0.02827
1648.13769,0.02824
1646.07752,0.02828
1644.01735,0.02766
1641.95718,0.02707
1639.89701,0.02733
1637.83683,0.02821
1635.77666,0.02855
1633.71649,0.02787
1631.65632,0.02709
1629.59614,0.02670
1627.53597,0.02651
1625.47580,0.02633
1623.41563,0.02604
1621.35546,0.02553
1619.29528,0.02547
1617.23511,0.02593
1615.17494,0.02577
1613.11477,0.02501
1611.05460,0.02454
1608.99442,0.02448
1606.93425,0.02443
1604.87408,0.02430
1602.81391,0.02401
1600.75373,0.02354
1598.69356,0.02316
1596.63339,0.02295
1594.57322,0.02267
1592.51305,0.02212
1590.45287,0.02144
1588.39270,0.02079
1586.33253,0.02018
1584.27236,0.01950
1582.21219,0.01875
1580.15201,0.01829
1578.09184,0.01815
1576.03167,0.01752
1573.97150,0.01625
1571.91133,0.01542
1569.85115,0.01512
1567.79098,0.01444
1565.73081,0.01347
1563.67064,0.01301
1561.61046,0.01370
1559.55029,0.01444
1557.49012,0.01288
1555.42995,0.01085
1553.36978,0.00977
1551.30960,0.00934
1549.24943,0.00897
1547.18926,0.00868
1545.12909,0.00891
1543.06892,0.00962
1541.00874,0.01016
1538.94857,0.00933
1536.88840,0.00786
1534.82823,0.00707
1532.76805,0.00678
1530.70788,0.00624
1528.64771,0.00571
1526.58754,0.00520
1524.52737,0.00476
1522.46719,0.00453
1520.40702,0.00405
1518.34685,0.00351
1516.28668,0.00290
1514.22651,0.00198
1512.16633,0.00127
1510.10616,0.00145
1508.04599,0.00223
1505.98582,0.00230
1503.92565,0.00140
1501.86547,0.00063
1499.80530,0.00085
1497.74513,0.00142
1495.68496,0.00142
1493.62478,0.00130
1491.56461,0.00149
1489.50444,0.00149
1487.44427,0.00120
1485.38410,0.00110
1483.32392,0.00125
1481.26375,0.00149
1479.20358,0.00174
1477.14341,0.00207
1475.08324,0.00257
1473.02306,0.00311
1470.96289,0.00327
1468.90272,0.00319
1466.84255,0.00350
1464.78238,0.00393
1462.72220,0.00399
1460.66203,0.00438
1458.60186,0.00505
1456.54169,0.00490
1454.48151,0.00442
1452.42134,0.00431
1450.36117,0.00484
1448.30100,0.00569
1446.24083,0.00626
1444.18065,0.00646
1442.12048,0.00653
1440.06031,0.00665
1438.00014,0.00682
1435.93997,0.00688
1433.87979,0.00691
1431.81962,0.00719
1429.75945,0.00779
1427.69928,0.00833
1425.63910,0.00884
1423.57893,0.00940
1421.51876,0.00980
1419.45859,0.01008
1417.39842,0.01051
1415.33824,0.01118
1413.27807,0.01190
1411.21790,0.01246
1409.15773,0.01282
1407.09756,0.01311
1405.03738,0.01324
1402.97721,0.01315
1400.91704,0.01287
1398.85687,0.01236
1396.79670,0.01188
1394.73652,0.01171
1392.67635,0.01157
1390.61618,0.01138
1388.55601,0.01132
1386.49583,0.01133
1384.43566,0.01125
1382.37549,0.01111
1380.31532,0.01100
1378.25515,0.01108
1376.19497,0.01132
1374.13480,0.01128
1372.07463,0.01093
1370.01446,0.01071
1367.95429,0.01066
1365.89411,0.01054
1363.83394,0.01020
1361.77377,0.00971
1359.71360,0.00945
1357.65343,0.00946
1355.59325,0.00953
1353.53308,0.00951
1351.47291,0.00933
1349.41274,0.00895
1347.35256,0.00845
1345.29239,0.00802
1343.23222,0.00766
1341.17205,0.00714
1339.11188,0.00651
1337.05170,0.00627
1334.99153,0.00642
1332.93136,0.00649
1330.87119,0.00633
1328.81102,0.00611
1326.75084,0.00597
1324.69067,0.00587
1322.63050,0.00580
1320.57033,0.00575
1318.51015,0.00558
1316.44998,0.00534
1314.38981,0.00519
1312.32964,0.00515
1310.26947,0.00515
1308.20929,0.00512
1306.14912,0.00505
1304.08895,0.00503
1302.02878,0.00500
1299.96861,0.00490
1297.90843,0.00484
1295.84826,0.00491
1293.78809,0.00499
1291.72792,0.00490
1289.66775,0.00469
1287.60757,0.00456
1285.54740,0.00455
1283.48723,0.00461
1281.42706,0.00470
1279.36688,0.00480
1277.30671,0.00495
1275.24654,0.00510
1273.18637,0.00520
1271.12620,0.00521
1269.06602,0.00523
1267.00585,0.00530
1264.94568,0.00544
1262.88551,0.00567
1260.82534,0.00593
1258.76516,0.00615
1256.70499,0.00635
1254.64482,0.00642
1252.58465,0.00639
1250.52447,0.00632
1248.46430,0.00620
1246.40413,0.00604
1244.34396,0.00587
1242.28379,0.00575
1240.22361,0.00562
1238.16344,0.00543
1236.10327,0.00520
1234.04310,0.00495
1231.98293,0.00466
1229.92275,0.00429
1227.86258,0.00384
1225.80241,0.00341
1223.74224,0.00308
1221.68207,0.00270
1219.62189,0.00225
1217.56172,0.00182
1215.50155,0.00140
1213.44138,0.00095
1211.38120,0.00054
1209.32103,0.00024
1207.26086,0.00006
1205.20069,0.00000
1203.14052,0.00004
1201.08034,0.00015
1199.02017,0.00024
1196.96000,0.00056
1194.89983,0.00100
1192.83966,0.00147
1190.77948,0.00211
1188.71931,0.00297
1186.65914,0.00401
1184.59897,0.00529
1182.53880,0.00659
1180.47862,0.00781
1178.41845,0.00914
1176.35828,0.01042
1174.29811,0.01163
1172.23793,0.01302
1170.17776,0.01446
1168.11759,0.01572
1166.05742,0.01691
1163.99725,0.01815
1161.93707,0.01939
1159.87690,0.02060
1157.81673,0.02181
1155.75656,0.02303
1153.69639,0.02418
1151.63621,0.02536
1149.57604,0.02656
1147.51587,0.02766
1145.45570,0.02865
1143.39552,0.02955
1141.33535,0.03037
1139.27518,0.03113
1137.21501,0.03194
1135.15484,0.03286
1133.09466,0.03389
1131.03449,0.03503
1128.97432,0.03628
1126.91415,0.03762
1124.85398,0.03917
1122.79380,0.04104
1120.73363,0.04299
1118.67346,0.04484
1116.61329,0.04673
1114.55312,0.04874
1112.49294,0.05080
1110.43277,0.05292
1108.37260,0.05508
1106.31243,0.05725
1104.25225,0.05938
1102.19208,0.06141
1100.13191,0.06341
1098.07174,0.06538
1096.01157,0.06722
1093.95139,0.06891
1091.89122,0.07051
1089.83105,0.07214
1087.77088,0.07384
1085.71071,0.07550
1083.65053,0.07714
1081.59036,0.07871
1079.53019,0.08015
1077.47002,0.08158
1075.40985,0.08295
1073.34967,0.08406
1071.28950,0.08476
1069.22933,0.08513
1067.16916,0.08531
1065.10898,0.08526
1063.04881,0.08514
1060.98864,0.08494
1058.92847,0.08438
1056.86830,0.08351
1054.80812,0.08253
1052.74795,0.08144
1050.68778,0.08002
1048.62761,0.07818
1046.56744,0.07618
1044.50726,0.07416
1042.44709,0.07193
1040.38692,0.06937
1038.32675,0.06661
1036.26657,0.06358
1034.20640,0.06030
1032.14623,0.05719
1030.08606,0.05455
1028.02589,0.05224
1025.96571,0.05003
1023.90554,0.04781
1021.84537,0.04567
1019.78520,0.04375
1017.72503,0.04210
1015.66485,0.04082
1013.60468,0.03991
1011.54451,0.03928
1009.48434,0.03913
1007.42417,0.03946
1005.36399,0.03986
1003.30382,0.04037
1001.24365,0.04137
999.18348,0.04270
997.12330,0.04408
995.06313,0.04547
993.00296,0.04685
990.94279,0.04822
988.88262,0.04949
986.82244,0.05053
984.76227,0.05137
982.70210,0.05189
980.64193,0.05209
978.58176,0.05201
976.52158,0.05172
974.46141,0.05133
972.40124,0.05078
970.34107,0.04981
968.28089,0.04831
966.22072,0.04667
964.16055,0.04533
962.10038,0.04415
960.04021,0.04275
957.98003,0.04127
955.91986,0.03989
953.85969,0.03853
951.79952,0.03713
949.73935,0.03573
947.67917,0.03449
945.61900,0.03334
943.55883,0.03211
941.49866,0.03074
939.43849,0.02921
937.37831,0.02764
935.31814,0.02621
933.25797,0.02484
931.19780,0.02351
929.13762,0.02232
927.07745,0.02125
925.01728,0.02020
922.95711,0.01912
920.89694,0.01793
918.83676,0.01676
916.77659,0.01573
914.71642,0.01470
912.65625,0.01372
910.59608,0.01300
908.53590,0.01240
906.47573,0.01176
904.41556,0.01125
902.35539,0.01111
900.29522,0.01116
898.23504,0.01111
896.17487,0.01119
894.11470,0.01162
892.05453,0.01235
889.99435,0.01316
887.93418,0.01392
885.87401,0.01484
883.81384,0.01601
881.75367,0.01730
879.69349,0.01862
877.63332,0.02000
875.57315,0.02148
873.51298,0.02304
871.45281,0.02477
869.39263,0.02666
867.33246,0.02837
865.27229,0.02987
863.21212,0.03129
861.15194,0.03238
859.09177,0.03301
857.03160,0.03345
854.97143,0.03367
852.91126,0.03364
850.85108,0.03340
848.79091,0.03283
846.73074,0.03198
844.67057,0.03112
842.61040,0.03006
840.55022,0.02868
838.49005,0.02725
836.42988,0.02595
834.36971,0.02487
832.30954,0.02403
830.24936,0.02323
828.18919,0.02223
826.12902,0.02100
824.06885,0.01994
822.00867,0.01919
819.94850,0.01839
817.88833,0.01746
815.82816,0.01666
813.76799,0.01600
811.70781,0.01531
809.64764,0.01453
807.58747,0.01382
805.52730,0.01356
803.46713,0.01362
801.40695,0.01340
799.34678,0.01251
797.28661,0.01150
795.22644,0.01096
793.16627,0.01070
791.10609,0.01049
789.04592,0.01022
786.98575,0.00988
784.92558,0.00961
782.86540,0.00947
780.80523,0.00952
778.74506,0.00968
776.68489,0.00970
774.62472,0.00940
772.56454,0.00899
770.50437,0.00877
768.44420,0.00846
766.38403,0.00798
764.32386,0.00773
762.26368,0.00771
760.20351,0.00763
758.14334,0.00738
756.08317,0.00699
754.02299,0.00647
751.96282,0.00611
749.90265,0.00620
747.84248,0.00648
745.78231,0.00639
743.72213,0.00588
741.66196,0.00536
739.60179,0.00498
737.54162,0.00489
735.48145,0.00505
733.42127,0.00527
731.36110,0.00544
729.30093,0.00531
727.24076,0.00506
725.18059,0.00516
723.12041,0.00564
721.06024,0.00511
719.00007,0.00524
716.93990,0.00526
714.87972,0.00502
712.81955,0.00493
710.75938,0.00484
708.69921,0.00464
706.63904,0.00472
704.57886,0.00536
702.51869,0.00611
700.45852,0.00642
698.39835,0.00621
696.33818,0.00584
694.27800,0.00584
692.21783,0.00629
690.15766,0.00669
688.09749,0.00681
686.03731,0.00706
683.97714,0.00760
681.91697,0.00802
679.85680,0.00805
677.79663,0.00775
675.73645,0.00736
673.67628,0.00760
671.61611,0.00864
669.55594,0.00556
667.49577,0.00000
665.43559,0.00732
663.37542,0.00697
661.31525,0.00580
659.25508,0.00594
657.19491,0.00594
655.13473,0.00539
653.07456,0.00452
651.01439,0.00367
648.95422,0.00296
646.89404,0.00287
644.83387,0.00328
642.77370,0.00443
640.71353,0.00525
638.65336,0.00462
636.59318,0.00326
634.53301,0.00272
632.47284,0.00297
630.41267,0.00274
628.35250,0.00212
626.29232,0.00214
624.23215,0.00237
622.17198,0.00226
620.11181,0.00197
618.05164,0.00183
615.99146,0.00194
613.93129,0.00175
611.87112,0.00103
609.81095,0.00061
607.75077,0.00069
605.69060,0.00049
603.63043,0.00000
601.57026,-0.00044
599.51009,0.00000
