3996.73391,-0.00053
3994.67373,-0.00064
3992.61356,-0.00054
3990.55339,-0.00029
3988.49322,-0.00011
3986.43305,0.00004
3984.37287,0.00024
3982.31270,0.00037
3980.25253,0.00035
3978.19236,0.00029
3976.13219,0.00020
3974.07201,0.00012
3972.01184,0.00016
3969.95167,0.00034
3967.89150,0.00061
3965.83133,0.00084
3963.77115,0.00087
3961.71098,0.00067
3959.65081,0.00053
3957.59064,0.00056
3955.53046,0.00077
3953.47029,0.00099
3951.41012,0.00085
3949.34995,0.00026
3947.28978,0.00000
3945.22960,0.00045
3943.16943,0.00092
3941.10926,0.00103
3939.04909,0.00111
3936.98892,0.00118
3934.92874,0.00087
3932.86857,0.00044
3930.80840,0.00063
3928.74823,0.00124
3926.68805,0.00148
3924.62788,0.00111
3922.56771,0.00051
3920.50754,0.00024
3918.44737,0.00035
3916.38719,0.00088
3914.32702,0.00164
3912.26685,0.00204
3910.20668,0.00201
3908.14651,0.00187
3906.08633,0.00160
3904.02616,0.00089
3901.96599,0.00037
3899.90582,0.00079
3897.84565,0.00144
3895.78547,0.00157
3893.72530,0.00130
3891.66513,0.00097
3889.60496,0.00092
3887.54478,0.00109
3885.48461,0.00119
3883.42444,0.00099
3881.36427,0.00075
3879.30410,0.00089
3877.24392,0.00123
3875.18375,0.00127
3873.12358,0.00079
3871.06341,0.00015
3869.00324,0.00004
3866.94306,0.00029
3864.88289,0.00039
3862.82272,0.00039
3860.76255,0.00043
3858.70237,0.00034
3856.64220,0.00000
3854.58203,0.00022
3852.52186,0.00127
3850.46169,0.00212
3848.40151,0.00203
3846.34134,0.00178
3844.28117,0.00188
3842.22100,0.00203
3840.16083,0.00191
3838.10065,0.00168
3836.04048,0.00181
3833.98031,0.00224
3831.92014,0.00272
3829.85997,0.00317
3827.79979,0.00331
3825.73962,0.00306
3823.67945,0.00271
3821.61928,0.00262
3819.55910,0.00248
3817.49893,0.00241
3815.43876,0.00271
3813.37859,0.00319
3811.31842,0.00334
3809.25824,0.00332
3807.19807,0.00324
3805.13790,0.00315
3803.07773,0.00332
3801.01756,0.00360
3798.95738,0.00367
3796.89721,0.00383
3794.83704,0.00446
3792.77687,0.00513
3790.71670,0.00542
3788.65652,0.00549
3786.59635,0.00552
3784.53618,0.00562
3782.47601,0.00588
3780.41583,0.00622
3778.35566,0.00626
3776.29549,0.00613
3774.23532,0.00612
3772.17515,0.00603
3770.11497,0.00565
3768.05480,0.00525
3765.99463,0.00504
3763.93446,0.00483
3761.87429,0.00460
3759.81411,0.00429
3757.75394,0.00363
3755.69377,0.00299
3753.63360,0.00261
3751.57342,0.00185
3749.51325,0.00058
3747.45308,0.00000
3745.39291,0.00012
3743.33274,0.00122
3741.27256,0.00224
3739.21239,0.00232
3737.15222,0.00210
3735.09205,0.00178
3733.03188,0.00180
3730.97170,0.00251
3728.91153,0.00334
3726.85136,0.00370
3724.79119,0.00372
3722.73102,0.00389
3720.67084,0.00421
3718.61067,0.00411
3716.55050,0.00376
3714.49033,0.00389
3712.43015,0.00478
3710.36998,0.00558
3708.30981,0.00586
3706.24964,0.00598
3704.18947,0.00610
3702.12929,0.00623
3700.06912,0.00627
3698.00895,0.00627
3695.94878,0.00624
3693.88861,0.00623
3691.82843,0.00641
3689.76826,0.00645
3687.70809,0.00644
3685.64792,0.00667
3683.58775,0.00671
3681.52757,0.00650
3679.46740,0.00628
3677.40723,0.00625
3675.34706,0.00625
3673.28688,0.00602
3671.22671,0.00591
3669.16654,0.00625
3667.10637,0.00663
3665.04620,0.00679
3662.98602,0.00691
3660.92585,0.00699
3658.86568,0.00699
3656.80551,0.00715
3654.74534,0.00765
3652.68516,0.00836
3650.62499,0.00892
3648.56482,0.00893
3646.50465,0.00907
3644.44447,0.00910
3642.38430,0.00909
3640.32413,0.00938
3638.26396,0.00974
3636.20379,0.01004
3634.14361,0.01036
3632.08344,0.01081
3630.02327,0.01145
3627.96310,0.01211
3625.90293,0.01250
3623.84275,0.01258
3621.78258,0.01262
3619.72241,0.01270
3617.66224,0.01268
3615.60207,0.01251
3613.54189,0.01231
3611.48172,0.01233
3609.42155,0.01294
3607.36138,0.01402
3605.30120,0.01522
3603.24103,0.01637
3601.18086,0.01724
3599.12069,0.01762
3597.06052,0.01765
3595.00034,0.01770
3592.94017,0.01803
3590.88000,0.01855
3588.81983,0.01889
3586.75966,0.01912
3584.69948,0.01964
3582.63931,0.02033
3580.57914,0.02102
3578.51897,0.02168
3576.45879,0.02219
3574.39862,0.02247
3572.33845,0.02275
3570.27828,0.02315
3568.21811,0.02347
3566.15793,0.02377
3564.09776,0.02423
3562.03759,0.02466
3559.97742,0.02523
3557.91725,0.02594
3555.85707,0.02637
3553.79690,0.02657
3551.73673,0.02681
3549.67656,0.02691
3547.61639,0.02671
3545.55621,0.02682
3543.49604,0.02777
3541.43587,0.02907
3539.37570,0.03011
3537.31552,0.03072
3535.25535,0.03108
3533.19518,0.03143
3531.13501,0.03172
3529.07484,0.03183
3527.01466,0.03180
3524.95449,0.03193
3522.89432,0.03252
3520.83415,0.03340
3518.77398,0.03411
3516.71380,0.03459
3514.65363,0.03508
3512.59346,0.03557
3510.53329,0.03586
3508.47312,0.03601
3506.41294,0.03617
3504.35277,0.03633
3502.29260,0.03659
3500.23243,0.03725
3498.17225,0.03806
3496.11208,0.03856
3494.05191,0.03880
3491.99174,0.03910
3489.93157,0.03955
3487.87139,0.03998
3485.81122,0.04026
3483.75105,0.04054
3481.69088,0.04088
3479.63071,0.04121
3477.57053,0.04162
3475.51036,0.04207
3473.45019,0.04242
3471.39002,0.04270
3469.32984,0.04294
3467.26967,0.04320
3465.20950,0.04362
3463.14933,0.04401
3461.08916,0.04411
3459.02898,0.04420
3456.96881,0.04450
3454.90864,0.04496
3452.84847,0.04543
3450.78830,0.04567
3448.72812,0.04576
3446.66795,0.04594
3444.60778,0.04616
3442.54761,0.04639
3440.48744,0.04665
3438.42726,0.04690
3436.36709,0.04713
3434.30692,0.04743
3432.24675,0.04780
3430.18657,0.04816
3428.12640,0.04857
3426.06623,0.04890
3424.00606,0.04900
3421.94589,0.04900
3419.88571,0.04909
3417.82554,0.04942
3415.76537,0.04979
3413.70520,0.05006
3411.64503,0.05030
3409.58485,0.05055
3407.52468,0.05087
3405.46451,0.05124
3403.40434,0.05155
3401.34416,0.05158
3399.28399,0.05053
3397.22382,0.05058
3395.16365,0.05081
3393.10348,0.05091
3391.04330,0.05120
3388.98313,0.05169
3386.92296,0.05212
3384.86279,0.05248
3382.80262,0.05292
3380.74244,0.05334
3378.68227,0.05363
3376.62210,0.05373
3374.56193,0.05369
3372.50176,0.05360
3370.44158,0.05359
3368.38141,0.05360
3366.32124,0.05369
3364.26107,0.05393
3362.20089,0.05414
3360.14072,0.05427
3358.08055,0.05449
3356.02038,0.05471
3353.96021,0.05479
3351.90003,0.05477
3349.83986,0.05476
3347.77969,0.05480
3345.71952,0.05482
3343.65935,0.05482
3341.59917,0.05485
3339.53900,0.05479
3337.47883,0.05476
3335.41866,0.05496
3333.35849,0.05528
3331.29831,0.05550
3329.23814,0.05564
3327.17797,0.05576
3325.11780,0.05576
3323.05762,0.05572
3320.99745,0.05582
3318.93728,0.05595
3316.87711,0.05600
3314.81694,0.05587
3312.75676,0.05562
3310.69659,0.05549
3308.63642,0.05560
3306.57625,0.05594
3304.51608,0.05642
3302.45590,0.05674
3300.39573,0.05668
3298.33556,0.05646
3296.27539,0.05631
3294.21521,0.05612
3292.15504,0.05594
3290.09487,0.05597
3288.03470,0.05622
3285.97453,0.05644
3283.91435,0.05654
3281.85418,0.05654
3279.79401,0.05634
3277.73384,0.05607
3275.67367,0.05604
3273.61349,0.05626
3271.55332,0.05644
3269.49315,0.05645
3267.43298,0.05646
3265.37281,0.05651
3263.31263,0.05653
3261.25246,0.05646
3259.19229,0.05639
3257.13212,0.05638
3255.07194,0.05633
3253.01177,0.05617
3250.95160,0.05596
3248.89143,0.05583
3246.83126,0.05579
3244.77108,0.05580
3242.71091,0.05584
3240.65074,0.05584
3238.59057,0.05583
3236.53040,0.05581
3234.47022,0.05577
3232.41005,0.05576
3230.34988,0.05563
3228.28971,0.05542
3226.22954,0.05537
3224.16936,0.05537
3222.10919,0.05527
3220.04902,0.05520
3217.98885,0.05526
3215.92867,0.05520
3213.86850,0.05498
3211.80833,0.05486
3209.74816,0.05483
3207.68799,0.05483
3205.62781,0.05498
3203.56764,0.05506
3201.50747,0.05488
3199.44730,0.05467
3197.38713,0.05461
3195.32695,0.05461
3193.26678,0.05449
3191.20661,0.05417
3189.14644,0.05387
3187.08626,0.05378
3185.02609,0.05371
3182.96592,0.05361
3180.90575,0.05354
3178.84558,0.05341
3176.78540,0.05340
3174.72523,0.05348
3172.66506,0.05337
3170.60489,0.05319
3168.54472,0.05301
3166.48454,0.05274
3164.42437,0.05249
3162.36420,0.05237
3160.30403,0.05238
3158.24386,0.05239
3156.18368,0.05223
3154.12351,0.05195
3152.06334,0.05169
3150.00317,0.05155
3147.94299,0.05143
3145.88282,0.05127
3143.82265,0.05104
3141.76248,0.05082
3139.70231,0.05066
3137.64213,0.05045
3135.58196,0.05009
3133.52179,0.04967
3131.46162,0.04953
3129.40145,0.04965
3127.34127,0.04966
3125.28110,0.04945
3123.22093,0.04915
3121.16076,0.04882
3119.10058,0.04853
3117.04041,0.04846
3114.98024,0.04851
3112.92007,0.04851
3110.85990,0.04838
3108.79972,0.04813
3106.73955,0.04784
3104.67938,0.04756
3102.61921,0.04726
3100.55904,0.04706
3098.49886,0.04706
3096.43869,0.04711
3094.37852,0.04705
3092.31835,0.04696
3090.25818,0.04678
3088.19800,0.04649
3086.13783,0.04635
3084.07766,0.04631
3082.01749,0.04616
3079.95731,0.04596
3077.89714,0.04583
3075.83697,0.04568
3073.77680,0.04547
3071.71663,0.04533
3069.65645,0.04517
3067.59628,0.04486
3065.53611,0.04454
3063.47594,0.04444
3061.41577,0.04449
3059.35559,0.04450
3057.29542,0.04439
3055.23525,0.04422
3053.17508,0.04397
3051.11491,0.04359
3049.05473,0.04321
3046.99456,0.04302
3044.93439,0.04290
3042.87422,0.04276
3040.81404,0.04260
3038.75387,0.04237
3036.69370,0.04209
3034.63353,0.04181
3032.57336,0.04150
3030.51318,0.04119
3028.45301,0.04100
3026.39284,0.04088
3024.33267,0.04079
3022.27250,0.04066
3020.21232,0.04046
3018.15215,0.04016
3016.09198,0.03968
3014.03181,0.03918
3011.97163,0.03891
3009.91146,0.03887
3007.85129,0.03888
3005.79112,0.03879
3003.73095,0.03863
3001.67077,0.03854
2999.61060,0.03861
2997.55043,0.03842
2995.49026,0.03812
2993.43009,0.03790
2991.36991,0.03788
2989.30974,0.03788
2987.24957,0.03782
2985.18940,0.03779
2983.12923,0.03779
2981.06905,0.03791
2979.00888,0.03814
2976.94871,0.03815
2974.88854,0.03788
2972.82836,0.03768
2970.76819,0.03768
2968.70802,0.03779
2966.64785,0.03785
2964.58768,0.03788
2962.52750,0.03805
2960.46733,0.03824
2958.40716,0.03835
2956.34699,0.03843
2954.28682,0.03841
2952.22664,0.03829
2950.16647,0.03820
2948.10630,0.03815
2946.04613,0.03814
2943.98596,0.03810
2941.92578,0.03801
2939.86561,0.03799
2937.80544,0.03795
2935.74527,0.03785
2933.68509,0.03782
2931.62492,0.03790
2929.56475,0.03791
2927.50458,0.03772
2925.44441,0.03746
2923.38423,0.03730
2921.32406,0.03740
2919.26389,0.03752
2917.20372,0.03748
2915.14355,0.03738
2913.08337,0.03724
2911.02320,0.03703
2908.96303,0.03682
2906.90286,0.03658
2904.84268,0.03632
2902.78251,0.03610
2900.72234,0.03591
2898.66217,0.03581
2896.60200,0.03580
2894.54182,0.03577
2892.48165,0.03570
2890.42148,0.03559
2888.36131,0.03552
2886.30114,0.03551
2884.24096,0.03552
2882.18079,0.03551
2880.12062,0.03535
2878.06045,0.03508
2876.00028,0.03488
2873.94010,0.03470
2871.87993,0.03452
2869.81976,0.03439
2867.75959,0.03428
2865.69941,0.03409
2863.63924,0.03380
2861.57907,0.03355
2859.51890,0.03337
2857.45873,0.03319
2855.39855,0.03308
2853.33838,0.03300
2851.27821,0.03287
2849.21804,0.03267
2847.15787,0.03245
2845.09769,0.03220
2843.03752,0.03191
2840.97735,0.03172
2838.91718,0.03155
2836.85700,0.03132
2834.79683,0.03108
2832.73666,0.03086
2830.67649,0.03062
2828.61632,0.03040
2826.55614,0.03025
2824.49597,0.03013
2822.43580,0.02996
2820.37563,0.02971
2818.31546,0.02950
2816.25528,0.02943
2814.19511,0.02939
2812.13494,0.02933
2810.07477,0.02915
2808.01460,0.02881
2805.95442,0.02849
2803.89425,0.02828
2801.83408,0.02816
2799.77391,0.02812
2797.71373,0.02806
2795.65356,0.02789
2793.59339,0.02774
2791.53322,0.02768
2789.47305,0.02762
2787.41287,0.02745
2785.35270,0.02725
2783.29253,0.02715
2781.23236,0.02708
2779.17219,0.02699
2777.11201,0.02688
2775.05184,0.02664
2772.99167,0.02634
2770.93150,0.02614
2768.87133,0.02607
2766.81115,0.02599
2764.75098,0.02580
2762.69081,0.02560
2760.63064,0.02537
2758.57046,0.02516
2756.51029,0.02509
2754.45012,0.02510
2752.38995,0.02511
2750.32978,0.02508
2748.26960,0.02492
2746.20943,0.02468
2744.14926,0.02447
2742.08909,0.02437
2740.02892,0.02433
2737.96874,0.02423
2735.90857,0.02400
2733.84840,0.02374
2731.78823,0.02363
2729.72805,0.02364
2727.66788,0.02357
2725.60771,0.02341
2723.54754,0.02321
2721.48737,0.02302
2719.42719,0.02290
2717.36702,0.02289
2715.30685,0.02285
2713.24668,0.02268
2711.18651,0.02256
2709.12633,0.02252
2707.06616,0.02239
2705.00599,0.02219
2702.94582,0.02205
2700.88565,0.02199
2698.82547,0.02190
2696.76530,0.02176
2694.70513,0.02169
2692.64496,0.02166
2690.58478,0.02160
2688.52461,0.02148
2686.46444,0.02128
2684.40427,0.02114
2682.34410,0.02107
2680.28392,0.02100
2678.22375,0.02091
2676.16358,0.02076
2674.10341,0.02057
2672.04324,0.02048
2669.98306,0.02034
2667.92289,0.02022
2665.86272,0.02023
2663.80255,0.02021
2661.74238,0.02017
2659.68220,0.02018
2657.62203,0.02013
2655.56186,0.01997
2653.50169,0.01981
2651.44151,0.01974
2649.38134,0.01968
2647.32117,0.01949
2645.26100,0.01929
2643.20083,0.01917
2641.14065,0.01910
2639.08048,0.01903
2637.02031,0.01897
2634.96014,0.01894
2632.89997,0.01885
2630.83979,0.01871
2628.77962,0.01862
2626.71945,0.01852
2624.65928,0.01845
2622.59910,0.01837
2620.53893,0.01819
2618.47876,0.01810
2616.41859,0.01823
2614.35842,0.01835
2612.29824,0.01834
2610.23807,0.01822
2608.17790,0.01810
2606.11773,0.01802
2604.05756,0.01789
2601.99738,0.01786
2599.93721,0.01788
2597.87704,0.01771
2595.81687,0.01752
2593.75670,0.01748
2591.69652,0.01746
2589.63635,0.01738
2587.57618,0.01734
2585.51601,0.01738
2583.45583,0.01747
2581.39566,0.01758
2579.33549,0.01771
2577.27532,0.01766
2575.21515,0.01742
2573.15497,0.01724
2571.09480,0.01705
2569.03463,0.01698
2566.97446,0.01728
2564.91429,0.01746
2562.85411,0.01721
2560.79394,0.01707
2558.73377,0.01720
2556.67360,0.01719
2554.61342,0.01700
2552.55325,0.01692
2550.49308,0.01699
2548.43291,0.01715
2546.37274,0.01718
2544.31256,0.01699
2542.25239,0.01684
2540.19222,0.01672
2538.13205,0.01668
2536.07188,0.01691
2534.01170,0.01715
2531.95153,0.01721
2529.89136,0.01732
2527.83119,0.01755
2525.77102,0.01773
2523.71084,0.01773
2521.65067,0.01754
2519.59050,0.01733
2517.53033,0.01725
2515.47015,0.01721
2513.40998,0.01726
2511.34981,0.01747
2509.28964,0.01760
2507.22947,0.01757
2505.16929,0.01747
2503.10912,0.01740
2501.04895,0.01737
2498.98878,0.01721
2496.92861,0.01713
2494.86843,0.01750
2492.80826,0.01793
2490.74809,0.01797
2488.68792,0.01771
2486.62775,0.01756
2484.56757,0.01761
2482.50740,0.01773
2480.44723,0.01798
2478.38706,0.01827
2476.32688,0.01837
2474.26671,0.01837
2472.20654,0.01852
2470.14637,0.01865
2468.08620,0.01841
2466.02602,0.01822
2463.96585,0.01851
2461.90568,0.01891
2459.84551,0.01906
2457.78534,0.01880
2455.72516,0.01843
2453.66499,0.01831
2451.60482,0.01827
2449.54465,0.01840
2447.48447,0.01871
2445.42430,0.01886
2443.36413,0.01874
2441.30396,0.01861
2439.24379,0.01869
2437.18361,0.01875
2435.12344,0.01868
2433.06327,0.01863
2431.00310,0.01852
2428.94293,0.01858
2426.88275,0.01887
2424.82258,0.01890
2422.76241,0.01865
2420.70224,0.01851
2418.64207,0.01845
2416.58189,0.01833
2414.52172,0.01821
2412.46155,0.01802
2410.40138,0.01781
2408.34120,0.01785
2406.28103,0.01808
2404.22086,0.01819
2402.16069,0.01817
2400.10052,0.01810
2398.04034,0.01769
2395.98017,0.01776
2393.92000,0.01792
2391.85983,0.01794
2389.79966,0.01799
2387.73948,0.01809
2385.67931,0.01810
2383.61914,0.01779
2381.55897,0.01727
2379.49880,0.01679
2377.43862,0.01637
2375.37845,0.01583
2373.31828,0.01582
2371.25811,0.01655
2369.19793,0.01766
2367.13776,0.01930
2365.07759,0.02072
2363.01742,0.02039
2360.95725,0.02006
2358.89707,0.01944
2356.83690,0.01944
2354.77673,0.01983
2352.71656,0.02018
2350.65639,0.02114
2348.59621,0.02137
2346.53604,0.01853
2344.47587,0.01795
2342.41570,0.01914
2340.35552,0.02028
2338.29535,0.02060
2336.23518,0.02016
2334.17501,0.01968
2332.11484,0.01916
2330.05466,0.01876
2327.99449,0.01817
2325.93432,0.01790
2323.87415,0.01676
2321.81398,0.01556
2319.75380,0.01454
2317.69363,0.01467
2315.63346,0.01479
2313.57329,0.01451
2311.51312,0.01443
2309.45294,0.01465
2307.39277,0.01495
2305.33260,0.01516
2303.27243,0.01526
2301.21225,0.01518
2299.15208,0.01517
2297.09191,0.01521
2295.03174,0.01531
2292.97157,0.01546
2290.91139,0.01548
2288.85122,0.01530
2286.79105,0.01504
2284.73088,0.01483
2282.67071,0.01465
2280.61053,0.01449
2278.55036,0.01444
2276.49019,0.01454
2274.43002,0.01456
2272.36984,0.01409
2270.30967,0.01334
2268.24950,0.01310
2266.18933,0.01353
2264.12916,0.01397
2262.06898,0.01408
2260.00881,0.01390
2257.94864,0.01357
2255.88847,0.01335
2253.82830,0.01343
2251.76812,0.01360
2249.70795,0.01356
2247.64778,0.01360
2245.58761,0.01349
2243.52744,0.01298
2241.46726,0.01231
2239.40709,0.01228
2237.34692,0.01260
2235.28675,0.01243
2233.22657,0.01229
2231.16640,0.01277
2229.10623,0.01316
2227.04606,0.01269
2224.98589,0.01186
2222.92571,0.01151
2220.86554,0.01167
2218.80537,0.01204
2216.74520,0.01215
2214.68503,0.01180
2212.62485,0.01170
2210.56468,0.01201
2208.50451,0.01176
2206.44434,0.01095
2204.38417,0.01079
2202.32399,0.01122
2200.26382,0.01095
2198.20365,0.01036
2196.14348,0.01047
2194.08330,0.01023
2192.02313,0.00973
2189.96296,0.01026
2187.90279,0.01074
2185.84262,0.01010
2183.78244,0.00923
2181.72227,0.00877
2179.66210,0.00909
2177.60193,0.01036
2175.54176,0.01106
2173.48158,0.01051
2171.42141,0.01005
2169.36124,0.00996
2167.30107,0.00972
2165.24089,0.00941
2163.18072,0.00862
2161.12055,0.00681
2159.06038,0.00531
2157.00021,0.00546
2154.94003,0.00663
2152.87986,0.00787
2150.81969,0.00861
2148.75952,0.00865
2146.69935,0.00823
2144.63917,0.00796
2142.57900,0.00825
2140.51883,0.00856
2138.45866,0.00823
2136.39849,0.00782
2134.33831,0.00797
2132.27814,0.00820
2130.21797,0.00810
2128.15780,0.00797
2126.09762,0.00807
2124.03745,0.00833
2121.97728,0.00876
2119.91711,0.00912
2117.85694,0.00892
2115.79676,0.00844
2113.73659,0.00825
2111.67642,0.00811
2109.61625,0.00780
2107.55608,0.00768
2105.49590,0.00765
2103.43573,0.00757
2101.37556,0.00787
2099.31539,0.00891
2097.25521,0.00901
2095.19504,0.00839
2093.13487,0.00754
2091.07470,0.00692
2089.01453,0.00689
2086.95435,0.00725
2084.89418,0.00773
2082.83401,0.00827
2080.77384,0.00905
2078.71367,0.00966
2076.65349,0.00967
2074.59332,0.00947
2072.53315,0.00935
2070.47298,0.00923
2068.41281,0.00928
2066.35263,0.00920
2064.29246,0.00870
2062.23229,0.00813
2060.17212,0.00771
2058.11194,0.00753
2056.05177,0.00755
2053.99160,0.00771
2051.93143,0.00806
2049.87126,0.00863
2047.81108,0.00905
2045.75091,0.00924
2043.69074,0.00940
2041.63057,0.00948
2039.57040,0.00954
2037.51022,0.00952
2035.45005,0.00902
2033.38988,0.00802
2031.32971,0.00698
2029.26954,0.00654
2027.20936,0.00702
2025.14919,0.00768
2023.08902,0.00790
2021.02885,0.00804
2018.96867,0.00807
2016.90850,0.00792
2014.84833,0.00808
2012.78816,0.00831
2010.72799,0.00867
2008.66781,0.00940
2006.60764,0.00939
2004.54747,0.00817
2002.48730,0.00701
2000.42713,0.00655
1998.36695,0.00636
1996.30678,0.00621
1994.24661,0.00604
1992.18644,0.00579
1990.12626,0.00560
1988.06609,0.00583
1986.00592,0.00628
1983.94575,0.00659
1981.88558,0.00776
1979.82540,0.01018
1977.76523,0.01166
1975.70506,0.01070
1973.64489,0.00924
1971.58472,0.00893
1969.52454,0.00861
1967.46437,0.00783
1965.40420,0.00755
1963.34403,0.00750
1961.28386,0.00704
1959.22368,0.00627
1957.16351,0.00575
1955.10334,0.00594
1953.04317,0.00660
1950.98299,0.00712
1948.92282,0.00753
1946.86265,0.00807
1944.80248,0.00853
1942.74231,0.00874
1940.68213,0.00841
1938.62196,0.00779
1936.56179,0.00758
1934.50162,0.00782
1932.44145,0.00782
1930.38127,0.00752
1928.32110,0.00746
1926.26093,0.00744
1924.20076,0.00708
1922.14059,0.00681
1920.08041,0.00707
1918.02024,0.00752
1915.96007,0.00781
1913.89990,0.00809
1911.83972,0.00817
1909.77955,0.00788
1907.71938,0.00758
1905.65921,0.00768
1903.59904,0.00805
1901.53886,0.00824
1899.47869,0.00818
1897.41852,0.00811
1895.35835,0.00802
1893.29818,0.00800
1891.23800,0.00823
1889.17783,0.00844
1887.11766,0.00847
1885.05749,0.00852
1882.99731,0.00851
1880.93714,0.00841
1878.87697,0.00843
1876.81680,0.00857
1874.75663,0.00871
1872.69645,0.00879
1870.63628,0.00904
1868.57611,0.00940
1866.51594,0.00942
1864.45577,0.00912
1862.39559,0.00887
1860.33542,0.00876
1858.27525,0.00885
1856.21508,0.00905
1854.15491,0.00907
1852.09473,0.00903
1850.03456,0.00908
1847.97439,0.00905
1845.91422,0.00874
1843.85404,0.00848
1841.79387,0.00857
1839.73370,0.00878
1837.67353,0.00889
1835.61336,0.00878
1833.55318,0.00880
1831.49301,0.00926
1829.43284,0.00966
1827.37267,0.00963
1825.31250,0.00963
1823.25232,0.00992
1821.19215,0.01017
1819.13198,0.01002
1817.07181,0.00965
1815.01163,0.00943
1812.95146,0.00936
1810.89129,0.00921
1808.83112,0.00908
1806.77095,0.00911
1804.71077,0.00902
1802.65060,0.00879
1800.59043,0.00894
1798.53026,0.00930
1796.47009,0.00942
1794.40991,0.00946
1792.34974,0.00950
1790.28957,0.00935
1788.22940,0.00903
1786.16923,0.00876
1784.10905,0.00886
1782.04888,0.00928
1779.98871,0.00939
1777.92854,0.00914
1775.86836,0.00930
1773.80819,0.01000
1771.74802,0.01019
1769.68785,0.00946
1767.62768,0.00899
1765.56750,0.00931
1763.50733,0.00992
1761.44716,0.01024
1759.38699,0.01030
1757.32682,0.01050
1755.26664,0.01077
1753.20647,0.01096
1751.14630,0.01127
1749.08613,0.01177
1747.02596,0.01209
1744.96578,0.01223
1742.90561,0.01249
1740.84544,0.01277
1738.78527,0.01280
1736.72509,0.01271
1734.66492,0.01269
1732.60475,0.01268
1730.54458,0.01271
1728.48441,0.01261
1726.42423,0.01242
1724.36406,0.01222
1722.30389,0.01221
1720.24372,0.01264
1718.18355,0.01294
1716.12337,0.01225
1714.06320,0.01149
1712.00303,0.01112
1709.94286,0.01116
1707.88268,0.01148
1705.82251,0.01165
1703.76234,0.01164
1701.70217,0.01204
1699.64200,0.01261
1697.58182,0.01302
1695.52165,0.01358
1693.46148,0.01417
1691.40131,0.01468
1689.34114,0.01556
1687.28096,0.01703
1685.22079,0.01906
1683.16062,0.02036
1681.10045,0.02060
1679.04028,0.02097
1676.98010,0.02206
1674.91993,0.02366
1672.85976,0.02530
1670.79959,0.02680
1668.73941,0.02774
1666.67924,0.02806
1664.61907,0.02857
1662.55890,0.02929
1660.49873,0.02946
1658.43855,0.02934
1656.37838,0.02973
1654.31821,0.03071
1652.25804,0.03123
1650.19787,0.03130
1648.13769,0.03140
1646.07752,0.03155
1644.01735,0.03118
1641.95718,0.03074
1639.89701,0.03094
1637.83683,0.03170
1635.77666,0.03203
1633.71649,0.03146
1631.65632,0.03080
1629.59614,0.03062
1627.53597,0.03073
1625.47580,0.03076
1623.41563,0.03049
1621.35546,0.02993
1619.29528,0.02989
1617.23511,0.03043
1615.17494,0.03033
1613.11477,0.02954
1611.05460,0.02901
1608.99442,0.02891
1606.93425,0.02884
1604.87408,0.02880
1602.81391,0.02875
1600.75373,0.02857
1598.69356,0.02834
1596.63339,0.02812
1594.57322,0.02774
1592.51305,0.02715
1590.45287,0.02653
1588.39270,0.02600
1586.33253,0.02548
1584.27236,0.02484
1582.21219,0.02413
1580.15201,0.02376
1578.09184,0.02371
1576.03167,0.02316
1573.97150,0.02186
1571.91133,0.02090
1569.85115,0.02046
1567.79098,0.01976
1565.73081,0.01888
1563.67064,0.01855
1561.61046,0.01926
1559.55029,0.01987
1557.49012,0.01835
1555.42995,0.01655
1553.36978,0.01553
1551.30960,0.01506
1549.24943,0.01476
1547.18926,0.01460
1545.12909,0.01478
1543.06892,0.01537
1541.00874,0.01602
1538.94857,0.01539
1536.88840,0.01389
1534.82823,0.01298
1532.76805,0.01267
1530.70788,0.01219
1528.64771,0.01167
1526.58754,0.01116
1524.52737,0.01071
1522.46719,0.01045
1520.40702,0.00996
1518.34685,0.00950
1516.28668,0.00902
1514.22651,0.00823
1512.16633,0.00762
1510.10616,0.00776
1508.04599,0.00844
1505.98582,0.00862
1503.92565,0.00797
1501.86547,0.00726
1499.80530,0.00735
1497.74513,0.00781
1495.68496,0.00789
1493.62478,0.00794
1491.56461,0.00827
1489.50444,0.00838
1487.44427,0.00816
1485.38410,0.00800
1483.32392,0.00805
1481.26375,0.00826
1479.20358,0.00854
1477.14341,0.00891
1475.08324,0.00936
1473.02306,0.00978
1470.96289,0.00990
1468.90272,0.00984
1466.84255,0.01013
1464.78238,0.01053
1462.72220,0.01062
1460.66203,0.01096
1458.60186,0.01149
1456.54169,0.01139
1454.48151,0.01115
1452.42134,0.01118
1450.36117,0.01177
1448.30100,0.01263
1446.24083,0.01317
1444.18065,0.01331
1442.12048,0.01332
1440.06031,0.01337
1438.00014,0.01343
1435.93997,0.01347
1433.87979,0.01363
1431.81962,0.01403
1429.75945,0.01462
1427.69928,0.01511
1425.63910,0.01561
1423.57893,0.01618
1421.51876,0.01667
1419.45859,0.01704
1417.39842,0.01748
1415.33824,0.01814
1413.27807,0.01888
1411.21790,0.01946
1409.15773,0.01986
1407.09756,0.02014
1405.03738,0.02033
1402.97721,0.02038
1400.91704,0.02022
1398.85687,0.01979
1396.79670,0.01938
1394.73652,0.01932
1392.67635,0.01926
1390.61618,0.01909
1388.55601,0.01904
1386.49583,0.01907
1384.43566,0.01901
1382.37549,0.01885
1380.31532,0.01873
1378.25515,0.01886
1376.19497,0.01918
1374.13480,0.01925
1372.07463,0.01904
1370.01446,0.01893
1367.95429,0.01890
1365.89411,0.01873
1363.83394,0.01838
1361.77377,0.01806
1359.71360,0.01815
1357.65343,0.01844
1355.59325,0.01853
1353.53308,0.01833
1351.47291,0.01804
1349.41274,0.01770
1347.35256,0.01729
1345.29239,0.01675
1343.23222,0.01607
1341.17205,0.01527
1339.11188,0.01451
1337.05170,0.01427
1334.99153,0.01444
1332.93136,0.01449
1330.87119,0.01428
1328.81102,0.01408
1326.75084,0.01394
1324.69067,0.01369
1322.63050,0.01333
1320.57033,0.01305
1318.51015,0.01281
1316.44998,0.01258
1314.38981,0.01243
1312.32964,0.01236
1310.26947,0.01233
1308.20929,0.01227
1306.14912,0.01215
1304.08895,0.01208
1302.02878,0.01204
1299.96861,0.01196
1297.90843,0.01187
1295.84826,0.01185
1293.78809,0.01181
1291.72792,0.01160
1289.66775,0.01128
1287.60757,0.01105
1285.54740,0.01099
1283.48723,0.01105
1281.42706,0.01116
1279.36688,0.01123
1277.30671,0.01131
1275.24654,0.01137
1273.18637,0.01135
1271.12620,0.01129
1269.06602,0.01124
1267.00585,0.01119
1264.94568,0.01130
1262.88551,0.01162
1260.82534,0.01189
1258.76516,0.01198
1256.70499,0.01202
1254.64482,0.01203
1252.58465,0.01204
1250.52447,0.01204
1248.46430,0.01197
1246.40413,0.01174
1244.34396,0.01147
1242.28379,0.01133
1240.22361,0.01125
1238.16344,0.01115
1236.10327,0.01104
1234.04310,0.01082
1231.98293,0.01053
1229.92275,0.01027
1227.86258,0.00990
1225.80241,0.00942
1223.74224,0.00900
1221.68207,0.00863
1219.62189,0.00823
1217.56172,0.00781
1215.50155,0.00741
1213.44138,0.00708
1211.38120,0.00683
1209.32103,0.00660
1207.26086,0.00645
1205.20069,0.00653
1203.14052,0.00675
1201.08034,0.00690
1199.02017,0.00703
1196.96000,0.00762
1194.89983,0.00847
1192.83966,0.00929
1190.77948,0.01014
1188.71931,0.01120
1186.65914,0.01247
1184.59897,0.01393
1182.53880,0.01551
1180.47862,0.01717
1178.41845,0.01885
1176.35828,0.02031
1174.29811,0.02163
1172.23793,0.02313
1170.17776,0.02475
1168.11759,0.02617
1166.05742,0.02744
1163.99725,0.02883
1161.93707,0.03039
1159.87690,0.03189
1157.81673,0.03326
1155.75656,0.03459
1153.69639,0.03594
1151.63621,0.03734
1149.57604,0.03868
1147.51587,0.03982
1145.45570,0.04077
1143.39552,0.04161
1141.33535,0.04231
1139.27518,0.04281
1137.21501,0.04317
1135.15484,0.04358
1133.09466,0.04405
1131.03449,0.04449
1128.97432,0.04505
1126.91415,0.04584
1124.85398,0.04681
1122.79380,0.04801
1120.73363,0.04944
1118.67346,0.05097
1116.61329,0.05250
1114.55312,0.05410
1112.49294,0.05587
1110.43277,0.05778
1108.37260,0.05969
1106.31243,0.06161
1104.25225,0.06354
1102.19208,0.06541
1100.13191,0.06731
1098.07174,0.06923
1096.01157,0.07106
1093.95139,0.07269
1091.89122,0.07422
1089.83105,0.07586
1087.77088,0.07770
1085.71071,0.07949
1083.65053,0.08103
1081.59036,0.08244
1079.53019,0.08395
1077.47002,0.08549
1075.40985,0.08682
1073.34967,0.08785
1071.28950,0.08853
1069.22933,0.08883
1067.16916,0.08876
1065.10898,0.08843
1063.04881,0.08803
1060.98864,0.08754
1058.92847,0.08680
1056.86830,0.08584
1054.80812,0.08469
1052.74795,0.08337
1050.68778,0.08191
1048.62761,0.08025
1046.56744,0.07836
1044.50726,0.07636
1042.44709,0.07423
1040.38692,0.07194
1038.32675,0.06942
1036.26657,0.06652
1034.20640,0.06338
1032.14623,0.06058
1030.08606,0.05836
1028.02589,0.05631
1025.96571,0.05419
1023.90554,0.05211
1021.84537,0.05015
1019.78520,0.04836
1017.72503,0.04688
1015.66485,0.04574
1013.60468,0.04474
1011.54451,0.04391
1009.48434,0.04347
1007.42417,0.04333
1005.36399,0.04339
1003.30382,0.04383
1001.24365,0.04466
999.18348,0.04569
997.12330,0.04684
995.06313,0.04788
993.00296,0.04871
990.94279,0.04962
988.88262,0.05063
986.82244,0.05138
984.76227,0.05185
982.70210,0.05216
980.64193,0.05233
978.58176,0.05226
976.52158,0.05194
974.46141,0.05163
972.40124,0.05127
970.34107,0.05059
968.28089,0.04965
966.22072,0.04869
964.16055,0.04779
962.10038,0.04689
960.04021,0.04595
957.98003,0.04517
955.91986,0.04452
953.85969,0.04375
951.79952,0.04287
949.73935,0.04215
947.67917,0.04164
945.61900,0.04108
943.55883,0.04025
941.49866,0.03927
939.43849,0.03818
937.37831,0.03710
935.31814,0.03608
933.25797,0.03496
931.19780,0.03378
929.13762,0.03265
927.07745,0.03143
925.01728,0.03011
922.95711,0.02882
920.89694,0.02750
918.83676,0.02613
916.77659,0.02479
914.71642,0.02343
912.65625,0.02215
910.59608,0.02116
908.53590,0.02031
906.47573,0.01947
904.41556,0.01878
902.35539,0.01845
900.29522,0.01832
898.23504,0.01812
896.17487,0.01803
894.11470,0.01814
892.05453,0.01842
889.99435,0.01889
887.93418,0.01936
885.87401,0.01988
883.81384,0.02070
881.75367,0.02188
879.69349,0.02326
877.63332,0.02484
875.57315,0.02672
873.51298,0.02877
871.45281,0.03087
869.39263,0.03303
867.33246,0.03519
865.27229,0.03721
863.21212,0.03919
861.15194,0.04105
859.09177,0.04250
857.03160,0.04344
854.97143,0.04396
852.91126,0.04412
850.85108,0.04384
848.79091,0.04310
846.73074,0.04218
844.67057,0.04112
842.61040,0.03976
840.55022,0.03823
838.49005,0.03667
836.42988,0.03512
834.36971,0.03370
832.30954,0.03237
830.24936,0.03116
828.18919,0.03018
826.12902,0.02922
824.06885,0.02810
822.00867,0.02701
819.94850,0.02606
817.88833,0.02506
815.82816,0.02412
813.76799,0.02335
811.70781,0.02239
809.64764,0.02129
807.58747,0.02062
805.52730,0.02039
803.46713,0.02023
801.40695,0.01991
799.34678,0.01921
797.28661,0.01820
795.22644,0.01755
793.16627,0.01751
791.10609,0.01737
789.04592,0.01672
786.98575,0.01605
784.92558,0.01580
782.86540,0.01581
780.80523,0.01564
778.74506,0.01526
776.68489,0.01503
774.62472,0.01484
772.56454,0.01445
770.50437,0.01417
768.44420,0.01396
766.38403,0.01351
764.32386,0.01296
762.26368,0.01258
760.20351,0.01238
758.14334,0.01213
756.08317,0.01183
754.02299,0.01157
751.96282,0.01133
749.90265,0.01108
747.84248,0.01073
745.78231,0.01042
743.72213,0.01037
741.66196,0.01008
739.60179,0.00939
737.54162,0.00909
735.48145,0.00938
733.42127,0.00966
731.36110,0.00949
729.30093,0.00916
727.24076,0.00917
725.18059,0.00946
723.12041,0.00986
721.06024,0.00928
719.00007,0.00930
716.93990,0.00947
714.87972,0.00934
712.81955,0.00911
710.75938,0.00894
708.69921,0.00886
706.63904,0.00880
704.57886,0.00891
702.51869,0.00914
700.45852,0.00904
698.39835,0.00842
696.33818,0.00784
694.27800,0.00803
692.21783,0.00879
690.15766,0.00933
688.09749,0.00934
686.03731,0.00930
683.97714,0.00961
681.91697,0.00999
679.85680,0.00967
677.79663,0.00876
675.73645,0.00838
673.67628,0.00894
671.61611,0.00954
669.55594,0.00687
667.49577,0.00335
665.43559,0.00864
663.37542,0.00863
661.31525,0.00774
659.25508,0.00767
657.19491,0.00737
655.13473,0.00668
653.07456,0.00620
651.01439,0.00604
648.95422,0.00589
646.89404,0.00577
644.83387,0.00558
642.77370,0.00580
640.71353,0.00611
638.65336,0.00587
636.59318,0.00518
634.53301,0.00441
632.47284,0.00373
630.41267,0.00318
628.35250,0.00304
626.29232,0.00359
624.23215,0.00439
622.17198,0.00468
620.11181,0.00409
618.05164,0.00266
615.99146,0.00095
613.93129,0.00005
611.87112,0.00002
609.81095,0.00023
607.75077,0.00044
605.69060,0.00060
603.63043,0.00078
601.57026,0.00039
599.51009,0.00000
