3996.73391,0.00015
3994.67373,0.00045
3992.61356,0.00090
3990.55339,0.00101
3988.49322,0.00081
3986.43305,0.00062
3984.37287,0.00034
3982.31270,0.00000
3980.25253,0.00008
3978.19236,0.00048
3976.13219,0.00046
3974.07201,0.00006
3972.01184,0.00011
3969.95167,0.00070
3967.89150,0.00110
3965.83133,0.00104
3963.77115,0.00073
3961.71098,0.00042
3959.65081,0.00038
3957.59064,0.00061
3955.53046,0.00074
3953.47029,0.00059
3951.41012,0.00053
3949.34995,0.00088
3947.28978,0.00136
3945.22960,0.00151
3943.16943,0.00122
3941.10926,0.00079
3939.04909,0.00068
3936.98892,0.00096
3934.92874,0.00119
3932.86857,0.00137
3930.80840,0.00162
3928.74823,0.00172
3926.68805,0.00161
3924.62788,0.00145
3922.56771,0.00127
3920.50754,0.00104
3918.44737,0.00099
3916.38719,0.00123
3914.32702,0.00147
3912.26685,0.00161
3910.20668,0.00160
3908.14651,0.00135
3906.08633,0.00116
3904.02616,0.00135
3901.96599,0.00157
3899.90582,0.00143
3897.84565,0.00119
3895.78547,0.00113
3893.72530,0.00123
3891.66513,0.00125
3889.60496,0.00108
3887.54478,0.00104
3885.48461,0.00131
3883.42444,0.00158
3881.36427,0.00163
3879.30410,0.00132
3877.24392,0.00065
3875.18375,0.00011
3873.12358,0.00006
3871.06341,0.00052
3869.00324,0.00137
3866.94306,0.00208
3864.88289,0.00241
3862.82272,0.00249
3860.76255,0.00219
3858.70237,0.00160
3856.64220,0.00139
3854.58203,0.00204
3852.52186,0.00267
3850.46169,0.00222
3848.40151,0.00158
3846.34134,0.00131
3844.28117,0.00122
3842.22100,0.00119
3840.16083,0.00123
3838.10065,0.00133
3836.04048,0.00160
3833.98031,0.00182
3831.92014,0.00177
3829.85997,0.00151
3827.79979,0.00140
3825.73962,0.00166
3823.67945,0.00205
3821.61928,0.00204
3819.55910,0.00157
3817.49893,0.00113
3815.43876,0.00094
3813.37859,0.00090
3811.31842,0.00095
3809.25824,0.00105
3807.19807,0.00120
3805.13790,0.00149
3803.07773,0.00190
3801.01756,0.00209
3798.95738,0.00173
3796.89721,0.00118
3794.83704,0.00088
3792.77687,0.00101
3790.71670,0.00137
3788.65652,0.00159
3786.59635,0.00151
3784.53618,0.00127
3782.47601,0.00103
3780.41583,0.00086
3778.35566,0.00088
3776.29549,0.00117
3774.23532,0.00157
3772.17515,0.00186
3770.11497,0.00180
3768.05480,0.00147
3765.99463,0.00125
3763.93446,0.00112
3761.87429,0.00105
3759.81411,0.00116
3757.75394,0.00138
3755.69377,0.00181
3753.63360,0.00231
3751.57342,0.00233
3749.51325,0.00210
3747.45308,0.00249
3745.39291,0.00343
3743.33274,0.00392
3741.27256,0.00363
3739.21239,0.00345
3737.15222,0.00379
3735.09205,0.00397
3733.03188,0.00359
3730.97170,0.00330
3728.91153,0.00339
3726.85136,0.00332
3724.79119,0.00296
3722.73102,0.00284
3720.67084,0.00290
3718.61067,0.00280
3716.55050,0.00242
3714.49033,0.00209
3712.43015,0.00236
3710.36998,0.00281
3708.30981,0.00283
3706.24964,0.00276
3704.18947,0.00293
3702.12929,0.00288
3700.06912,0.00254
3698.00895,0.00243
3695.94878,0.00264
3693.88861,0.00275
3691.82843,0.00251
3689.76826,0.00242
3687.70809,0.00254
3685.64792,0.00244
3683.58775,0.00224
3681.52757,0.00238
3679.46740,0.00264
3677.40723,0.00266
3675.34706,0.00296
3673.28688,0.00388
3671.22671,0.00448
3669.16654,0.00432
3667.10637,0.00391
3665.04620,0.00382
3662.98602,0.00402
3660.92585,0.00420
3658.86568,0.00425
3656.80551,0.00434
3654.74534,0.00448
3652.68516,0.00440
3650.62499,0.00448
3648.56482,0.00534
3646.50465,0.00628
3644.44447,0.00650
3642.38430,0.00609
3640.32413,0.00576
3638.26396,0.00617
3636.20379,0.00701
3634.14361,0.00756
3632.08344,0.00791
3630.02327,0.00844
3627.96310,0.00913
3625.90293,0.00974
3623.84275,0.00981
3621.78258,0.00939
3619.72241,0.00922
3617.66224,0.00954
3615.60207,0.00989
3613.54189,0.01010
3611.48172,0.01056
3609.42155,0.01131
3607.36138,0.01206
3605.30120,0.01255
3603.24103,0.01269
3601.18086,0.01280
3599.12069,0.01294
3597.06052,0.01310
3595.00034,0.01348
3592.94017,0.01409
3590.88000,0.01447
3588.81983,0.01466
3586.75966,0.01477
3584.69948,0.01485
3582.63931,0.01506
3580.57914,0.01542
3578.51897,0.01579
3576.45879,0.01607
3574.39862,0.01619
3572.33845,0.01609
3570.27828,0.01614
3568.21811,0.01671
3566.15793,0.01752
3564.09776,0.01795
3562.03759,0.01819
3559.97742,0.01861
3557.91725,0.01903
3555.85707,0.01915
3553.79690,0.01920
3551.73673,0.01938
3549.67656,0.01968
3547.61639,0.02020
3545.55621,0.02084
3543.49604,0.02105
3541.43587,0.02077
3539.37570,0.02060
3537.31552,0.02091
3535.25535,0.02146
3533.19518,0.02186
3531.13501,0.02216
3529.07484,0.02251
3527.01466,0.02283
3524.95449,0.02302
3522.89432,0.02312
3520.83415,0.02314
3518.77398,0.02313
3516.71380,0.02345
3514.65363,0.02436
3512.59346,0.02543
3510.53329,0.02598
3508.47312,0.02598
3506.41294,0.02589
3504.35277,0.02592
3502.29260,0.02609
3500.23243,0.02626
3498.17225,0.02629
3496.11208,0.02647
3494.05191,0.02691
3491.99174,0.02714
3489.93157,0.02731
3487.87139,0.02792
3485.81122,0.02853
3483.75105,0.02874
3481.69088,0.02886
3479.63071,0.02918
3477.57053,0.02961
3475.51036,0.02977
3473.45019,0.02967
3471.39002,0.02979
3469.32984,0.03026
3467.26967,0.03072
3465.20950,0.03125
3463.14933,0.03196
3461.08916,0.03213
3459.02898,0.03164
3456.96881,0.03149
3454.90864,0.03192
3452.84847,0.03245
3450.78830,0.03282
3448.72812,0.03286
3446.66795,0.03266
3444.60778,0.03272
3442.54761,0.03315
3440.48744,0.03363
3438.42726,0.03397
3436.36709,0.03418
3434.30692,0.03429
3432.24675,0.03424
3430.18657,0.03427
3428.12640,0.03462
3426.06623,0.03492
3424.00606,0.03500
3421.94589,0.03525
3419.88571,0.03588
3417.82554,0.03628
3415.76537,0.03589
3413.70520,0.03520
3411.64503,0.03518
3409.58485,0.03592
3407.52468,0.03659
3405.46451,0.03693
3403.40434,0.03707
3401.34416,0.03681
3399.28399,0.03659
3397.22382,0.03665
3395.16365,0.03693
3393.10348,0.03734
3391.04330,0.03765
3388.98313,0.03762
3386.92296,0.03764
3384.86279,0.03803
3382.80262,0.03838
3380.74244,0.03835
3378.68227,0.03835
3376.62210,0.03866
3374.56193,0.03893
3372.50176,0.03884
3370.44158,0.03864
3368.38141,0.03865
3366.32124,0.03897
3364.26107,0.03932
3362.20089,0.03934
3360.14072,0.03897
3358.08055,0.03854
3356.02038,0.03852
3353.96021,0.03882
3351.90003,0.03917
3349.83986,0.03965
3347.77969,0.03998
3345.71952,0.03989
3343.65935,0.03984
3341.59917,0.04003
3339.53900,0.04009
3337.47883,0.03981
3335.41866,0.03932
3333.35849,0.03903
3331.29831,0.03923
3329.23814,0.03970
3327.17797,0.04007
3325.11780,0.04021
3323.05762,0.04029
3320.99745,0.04042
3318.93728,0.04049
3316.87711,0.04039
3314.81694,0.04032
3312.75676,0.04042
3310.69659,0.04060
3308.63642,0.04068
3306.57625,0.04059
3304.51608,0.04043
3302.45590,0.04038
3300.39573,0.04049
3298.33556,0.04062
3296.27539,0.04067
3294.21521,0.04069
3292.15504,0.04076
3290.09487,0.04083
3288.03470,0.04092
3285.97453,0.04101
3283.91435,0.04100
3281.85418,0.04109
3279.79401,0.04136
3277.73384,0.04147
3275.67367,0.04140
3273.61349,0.04132
3271.55332,0.04107
3269.49315,0.04075
3267.43298,0.04059
3265.37281,0.04051
3263.31263,0.04053
3261.25246,0.04067
3259.19229,0.04088
3257.13212,0.04133
3255.07194,0.04173
3253.01177,0.04154
3250.95160,0.04129
3248.89143,0.04157
3246.83126,0.04192
3244.77108,0.04191
3242.71091,0.04178
3240.65074,0.04174
3238.59057,0.04178
3236.53040,0.04173
3234.47022,0.04156
3232.41005,0.04153
3230.34988,0.04170
3228.28971,0.04162
3226.22954,0.04136
3224.16936,0.04145
3222.10919,0.04165
3220.04902,0.04152
3217.98885,0.04135
3215.92867,0.04144
3213.86850,0.04150
3211.80833,0.04132
3209.74816,0.04135
3207.68799,0.04163
3205.62781,0.04173
3203.56764,0.04169
3201.50747,0.04167
3199.44730,0.04150
3197.38713,0.04097
3195.32695,0.04046
3193.26678,0.04032
3191.20661,0.04028
3189.14644,0.04006
3187.08626,0.03987
3185.02609,0.04011
3182.96592,0.04058
3180.90575,0.04071
3178.84558,0.04044
3176.78540,0.04025
3174.72523,0.04017
3172.66506,0.04015
3170.60489,0.04018
3168.54472,0.04008
3166.48454,0.03987
3164.42437,0.03970
3162.36420,0.03967
3160.30403,0.03978
3158.24386,0.03978
3156.18368,0.03948
3154.12351,0.03911
3152.06334,0.03907
3150.00317,0.03934
3147.94299,0.03954
3145.88282,0.03937
3143.82265,0.03893
3141.76248,0.03859
3139.70231,0.03853
3137.64213,0.03851
3135.58196,0.03847
3133.52179,0.03856
3131.46162,0.03860
3129.40145,0.03840
3127.34127,0.03828
3125.28110,0.03835
3123.22093,0.03819
3121.16076,0.03790
3119.10058,0.03781
3117.04041,0.03773
3114.98024,0.03762
3112.92007,0.03749
3110.85990,0.03719
3108.79972,0.03694
3106.73955,0.03692
3104.67938,0.03678
3102.61921,0.03643
3100.55904,0.03626
3098.49886,0.03631
3096.43869,0.03610
3094.37852,0.03569
3092.31835,0.03557
3090.25818,0.03555
3088.19800,0.03540
3086.13783,0.03536
3084.07766,0.03557
3082.01749,0.03585
3079.95731,0.03587
3077.89714,0.03565
3075.83697,0.03539
3073.77680,0.03516
3071.71663,0.03494
3069.65645,0.03465
3067.59628,0.03434
3065.53611,0.03414
3063.47594,0.03392
3061.41577,0.03378
3059.35559,0.03374
3057.29542,0.03349
3055.23525,0.03323
3053.17508,0.03332
3051.11491,0.03348
3049.05473,0.03342
3046.99456,0.03321
3044.93439,0.03289
3042.87422,0.03251
3040.81404,0.03220
3038.75387,0.03212
3036.69370,0.03229
3034.63353,0.03243
3032.57336,0.03221
3030.51318,0.03183
3028.45301,0.03161
3026.39284,0.03152
3024.33267,0.03145
3022.27250,0.03136
3020.21232,0.03113
3018.15215,0.03088
3016.09198,0.03091
3014.03181,0.03106
3011.97163,0.03105
3009.91146,0.03096
3007.85129,0.03078
3005.79112,0.03037
3003.73095,0.02991
3001.67077,0.02970
2999.61060,0.02961
2997.55043,0.02935
2995.49026,0.02914
2993.43009,0.02920
2991.36991,0.02931
2989.30974,0.02925
2987.24957,0.02917
2985.18940,0.02917
2983.12923,0.02900
2981.06905,0.02887
2979.00888,0.02906
2976.94871,0.02904
2974.88854,0.02869
2972.82836,0.02842
2970.76819,0.02829
2968.70802,0.02819
2966.64785,0.02823
2964.58768,0.02837
2962.52750,0.02833
2960.46733,0.02814
2958.40716,0.02802
2956.34699,0.02786
2954.28682,0.02761
2952.22664,0.02746
2950.16647,0.02728
2948.10630,0.02705
2946.04613,0.02703
2943.98596,0.02702
2941.92578,0.02679
2939.86561,0.02662
2937.80544,0.02660
2935.74527,0.02648
2933.68509,0.02623
2931.62492,0.02616
2929.56475,0.02624
2927.50458,0.02625
2925.44441,0.02629
2923.38423,0.02635
2921.32406,0.02607
2919.26389,0.02560
2917.20372,0.02552
2915.14355,0.02572
2913.08337,0.02575
2911.02320,0.02549
2908.96303,0.02503
2906.90286,0.02453
2904.84268,0.02423
2902.78251,0.02413
2900.72234,0.02385
2898.66217,0.02344
2896.60200,0.02335
2894.54182,0.02345
2892.48165,0.02330
2890.42148,0.02304
2888.36131,0.02296
2886.30114,0.02301
2884.24096,0.02303
2882.18079,0.02295
2880.12062,0.02277
2878.06045,0.02258
2876.00028,0.02240
2873.94010,0.02215
2871.87993,0.02202
2869.81976,0.02205
2867.75959,0.02202
2865.69941,0.02186
2863.63924,0.02150
2861.57907,0.02109
2859.51890,0.02085
2857.45873,0.02079
2855.39855,0.02072
2853.33838,0.02046
2851.27821,0.02024
2849.21804,0.02022
2847.15787,0.02010
2845.09769,0.01993
2843.03752,0.01987
2840.97735,0.01985
2838.91718,0.01972
2836.85700,0.01946
2834.79683,0.01918
2832.73666,0.01881
2830.67649,0.01838
2828.61632,0.01802
2826.55614,0.01793
2824.49597,0.01802
2822.43580,0.01792
2820.37563,0.01766
2818.31546,0.01762
2816.25528,0.01776
2814.19511,0.01780
2812.13494,0.01775
2810.07477,0.01763
2808.01460,0.01748
2805.95442,0.01737
2803.89425,0.01727
2801.83408,0.01707
2799.77391,0.01679
2797.71373,0.01656
2795.65356,0.01642
2793.59339,0.01637
2791.53322,0.01635
2789.47305,0.01616
2787.41287,0.01593
2785.35270,0.01603
2783.29253,0.01622
2781.23236,0.01611
2779.17219,0.01585
2777.11201,0.01565
2775.05184,0.01559
2772.99167,0.01560
2770.93150,0.01551
2768.87133,0.01537
2766.81115,0.01535
2764.75098,0.01541
2762.69081,0.01530
2760.63064,0.01509
2758.57046,0.01509
2756.51029,0.01516
2754.45012,0.01501
2752.38995,0.01482
2750.32978,0.01478
2748.26960,0.01472
2746.20943,0.01453
2744.14926,0.01430
2742.08909,0.01414
2740.02892,0.01404
2737.96874,0.01393
2735.90857,0.01380
2733.84840,0.01357
2731.78823,0.01347
2729.72805,0.01364
2727.66788,0.01378
2725.60771,0.01360
2723.54754,0.01322
2721.48737,0.01291
2719.42719,0.01275
2717.36702,0.01266
2715.30685,0.01263
2713.24668,0.01273
2711.18651,0.01285
2709.12633,0.01280
2707.06616,0.01265
2705.00599,0.01261
2702.94582,0.01254
2700.88565,0.01228
2698.82547,0.01225
2696.76530,0.01245
2694.70513,0.01226
2692.64496,0.01181
2690.58478,0.01171
2688.52461,0.01182
2686.46444,0.01177
2684.40427,0.01156
2682.34410,0.01148
2680.28392,0.01157
2678.22375,0.01164
2676.16358,0.01167
2674.10341,0.01158
2672.04324,0.01131
2669.98306,0.01105
2667.92289,0.01094
2665.86272,0.01095
2663.80255,0.01104
2661.74238,0.01107
2659.68220,0.01088
2657.62203,0.01075
2655.56186,0.01082
2653.50169,0.01079
2651.44151,0.01075
2649.38134,0.01077
2647.32117,0.01058
2645.26100,0.01037
2643.20083,0.01038
2641.14065,0.01032
2639.08048,0.01016
2637.02031,0.01007
2634.96014,0.01007
2632.89997,0.01008
2630.83979,0.00993
2628.77962,0.00976
2626.71945,0.00982
2624.65928,0.00986
2622.59910,0.00962
2620.53893,0.00931
2618.47876,0.00905
2616.41859,0.00893
2614.35842,0.00899
2612.29824,0.00917
2610.23807,0.00944
2608.17790,0.00945
2606.11773,0.00916
2604.05756,0.00894
2601.99738,0.00899
2599.93721,0.00918
2597.87704,0.00903
2595.81687,0.00870
2593.75670,0.00880
2591.69652,0.00905
2589.63635,0.00892
2587.57618,0.00856
2585.51601,0.00847
2583.45583,0.00864
2581.39566,0.00868
2579.33549,0.00870
2577.27532,0.00890
2575.21515,0.00897
2573.15497,0.00885
2571.09480,0.00874
2569.03463,0.00863
2566.97446,0.00864
2564.91429,0.00864
2562.85411,0.00861
2560.79394,0.00864
2558.73377,0.00851
2556.67360,0.00839
2554.61342,0.00851
2552.55325,0.00842
2550.49308,0.00799
2548.43291,0.00781
2546.37274,0.00814
2544.31256,0.00864
2542.25239,0.00890
2540.19222,0.00882
2538.13205,0.00852
2536.07188,0.00829
2534.01170,0.00816
2531.95153,0.00794
2529.89136,0.00786
2527.83119,0.00775
2525.77102,0.00755
2523.71084,0.00769
2521.65067,0.00793
2519.59050,0.00792
2517.53033,0.00783
2515.47015,0.00786
2513.40998,0.00819
2511.34981,0.00880
2509.28964,0.00918
2507.22947,0.00916
2505.16929,0.00890
2503.10912,0.00834
2501.04895,0.00811
2498.98878,0.00867
2496.92861,0.00906
2494.86843,0.00868
2492.80826,0.00825
2490.74809,0.00849
2488.68792,0.00902
2486.62775,0.00919
2484.56757,0.00914
2482.50740,0.00912
2480.44723,0.00903
2478.38706,0.00888
2476.32688,0.00887
2474.26671,0.00911
2472.20654,0.00929
2470.14637,0.00906
2468.08620,0.00895
2466.02602,0.00926
2463.96585,0.00955
2461.90568,0.00972
2459.84551,0.00978
2457.78534,0.00956
2455.72516,0.00923
2453.66499,0.00881
2451.60482,0.00852
2449.54465,0.00872
2447.48447,0.00900
2445.42430,0.00890
2443.36413,0.00880
2441.30396,0.00884
2439.24379,0.00885
2437.18361,0.00889
2435.12344,0.00881
2433.06327,0.00862
2431.00310,0.00875
2428.94293,0.00903
2426.88275,0.00907
2424.82258,0.00921
2422.76241,0.00948
2420.70224,0.00925
2418.64207,0.00856
2416.58189,0.00826
2414.52172,0.00868
2412.46155,0.00932
2410.40138,0.00948
2408.34120,0.00926
2406.28103,0.00904
2404.22086,0.00884
2402.16069,0.00871
2400.10052,0.00884
2398.04034,0.00818
2395.98017,0.00847
2393.92000,0.00897
2391.85983,0.00917
2389.79966,0.00949
2387.73948,0.01013
2385.67931,0.01060
2383.61914,0.01073
2381.55897,0.01099
2379.49880,0.01194
2377.43862,0.01318
2375.37845,0.01425
2373.31828,0.01436
2371.25811,0.01448
2369.19793,0.01606
2367.13776,0.01669
2365.07759,0.01501
2363.01742,0.01344
2360.95725,0.01016
2358.89707,0.01169
2356.83690,0.01746
2354.77673,0.02215
2352.71656,0.02198
2350.65639,0.01599
2348.59621,0.01316
2346.53604,0.01954
2344.47587,0.02010
2342.41570,0.01854
2340.35552,0.01810
2338.29535,0.01664
2336.23518,0.01568
2334.17501,0.01556
2332.11484,0.01648
2330.05466,0.01702
2327.99449,0.01725
2325.93432,0.01599
2323.87415,0.01534
2321.81398,0.01467
2319.75380,0.01517
2317.69363,0.01454
2315.63346,0.01377
2313.57329,0.01313
2311.51312,0.01283
2309.45294,0.01308
2307.39277,0.01317
2305.33260,0.01282
2303.27243,0.01203
2301.21225,0.01134
2299.15208,0.01094
2297.09191,0.01124
2295.03174,0.01203
2292.97157,0.01241
2290.91139,0.01212
2288.85122,0.01152
2286.79105,0.01084
2284.73088,0.01017
2282.67071,0.00959
2280.61053,0.00909
2278.55036,0.00850
2276.49019,0.00796
2274.43002,0.00786
2272.36984,0.00834
2270.30967,0.00910
2268.24950,0.00963
2266.18933,0.00961
2264.12916,0.00923
2262.06898,0.00861
2260.00881,0.00801
2257.94864,0.00802
2255.88847,0.00904
2253.82830,0.01014
2251.76812,0.00978
2249.70795,0.00825
2247.64778,0.00808
2245.58761,0.00893
2243.52744,0.00917
2241.46726,0.00861
2239.40709,0.00801
2237.34692,0.00782
2235.28675,0.00775
2233.22657,0.00746
2231.16640,0.00730
2229.10623,0.00710
2227.04606,0.00653
2224.98589,0.00618
2222.92571,0.00613
2220.86554,0.00619
2218.80537,0.00648
2216.74520,0.00664
2214.68503,0.00653
2212.62485,0.00606
2210.56468,0.00517
2208.50451,0.00526
2206.44434,0.00677
2204.38417,0.00772
2202.32399,0.00720
2200.26382,0.00613
2198.20365,0.00551
2196.14348,0.00591
2194.08330,0.00696
2192.02313,0.00798
2189.96296,0.00886
2187.90279,0.00925
2185.84262,0.00860
2183.78244,0.00720
2181.72227,0.00597
2179.66210,0.00494
2177.60193,0.00411
2175.54176,0.00409
2173.48158,0.00505
2171.42141,0.00651
2169.36124,0.00721
2167.30107,0.00668
2165.24089,0.00607
2163.18072,0.00507
2161.12055,0.00325
2159.06038,0.00166
2157.00021,0.00020
2154.94003,0.00000
2152.87986,0.00169
2150.81969,0.00335
2148.75952,0.00385
2146.69935,0.00353
2144.63917,0.00357
2142.57900,0.00429
2140.51883,0.00506
2138.45866,0.00536
2136.39849,0.00477
2134.33831,0.00431
2132.27814,0.00489
2130.21797,0.00553
2128.15780,0.00558
2126.09762,0.00545
2124.03745,0.00521
2121.97728,0.00519
2119.91711,0.00572
2117.85694,0.00598
2115.79676,0.00566
2113.73659,0.00542
2111.67642,0.00535
2109.61625,0.00529
2107.55608,0.00547
2105.49590,0.00574
2103.43573,0.00603
2101.37556,0.00644
2099.31539,0.00657
2097.25521,0.00606
2095.19504,0.00539
2093.13487,0.00545
2091.07470,0.00589
2089.01453,0.00611
2086.95435,0.00563
2084.89418,0.00489
2082.83401,0.00515
2080.77384,0.00608
2078.71367,0.00604
2076.65349,0.00488
2074.59332,0.00401
2072.53315,0.00394
2070.47298,0.00383
2068.41281,0.00339
2066.35263,0.00360
2064.29246,0.00426
2062.23229,0.00447
2060.17212,0.00464
2058.11194,0.00472
2056.05177,0.00424
2053.99160,0.00354
2051.93143,0.00291
2049.87126,0.00266
2047.81108,0.00346
2045.75091,0.00439
2043.69074,0.00379
2041.63057,0.00266
2039.57040,0.00249
2037.51022,0.00217
2035.45005,0.00162
2033.38988,0.00271
2031.32971,0.00404
2029.26954,0.00362
2027.20936,0.00290
2025.14919,0.00317
2023.08902,0.00361
2021.02885,0.00309
2018.96867,0.00182
2016.90850,0.00094
2014.84833,0.00055
2012.78816,0.00000
2010.72799,-0.00001
2008.66781,0.00072
2006.60764,0.00073
2004.54747,0.00013
2002.48730,0.00023
2000.42713,0.00130
1998.36695,0.00255
1996.30678,0.00375
1994.24661,0.00496
1992.18644,0.00520
1990.12626,0.00455
1988.06609,0.00441
1986.00592,0.00455
1983.94575,0.00418
1981.88558,0.00350
1979.82540,0.00327
1977.76523,0.00407
1975.70506,0.00446
1973.64489,0.00305
1971.58472,0.00167
1969.52454,0.00198
1967.46437,0.00259
1965.40420,0.00220
1963.34403,0.00181
1961.28386,0.00213
1959.22368,0.00243
1957.16351,0.00212
1955.10334,0.00189
1953.04317,0.00206
1950.98299,0.00194
1948.92282,0.00183
1946.86265,0.00238
1944.80248,0.00330
1942.74231,0.00380
1940.68213,0.00349
1938.62196,0.00294
1936.56179,0.00246
1934.50162,0.00211
1932.44145,0.00189
1930.38127,0.00160
1928.32110,0.00168
1926.26093,0.00228
1924.20076,0.00269
1922.14059,0.00261
1920.08041,0.00242
1918.02024,0.00264
1915.96007,0.00326
1913.89990,0.00351
1911.83972,0.00306
1909.77955,0.00248
1907.71938,0.00232
1905.65921,0.00252
1903.59904,0.00281
1901.53886,0.00285
1899.47869,0.00278
1897.41852,0.00309
1895.35835,0.00351
1893.29818,0.00356
1891.23800,0.00336
1889.17783,0.00327
1887.11766,0.00344
1885.05749,0.00354
1882.99731,0.00316
1880.93714,0.00256
1878.87697,0.00235
1876.81680,0.00248
1874.75663,0.00243
1872.69645,0.00220
1870.63628,0.00240
1868.57611,0.00312
1866.51594,0.00346
1864.45577,0.00301
1862.39559,0.00238
1860.33542,0.00208
1858.27525,0.00222
1856.21508,0.00256
1854.15491,0.00276
1852.09473,0.00264
1850.03456,0.00242
1847.97439,0.00235
1845.91422,0.00242
1843.85404,0.00258
1841.79387,0.00272
1839.73370,0.00286
1837.67353,0.00314
1835.61336,0.00354
1833.55318,0.00387
1831.49301,0.00387
1829.43284,0.00335
1827.37267,0.00266
1825.31250,0.00225
1823.25232,0.00219
1821.19215,0.00242
1819.13198,0.00282
1817.07181,0.00299
1815.01163,0.00290
1812.95146,0.00286
1810.89129,0.00285
1808.83112,0.00283
1806.77095,0.00304
1804.71077,0.00344
1802.65060,0.00381
1800.59043,0.00406
1798.53026,0.00416
1796.47009,0.00421
1794.40991,0.00433
1792.34974,0.00442
1790.28957,0.00423
1788.22940,0.00392
1786.16923,0.00393
1784.10905,0.00422
1782.04888,0.00441
1779.98871,0.00423
1777.92854,0.00381
1775.86836,0.00360
1773.80819,0.00385
1771.74802,0.00425
1769.68785,0.00442
1767.62768,0.00436
1765.56750,0.00427
1763.50733,0.00425
1761.44716,0.00435
1759.38699,0.00451
1757.32682,0.00462
1755.26664,0.00479
1753.20647,0.00505
1751.14630,0.00532
1749.08613,0.00561
1747.02596,0.00602
1744.96578,0.00636
1742.90561,0.00627
1740.84544,0.00581
1738.78527,0.00541
1736.72509,0.00534
1734.66492,0.00571
1732.60475,0.00631
1730.54458,0.00648
1728.48441,0.00627
1726.42423,0.00615
1724.36406,0.00630
1722.30389,0.00660
1720.24372,0.00683
1718.18355,0.00697
1716.12337,0.00725
1714.06320,0.00767
1712.00303,0.00811
1709.94286,0.00843
1707.88268,0.00860
1705.82251,0.00881
1703.76234,0.00907
1701.70217,0.00926
1699.64200,0.00951
1697.58182,0.00990
1695.52165,0.01043
1693.46148,0.01104
1691.40131,0.01175
1689.34114,0.01234
1687.28096,0.01256
1685.22079,0.01265
1683.16062,0.01315
1681.10045,0.01390
1679.04028,0.01453
1676.98010,0.01507
1674.91993,0.01554
1672.85976,0.01591
1670.79959,0.01624
1668.73941,0.01662
1666.67924,0.01694
1664.61907,0.01725
1662.55890,0.01774
1660.49873,0.01835
1658.43855,0.01881
1656.37838,0.01902
1654.31821,0.01893
1652.25804,0.01869
1650.19787,0.01883
1648.13769,0.01919
1646.07752,0.01923
1644.01735,0.01894
1641.95718,0.01869
1639.89701,0.01857
1637.83683,0.01832
1635.77666,0.01777
1633.71649,0.01733
1631.65632,0.01727
1629.59614,0.01720
1627.53597,0.01684
1625.47580,0.01625
1623.41563,0.01564
1621.35546,0.01521
1619.29528,0.01476
1617.23511,0.01407
1615.17494,0.01357
1613.11477,0.01354
1611.05460,0.01357
1608.99442,0.01335
1606.93425,0.01291
1604.87408,0.01240
1602.81391,0.01201
1600.75373,0.01185
1598.69356,0.01184
1596.63339,0.01171
1594.57322,0.01134
1592.51305,0.01097
1590.45287,0.01074
1588.39270,0.01051
1586.33253,0.01023
1584.27236,0.01006
1582.21219,0.01003
1580.15201,0.00996
1578.09184,0.00981
1576.03167,0.00971
1573.97150,0.00965
1571.91133,0.00949
1569.85115,0.00924
1567.79098,0.00911
1565.73081,0.00919
1563.67064,0.00936
1561.61046,0.00939
1559.55029,0.00926
1557.49012,0.00925
1555.42995,0.00937
1553.36978,0.00936
1551.30960,0.00923
1549.24943,0.00909
1547.18926,0.00907
1545.12909,0.00929
1543.06892,0.00946
1541.00874,0.00908
1538.94857,0.00837
1536.88840,0.00816
1534.82823,0.00823
1532.76805,0.00799
1530.70788,0.00757
1528.64771,0.00736
1526.58754,0.00740
1524.52737,0.00750
1522.46719,0.00755
1520.40702,0.00745
1518.34685,0.00727
1516.28668,0.00710
1514.22651,0.00701
1512.16633,0.00706
1510.10616,0.00719
1508.04599,0.00710
1505.98582,0.00651
1503.92565,0.00593
1501.86547,0.00574
1499.80530,0.00557
1497.74513,0.00518
1495.68496,0.00480
1493.62478,0.00459
1491.56461,0.00464
1489.50444,0.00485
1487.44427,0.00481
1485.38410,0.00456
1483.32392,0.00443
1481.26375,0.00447
1479.20358,0.00454
1477.14341,0.00468
1475.08324,0.00495
1473.02306,0.00519
1470.96289,0.00513
1468.90272,0.00487
1466.84255,0.00462
1464.78238,0.00451
1462.72220,0.00475
1460.66203,0.00533
1458.60186,0.00579
1456.54169,0.00547
1454.48151,0.00470
1452.42134,0.00439
1450.36117,0.00447
1448.30100,0.00455
1446.24083,0.00449
1444.18065,0.00441
1442.12048,0.00445
1440.06031,0.00452
1438.00014,0.00455
1435.93997,0.00455
1433.87979,0.00457
1431.81962,0.00467
1429.75945,0.00475
1427.69928,0.00470
1425.63910,0.00468
1423.57893,0.00489
1421.51876,0.00527
1419.45859,0.00559
1417.39842,0.00558
1415.33824,0.00527
1413.27807,0.00509
1411.21790,0.00519
1409.15773,0.00533
1407.09756,0.00537
1405.03738,0.00529
1402.97721,0.00511
1400.91704,0.00510
1398.85687,0.00527
1396.79670,0.00522
1394.73652,0.00480
1392.67635,0.00439
1390.61618,0.00429
1388.55601,0.00432
1386.49583,0.00423
1384.43566,0.00408
1382.37549,0.00403
1380.31532,0.00403
1378.25515,0.00405
1376.19497,0.00402
1374.13480,0.00390
1372.07463,0.00372
1370.01446,0.00360
1367.95429,0.00358
1365.89411,0.00364
1363.83394,0.00370
1361.77377,0.00359
1359.71360,0.00328
1357.65343,0.00302
1355.59325,0.00288
1353.53308,0.00275
1351.47291,0.00257
1349.41274,0.00242
1347.35256,0.00236
1345.29239,0.00230
1343.23222,0.00233
1341.17205,0.00268
1339.11188,0.00311
1337.05170,0.00303
1334.99153,0.00259
1332.93136,0.00227
1330.87119,0.00224
1328.81102,0.00233
1326.75084,0.00239
1324.69067,0.00244
1322.63050,0.00257
1320.57033,0.00267
1318.51015,0.00262
1316.44998,0.00257
1314.38981,0.00253
1312.32964,0.00241
1310.26947,0.00242
1308.20929,0.00266
1306.14912,0.00278
1304.08895,0.00269
1302.02878,0.00262
1299.96861,0.00276
1297.90843,0.00300
1295.84826,0.00310
1293.78809,0.00308
1291.72792,0.00311
1289.66775,0.00314
1287.60757,0.00309
1285.54740,0.00298
1283.48723,0.00301
1281.42706,0.00313
1279.36688,0.00315
1277.30671,0.00313
1275.24654,0.00322
1273.18637,0.00337
1271.12620,0.00345
1269.06602,0.00341
1267.00585,0.00336
1264.94568,0.00335
1262.88551,0.00330
1260.82534,0.00333
1258.76516,0.00348
1256.70499,0.00359
1254.64482,0.00362
1252.58465,0.00364
1250.52447,0.00359
1248.46430,0.00346
1246.40413,0.00341
1244.34396,0.00342
1242.28379,0.00332
1240.22361,0.00313
1238.16344,0.00301
1236.10327,0.00302
1234.04310,0.00301
1231.98293,0.00283
1229.92275,0.00263
1227.86258,0.00243
1225.80241,0.00216
1223.74224,0.00189
1221.68207,0.00176
1219.62189,0.00170
1217.56172,0.00154
1215.50155,0.00140
1213.44138,0.00135
1211.38120,0.00126
1209.32103,0.00116
1207.26086,0.00106
1205.20069,0.00093
1203.14052,0.00076
1201.08034,0.00055
1199.02017,0.00046
1196.96000,0.00045
1194.89983,0.00027
1192.83966,0.00000
1190.77948,-0.00002
1188.71931,0.00018
1186.65914,0.00039
1184.59897,0.00056
1182.53880,0.00077
1180.47862,0.00100
1178.41845,0.00112
1176.35828,0.00116
1174.29811,0.00124
1172.23793,0.00138
1170.17776,0.00157
1168.11759,0.00181
1166.05742,0.00218
1163.99725,0.00259
1161.93707,0.00289
1159.87690,0.00308
1157.81673,0.00345
1155.75656,0.00406
1153.69639,0.00462
1151.63621,0.00501
1149.57604,0.00549
1147.51587,0.00611
1145.45570,0.00650
1143.39552,0.00677
1141.33535,0.00738
1139.27518,0.00837
1137.21501,0.00949
1135.15484,0.01057
1133.09466,0.01176
1131.03449,0.01306
1128.97432,0.01410
1126.91415,0.01489
1124.85398,0.01584
1122.79380,0.01704
1120.73363,0.01846
1118.67346,0.02013
1116.61329,0.02154
1114.55312,0.02257
1112.49294,0.02370
1110.43277,0.02508
1108.37260,0.02644
1106.31243,0.02772
1104.25225,0.02907
1102.19208,0.03039
1100.13191,0.03152
1098.07174,0.03256
1096.01157,0.03370
1093.95139,0.03478
1091.89122,0.03565
1089.83105,0.03650
1087.77088,0.03754
1085.71071,0.03865
1083.65053,0.03960
1081.59036,0.04037
1079.53019,0.04102
1077.47002,0.04173
1075.40985,0.04259
1073.34967,0.04322
1071.28950,0.04358
1069.22933,0.04410
1067.16916,0.04470
1065.10898,0.04487
1063.04881,0.04448
1060.98864,0.04389
1058.92847,0.04350
1056.86830,0.04317
1054.80812,0.04244
1052.74795,0.04125
1050.68778,0.03967
1048.62761,0.03789
1046.56744,0.03616
1044.50726,0.03449
1042.44709,0.03265
1040.38692,0.03071
1038.32675,0.02901
1036.26657,0.02751
1034.20640,0.02594
1032.14623,0.02425
1030.08606,0.02263
1028.02589,0.02131
1025.96571,0.02023
1023.90554,0.01908
1021.84537,0.01794
1019.78520,0.01722
1017.72503,0.01693
1015.66485,0.01682
1013.60468,0.01667
1011.54451,0.01647
1009.48434,0.01644
1007.42417,0.01684
1005.36399,0.01768
1003.30382,0.01861
1001.24365,0.01939
999.18348,0.02019
997.12330,0.02102
995.06313,0.02211
993.00296,0.02350
990.94279,0.02455
988.88262,0.02511
986.82244,0.02561
984.76227,0.02615
982.70210,0.02664
980.64193,0.02711
978.58176,0.02710
976.52158,0.02640
974.46141,0.02550
972.40124,0.02468
970.34107,0.02379
968.28089,0.02270
966.22072,0.02159
964.16055,0.02049
962.10038,0.01933
960.04021,0.01816
957.98003,0.01692
955.91986,0.01565
953.85969,0.01438
951.79952,0.01326
949.73935,0.01252
947.67917,0.01193
945.61900,0.01101
943.55883,0.00994
941.49866,0.00903
939.43849,0.00823
937.37831,0.00764
935.31814,0.00719
933.25797,0.00669
931.19780,0.00630
929.13762,0.00599
927.07745,0.00566
925.01728,0.00553
922.95711,0.00538
920.89694,0.00484
918.83676,0.00441
916.77659,0.00437
914.71642,0.00441
912.65625,0.00441
910.59608,0.00419
908.53590,0.00386
906.47573,0.00387
904.41556,0.00416
902.35539,0.00446
900.29522,0.00468
898.23504,0.00483
896.17487,0.00501
894.11470,0.00531
892.05453,0.00584
889.99435,0.00651
887.93418,0.00714
885.87401,0.00757
883.81384,0.00791
881.75367,0.00837
879.69349,0.00889
877.63332,0.00939
875.57315,0.00997
873.51298,0.01052
871.45281,0.01095
869.39263,0.01133
867.33246,0.01162
865.27229,0.01205
863.21212,0.01257
861.15194,0.01291
859.09177,0.01326
857.03160,0.01341
854.97143,0.01325
852.91126,0.01315
850.85108,0.01279
848.79091,0.01212
846.73074,0.01161
844.67057,0.01131
842.61040,0.01133
840.55022,0.01139
838.49005,0.01100
836.42988,0.01029
834.36971,0.00966
832.30954,0.00944
830.24936,0.00965
828.18919,0.00957
826.12902,0.00884
824.06885,0.00850
822.00867,0.00873
819.94850,0.00856
817.88833,0.00777
815.82816,0.00675
813.76799,0.00616
811.70781,0.00644
809.64764,0.00702
807.58747,0.00710
805.52730,0.00697
803.46713,0.00718
801.40695,0.00719
799.34678,0.00635
797.28661,0.00529
795.22644,0.00473
793.16627,0.00467
791.10609,0.00503
789.04592,0.00577
786.98575,0.00637
784.92558,0.00636
782.86540,0.00619
780.80523,0.00605
778.74506,0.00579
776.68489,0.00585
774.62472,0.00624
772.56454,0.00645
770.50437,0.00612
768.44420,0.00561
766.38403,0.00563
764.32386,0.00588
762.26368,0.00589
760.20351,0.00568
758.14334,0.00556
756.08317,0.00590
754.02299,0.00616
751.96282,0.00626
749.90265,0.00640
747.84248,0.00632
745.78231,0.00628
743.72213,0.00641
741.66196,0.00643
739.60179,0.00630
737.54162,0.00631
735.48145,0.00658
733.42127,0.00669
731.36110,0.00646
729.30093,0.00640
727.24076,0.00668
725.18059,0.00694
723.12041,0.00726
721.06024,0.00758
719.00007,0.00691
716.93990,0.00664
714.87972,0.00706
712.81955,0.00713
710.75938,0.00705
708.69921,0.00758
706.63904,0.00844
704.57886,0.00891
702.51869,0.00857
700.45852,0.00742
698.39835,0.00632
696.33818,0.00627
694.27800,0.00703
692.21783,0.00719
690.15766,0.00619
688.09749,0.00524
686.03731,0.00497
683.97714,0.00479
681.91697,0.00436
679.85680,0.00390
677.79663,0.00431
675.73645,0.00545
673.67628,0.00419
671.61611,0.00000
669.55594,0.00639
667.49577,0.01497
665.43559,0.00258
663.37542,0.00476
661.31525,0.00808
659.25508,0.00709
657.19491,0.00490
655.13473,0.00401
653.07456,0.00472
651.01439,0.00559
648.95422,0.00604
646.89404,0.00651
644.83387,0.00792
642.77370,0.00866
640.71353,0.00774
638.65336,0.00634
636.59318,0.00587
634.53301,0.00596
632.47284,0.00526
630.41267,0.00325
628.35250,0.00159
626.29232,0.00173
624.23215,0.00281
622.17198,0.00299
620.11181,0.00136
618.05164,0.00000
615.99146,0.00094
613.93129,0.00257
611.87112,0.00288
609.81095,0.00234
607.75077,0.00140
605.69060,0.00073
603.63043,0.00036
601.57026,-0.00012
599.51009,0.00000
