3996.73391,0.00047
3994.67373,0.00063
3992.61356,0.00083
3990.55339,0.00068
3988.49322,0.00022
3986.43305,0.00000
3984.37287,0.00008
3982.31270,0.00025
3980.25253,0.00062
3978.19236,0.00092
3976.13219,0.00059
3974.07201,0.00005
3972.01184,0.00013
3969.95167,0.00069
3967.89150,0.00116
3965.83133,0.00133
3963.77115,0.00120
3961.71098,0.00098
3959.65081,0.00089
3957.59064,0.00084
3955.53046,0.00066
3953.47029,0.00049
3951.41012,0.00072
3949.34995,0.00144
3947.28978,0.00194
3945.22960,0.00179
3943.16943,0.00150
3941.10926,0.00125
3939.04909,0.00105
3936.98892,0.00121
3934.92874,0.00148
3932.86857,0.00165
3930.80840,0.00186
3928.74823,0.00200
3926.68805,0.00192
3924.62788,0.00179
3922.56771,0.00165
3920.50754,0.00131
3918.44737,0.00106
3916.38719,0.00117
3914.32702,0.00131
3912.26685,0.00126
3910.20668,0.00109
3908.14651,0.00092
3906.08633,0.00123
3904.02616,0.00228
3901.96599,0.00307
3899.90582,0.00285
3897.84565,0.00239
3895.78547,0.00212
3893.72530,0.00209
3891.66513,0.00220
3889.60496,0.00204
3887.54478,0.00200
3885.48461,0.00267
3883.42444,0.00325
3881.36427,0.00310
3879.30410,0.00258
3877.24392,0.00190
3875.18375,0.00151
3873.12358,0.00192
3871.06341,0.00283
3869.00324,0.00339
3866.94306,0.00345
3864.88289,0.00356
3862.82272,0.00377
3860.76255,0.00345
3858.70237,0.00273
3856.64220,0.00242
3854.58203,0.00288
3852.52186,0.00364
3850.46169,0.00352
3848.40151,0.00286
3846.34134,0.00228
3844.28117,0.00207
3842.22100,0.00230
3840.16083,0.00289
3838.10065,0.00357
3836.04048,0.00377
3833.98031,0.00341
3831.92014,0.00298
3829.85997,0.00260
3827.79979,0.00226
3825.73962,0.00206
3823.67945,0.00209
3821.61928,0.00249
3819.55910,0.00293
3817.49893,0.00270
3815.43876,0.00222
3813.37859,0.00183
3811.31842,0.00151
3809.25824,0.00145
3807.19807,0.00188
3805.13790,0.00239
3803.07773,0.00260
3801.01756,0.00271
3798.95738,0.00246
3796.89721,0.00206
3794.83704,0.00202
3792.77687,0.00223
3790.71670,0.00234
3788.65652,0.00213
3786.59635,0.00171
3784.53618,0.00151
3782.47601,0.00166
3780.41583,0.00191
3778.35566,0.00204
3776.29549,0.00195
3774.23532,0.00186
3772.17515,0.00197
3770.11497,0.00223
3768.05480,0.00243
3765.99463,0.00245
3763.93446,0.00237
3761.87429,0.00239
3759.81411,0.00283
3757.75394,0.00350
3755.69377,0.00389
3753.63360,0.00400
3751.57342,0.00428
3749.51325,0.00503
3747.45308,0.00575
3745.39291,0.00649
3743.33274,0.00674
3741.27256,0.00606
3739.21239,0.00566
3737.15222,0.00625
3735.09205,0.00692
3733.03188,0.00654
3730.97170,0.00589
3728.91153,0.00587
3726.85136,0.00602
3724.79119,0.00562
3722.73102,0.00488
3720.67084,0.00428
3718.61067,0.00409
3716.55050,0.00422
3714.49033,0.00422
3712.43015,0.00396
3710.36998,0.00380
3708.30981,0.00392
3706.24964,0.00417
3704.18947,0.00428
3702.12929,0.00412
3700.06912,0.00400
3698.00895,0.00405
3695.94878,0.00394
3693.88861,0.00345
3691.82843,0.00297
3689.76826,0.00333
3687.70809,0.00416
3685.64792,0.00429
3683.58775,0.00369
3681.52757,0.00304
3679.46740,0.00289
3677.40723,0.00332
3675.34706,0.00400
3673.28688,0.00436
3671.22671,0.00446
3669.16654,0.00480
3667.10637,0.00513
3665.04620,0.00517
3662.98602,0.00515
3660.92585,0.00527
3658.86568,0.00545
3656.80551,0.00552
3654.74534,0.00511
3652.68516,0.00425
3650.62499,0.00415
3648.56482,0.00573
3646.50465,0.00718
3644.44447,0.00729
3642.38430,0.00673
3640.32413,0.00641
3638.26396,0.00668
3636.20379,0.00725
3634.14361,0.00765
3632.08344,0.00794
3630.02327,0.00844
3627.96310,0.00912
3625.90293,0.00949
3623.84275,0.00934
3621.78258,0.00892
3619.72241,0.00896
3617.66224,0.00979
3615.60207,0.01069
3613.54189,0.01127
3611.48172,0.01170
3609.42155,0.01211
3607.36138,0.01259
3605.30120,0.01293
3603.24103,0.01282
3601.18086,0.01248
3599.12069,0.01230
3597.06052,0.01234
3595.00034,0.01242
3592.94017,0.01256
3590.88000,0.01271
3588.81983,0.01317
3586.75966,0.01369
3584.69948,0.01369
3582.63931,0.01368
3580.57914,0.01399
3578.51897,0.01433
3576.45879,0.01459
3574.39862,0.01472
3572.33845,0.01470
3570.27828,0.01495
3568.21811,0.01584
3566.15793,0.01681
3564.09776,0.01697
3562.03759,0.01660
3559.97742,0.01634
3557.91725,0.01629
3555.85707,0.01636
3553.79690,0.01656
3551.73673,0.01697
3549.67656,0.01761
3547.61639,0.01847
3545.55621,0.01915
3543.49604,0.01908
3541.43587,0.01854
3539.37570,0.01842
3537.31552,0.01897
3535.25535,0.01948
3533.19518,0.01937
3531.13501,0.01911
3529.07484,0.01950
3527.01466,0.02053
3524.95449,0.02121
3522.89432,0.02099
3520.83415,0.02042
3518.77398,0.02009
3516.71380,0.01995
3514.65363,0.02007
3512.59346,0.02060
3510.53329,0.02127
3508.47312,0.02163
3506.41294,0.02165
3504.35277,0.02183
3502.29260,0.02237
3500.23243,0.02253
3498.17225,0.02216
3496.11208,0.02224
3494.05191,0.02280
3491.99174,0.02294
3489.93157,0.02284
3487.87139,0.02305
3485.81122,0.02346
3483.75105,0.02390
3481.69088,0.02435
3479.63071,0.02452
3477.57053,0.02442
3475.51036,0.02425
3473.45019,0.02419
3471.39002,0.02448
3469.32984,0.02508
3467.26967,0.02547
3465.20950,0.02550
3463.14933,0.02558
3461.08916,0.02592
3459.02898,0.02624
3456.96881,0.02640
3454.90864,0.02639
3452.84847,0.02633
3450.78830,0.02627
3448.72812,0.02628
3446.66795,0.02643
3444.60778,0.02648
3442.54761,0.02644
3440.48744,0.02663
3438.42726,0.02702
3436.36709,0.02743
3434.30692,0.02771
3432.24675,0.02790
3430.18657,0.02809
3428.12640,0.02818
3426.06623,0.02824
3424.00606,0.02838
3421.94589,0.02870
3419.88571,0.02916
3417.82554,0.02916
3415.76537,0.02855
3413.70520,0.02804
3411.64503,0.02811
3409.58485,0.02861
3407.52468,0.02907
3405.46451,0.02938
3403.40434,0.02958
3401.34416,0.02955
3399.28399,0.02967
3397.22382,0.02958
3395.16365,0.02943
3393.10348,0.02933
3391.04330,0.02930
3388.98313,0.02936
3386.92296,0.02979
3384.86279,0.03044
3382.80262,0.03066
3380.74244,0.03042
3378.68227,0.03030
3376.62210,0.03049
3374.56193,0.03064
3372.50176,0.03055
3370.44158,0.03027
3368.38141,0.03013
3366.32124,0.03034
3364.26107,0.03059
3362.20089,0.03070
3360.14072,0.03072
3358.08055,0.03068
3356.02038,0.03058
3353.96021,0.03050
3351.90003,0.03057
3349.83986,0.03068
3347.77969,0.03071
3345.71952,0.03075
3343.65935,0.03089
3341.59917,0.03105
3339.53900,0.03113
3337.47883,0.03092
3335.41866,0.03039
3333.35849,0.03005
3331.29831,0.03024
3329.23814,0.03063
3327.17797,0.03083
3325.11780,0.03097
3323.05762,0.03114
3320.99745,0.03102
3318.93728,0.03066
3316.87711,0.03063
3314.81694,0.03106
3312.75676,0.03136
3310.69659,0.03114
3308.63642,0.03083
3306.57625,0.03101
3304.51608,0.03144
3302.45590,0.03158
3300.39573,0.03144
3298.33556,0.03125
3296.27539,0.03112
3294.21521,0.03116
3292.15504,0.03121
3290.09487,0.03122
3288.03470,0.03138
3285.97453,0.03132
3283.91435,0.03080
3281.85418,0.03043
3279.79401,0.03057
3277.73384,0.03084
3275.67367,0.03100
3273.61349,0.03112
3271.55332,0.03112
3269.49315,0.03078
3267.43298,0.03027
3265.37281,0.03006
3263.31263,0.03026
3261.25246,0.03047
3259.19229,0.03056
3257.13212,0.03076
3255.07194,0.03078
3253.01177,0.03043
3250.95160,0.03031
3248.89143,0.03061
3246.83126,0.03069
3244.77108,0.03050
3242.71091,0.03042
3240.65074,0.03030
3238.59057,0.03010
3236.53040,0.03007
3234.47022,0.03007
3232.41005,0.03001
3230.34988,0.02995
3228.28971,0.02974
3226.22954,0.02950
3224.16936,0.02953
3222.10919,0.02951
3220.04902,0.02921
3217.98885,0.02907
3215.92867,0.02929
3213.86850,0.02940
3211.80833,0.02918
3209.74816,0.02907
3207.68799,0.02909
3205.62781,0.02895
3203.56764,0.02872
3201.50747,0.02852
3199.44730,0.02834
3197.38713,0.02802
3195.32695,0.02759
3193.26678,0.02734
3191.20661,0.02731
3189.14644,0.02730
3187.08626,0.02733
3185.02609,0.02752
3182.96592,0.02767
3180.90575,0.02770
3178.84558,0.02774
3176.78540,0.02772
3174.72523,0.02748
3172.66506,0.02723
3170.60489,0.02722
3168.54472,0.02720
3166.48454,0.02699
3164.42437,0.02667
3162.36420,0.02630
3160.30403,0.02598
3158.24386,0.02580
3156.18368,0.02559
3154.12351,0.02529
3152.06334,0.02523
3150.00317,0.02551
3147.94299,0.02574
3145.88282,0.02567
3143.82265,0.02550
3141.76248,0.02538
3139.70231,0.02513
3137.64213,0.02462
3135.58196,0.02418
3133.52179,0.02417
3131.46162,0.02429
3129.40145,0.02429
3127.34127,0.02441
3125.28110,0.02463
3123.22093,0.02472
3121.16076,0.02459
3119.10058,0.02428
3117.04041,0.02407
3114.98024,0.02393
3112.92007,0.02368
3110.85990,0.02352
3108.79972,0.02347
3106.73955,0.02335
3104.67938,0.02314
3102.61921,0.02297
3100.55904,0.02294
3098.49886,0.02294
3096.43869,0.02280
3094.37852,0.02262
3092.31835,0.02259
3090.25818,0.02272
3088.19800,0.02281
3086.13783,0.02272
3084.07766,0.02258
3082.01749,0.02253
3079.95731,0.02244
3077.89714,0.02226
3075.83697,0.02203
3073.77680,0.02181
3071.71663,0.02158
3069.65645,0.02125
3067.59628,0.02111
3065.53611,0.02127
3063.47594,0.02123
3061.41577,0.02097
3059.35559,0.02094
3057.29542,0.02103
3055.23525,0.02091
3053.17508,0.02075
3051.11491,0.02058
3049.05473,0.02043
3046.99456,0.02034
3044.93439,0.02023
3042.87422,0.02016
3040.81404,0.02023
3038.75387,0.02030
3036.69370,0.02033
3034.63353,0.02029
3032.57336,0.02007
3030.51318,0.01980
3028.45301,0.01963
3026.39284,0.01957
3024.33267,0.01959
3022.27250,0.01962
3020.21232,0.01945
3018.15215,0.01921
3016.09198,0.01923
3014.03181,0.01944
3011.97163,0.01961
3009.91146,0.01955
3007.85129,0.01923
3005.79112,0.01896
3003.73095,0.01880
3001.67077,0.01866
2999.61060,0.01868
2997.55043,0.01882
2995.49026,0.01875
2993.43009,0.01871
2991.36991,0.01888
2989.30974,0.01903
2987.24957,0.01897
2985.18940,0.01885
2983.12923,0.01880
2981.06905,0.01891
2979.00888,0.01901
2976.94871,0.01890
2974.88854,0.01884
2972.82836,0.01887
2970.76819,0.01887
2968.70802,0.01903
2966.64785,0.01922
2964.58768,0.01922
2962.52750,0.01915
2960.46733,0.01897
2958.40716,0.01872
2956.34699,0.01871
2954.28682,0.01886
2952.22664,0.01896
2950.16647,0.01895
2948.10630,0.01883
2946.04613,0.01876
2943.98596,0.01889
2941.92578,0.01903
2939.86561,0.01899
2937.80544,0.01889
2935.74527,0.01880
2933.68509,0.01865
2931.62492,0.01851
2929.56475,0.01855
2927.50458,0.01858
2925.44441,0.01842
2923.38423,0.01825
2921.32406,0.01826
2919.26389,0.01838
2917.20372,0.01846
2915.14355,0.01845
2913.08337,0.01833
2911.02320,0.01804
2908.96303,0.01758
2906.90286,0.01718
2904.84268,0.01705
2902.78251,0.01712
2900.72234,0.01710
2898.66217,0.01692
2896.60200,0.01685
2894.54182,0.01683
2892.48165,0.01656
2890.42148,0.01611
2888.36131,0.01585
2886.30114,0.01599
2884.24096,0.01627
2882.18079,0.01642
2880.12062,0.01639
2878.06045,0.01631
2876.00028,0.01617
2873.94010,0.01582
2871.87993,0.01550
2869.81976,0.01549
2867.75959,0.01558
2865.69941,0.01551
2863.63924,0.01521
2861.57907,0.01489
2859.51890,0.01469
2857.45873,0.01458
2855.39855,0.01459
2853.33838,0.01449
2851.27821,0.01419
2849.21804,0.01391
2847.15787,0.01374
2845.09769,0.01361
2843.03752,0.01353
2840.97735,0.01341
2838.91718,0.01318
2836.85700,0.01301
2834.79683,0.01295
2832.73666,0.01282
2830.67649,0.01256
2828.61632,0.01241
2826.55614,0.01254
2824.49597,0.01260
2822.43580,0.01239
2820.37563,0.01211
2818.31546,0.01193
2816.25528,0.01194
2814.19511,0.01200
2812.13494,0.01205
2810.07477,0.01204
2808.01460,0.01193
2805.95442,0.01178
2803.89425,0.01156
2801.83408,0.01141
2799.77391,0.01140
2797.71373,0.01134
2795.65356,0.01113
2793.59339,0.01093
2791.53322,0.01086
2789.47305,0.01082
2787.41287,0.01087
2785.35270,0.01105
2783.29253,0.01104
2781.23236,0.01072
2779.17219,0.01054
2777.11201,0.01064
2775.05184,0.01066
2772.99167,0.01050
2770.93150,0.01032
2768.87133,0.01026
2766.81115,0.01043
2764.75098,0.01049
2762.69081,0.01035
2760.63064,0.01038
2758.57046,0.01070
2756.51029,0.01090
2754.45012,0.01063
2752.38995,0.01023
2750.32978,0.01017
2748.26960,0.01023
2746.20943,0.01020
2744.14926,0.01003
2742.08909,0.00974
2740.02892,0.00956
2737.96874,0.00952
2735.90857,0.00939
2733.84840,0.00913
2731.78823,0.00909
2729.72805,0.00936
2727.66788,0.00959
2725.60771,0.00966
2723.54754,0.00960
2721.48737,0.00941
2719.42719,0.00928
2717.36702,0.00931
2715.30685,0.00933
2713.24668,0.00930
2711.18651,0.00931
2709.12633,0.00926
2707.06616,0.00919
2705.00599,0.00928
2702.94582,0.00932
2700.88565,0.00916
2698.82547,0.00907
2696.76530,0.00899
2694.70513,0.00883
2692.64496,0.00877
2690.58478,0.00884
2688.52461,0.00896
2686.46444,0.00903
2684.40427,0.00893
2682.34410,0.00870
2680.28392,0.00856
2678.22375,0.00869
2676.16358,0.00900
2674.10341,0.00920
2672.04324,0.00921
2669.98306,0.00902
2667.92289,0.00873
2665.86272,0.00849
2663.80255,0.00836
2661.74238,0.00833
2659.68220,0.00836
2657.62203,0.00830
2655.56186,0.00821
2653.50169,0.00812
2651.44151,0.00804
2649.38134,0.00812
2647.32117,0.00819
2645.26100,0.00819
2643.20083,0.00828
2641.14065,0.00826
2639.08048,0.00811
2637.02031,0.00806
2634.96014,0.00818
2632.89997,0.00832
2630.83979,0.00824
2628.77962,0.00800
2626.71945,0.00780
2624.65928,0.00772
2622.59910,0.00778
2620.53893,0.00776
2618.47876,0.00736
2616.41859,0.00691
2614.35842,0.00706
2612.29824,0.00768
2610.23807,0.00815
2608.17790,0.00806
2606.11773,0.00766
2604.05756,0.00728
2601.99738,0.00701
2599.93721,0.00709
2597.87704,0.00714
2595.81687,0.00690
2593.75670,0.00689
2591.69652,0.00696
2589.63635,0.00680
2587.57618,0.00673
2585.51601,0.00677
2583.45583,0.00669
2581.39566,0.00644
2579.33549,0.00638
2577.27532,0.00669
2575.21515,0.00675
2573.15497,0.00640
2571.09480,0.00630
2569.03463,0.00652
2566.97446,0.00682
2564.91429,0.00691
2562.85411,0.00668
2560.79394,0.00641
2558.73377,0.00618
2556.67360,0.00612
2554.61342,0.00638
2552.55325,0.00658
2550.49308,0.00651
2548.43291,0.00655
2546.37274,0.00691
2544.31256,0.00719
2542.25239,0.00719
2540.19222,0.00707
2538.13205,0.00682
2536.07188,0.00666
2534.01170,0.00670
2531.95153,0.00665
2529.89136,0.00652
2527.83119,0.00643
2525.77102,0.00633
2523.71084,0.00628
2521.65067,0.00619
2519.59050,0.00594
2517.53033,0.00572
2515.47015,0.00566
2513.40998,0.00594
2511.34981,0.00646
2509.28964,0.00678
2507.22947,0.00675
2505.16929,0.00652
2503.10912,0.00635
2501.04895,0.00645
2498.98878,0.00686
2496.92861,0.00690
2494.86843,0.00624
2492.80826,0.00582
2490.74809,0.00621
2488.68792,0.00652
2486.62775,0.00615
2484.56757,0.00589
2482.50740,0.00621
2480.44723,0.00650
2478.38706,0.00657
2476.32688,0.00666
2474.26671,0.00670
2472.20654,0.00646
2470.14637,0.00621
2468.08620,0.00645
2466.02602,0.00691
2463.96585,0.00702
2461.90568,0.00687
2459.84551,0.00688
2457.78534,0.00699
2455.72516,0.00689
2453.66499,0.00674
2451.60482,0.00676
2449.54465,0.00697
2447.48447,0.00718
2445.42430,0.00736
2443.36413,0.00751
2441.30396,0.00723
2439.24379,0.00663
2437.18361,0.00640
2435.12344,0.00638
2433.06327,0.00608
2431.00310,0.00597
2428.94293,0.00617
2426.88275,0.00641
2424.82258,0.00676
2422.76241,0.00713
2420.70224,0.00720
2418.64207,0.00701
2416.58189,0.00693
2414.52172,0.00696
2412.46155,0.00702
2410.40138,0.00693
2408.34120,0.00652
2406.28103,0.00613
2404.22086,0.00608
2402.16069,0.00612
2400.10052,0.00625
2398.04034,0.00506
2395.98017,0.00519
2393.92000,0.00582
2391.85983,0.00634
2389.79966,0.00707
2387.73948,0.00815
2385.67931,0.00919
2383.61914,0.00986
2381.55897,0.01041
2379.49880,0.01127
2377.43862,0.01207
2375.37845,0.01270
2373.31828,0.01297
2371.25811,0.01330
2369.19793,0.01408
2367.13776,0.01420
2365.07759,0.01288
2363.01742,0.01145
2360.95725,0.00952
2358.89707,0.01070
2356.83690,0.01373
2354.77673,0.01689
2352.71656,0.01851
2350.65639,0.01718
2348.59621,0.01671
2346.53604,0.02091
2344.47587,0.02055
2342.41570,0.01858
2340.35552,0.01713
2338.29535,0.01568
2336.23518,0.01519
2334.17501,0.01526
2332.11484,0.01567
2330.05466,0.01622
2327.99449,0.01735
2325.93432,0.01717
2323.87415,0.01617
2321.81398,0.01427
2319.75380,0.01398
2317.69363,0.01420
2315.63346,0.01442
2313.57329,0.01374
2311.51312,0.01282
2309.45294,0.01258
2307.39277,0.01239
2305.33260,0.01208
2303.27243,0.01184
2301.21225,0.01163
2299.15208,0.01118
2297.09191,0.01091
2295.03174,0.01088
2292.97157,0.01063
2290.91139,0.01037
2288.85122,0.01029
2286.79105,0.00994
2284.73088,0.00902
2282.67071,0.00779
2280.61053,0.00685
2278.55036,0.00666
2276.49019,0.00718
2274.43002,0.00774
2272.36984,0.00773
2270.30967,0.00731
2268.24950,0.00731
2266.18933,0.00773
2264.12916,0.00789
2262.06898,0.00784
2260.00881,0.00768
2257.94864,0.00731
2255.88847,0.00730
2253.82830,0.00760
2251.76812,0.00732
2249.70795,0.00643
2247.64778,0.00663
2245.58761,0.00696
2243.52744,0.00652
2241.46726,0.00599
2239.40709,0.00587
2237.34692,0.00582
2235.28675,0.00590
2233.22657,0.00620
2231.16640,0.00691
2229.10623,0.00784
2227.04606,0.00810
2224.98589,0.00746
2222.92571,0.00669
2220.86554,0.00660
2218.80537,0.00703
2216.74520,0.00707
2214.68503,0.00636
2212.62485,0.00521
2210.56468,0.00403
2208.50451,0.00372
2206.44434,0.00477
2204.38417,0.00610
2202.32399,0.00632
2200.26382,0.00588
2198.20365,0.00596
2196.14348,0.00671
2194.08330,0.00798
2192.02313,0.00873
2189.96296,0.00820
2187.90279,0.00714
2185.84262,0.00600
2183.78244,0.00493
2181.72227,0.00463
2179.66210,0.00533
2177.60193,0.00608
2175.54176,0.00604
2173.48158,0.00591
2171.42141,0.00651
2169.36124,0.00719
2167.30107,0.00708
2165.24089,0.00650
2163.18072,0.00505
2161.12055,0.00232
2159.06038,0.00042
2157.00021,0.00000
2154.94003,0.00019
2152.87986,0.00158
2150.81969,0.00341
2148.75952,0.00405
2146.69935,0.00372
2144.63917,0.00308
2142.57900,0.00280
2140.51883,0.00390
2138.45866,0.00504
2136.39849,0.00407
2134.33831,0.00257
2132.27814,0.00322
2130.21797,0.00516
2128.15780,0.00616
2126.09762,0.00593
2124.03745,0.00543
2121.97728,0.00532
2119.91711,0.00553
2117.85694,0.00558
2115.79676,0.00549
2113.73659,0.00593
2111.67642,0.00671
2109.61625,0.00696
2107.55608,0.00662
2105.49590,0.00598
2103.43573,0.00546
2101.37556,0.00568
2099.31539,0.00612
2097.25521,0.00638
2095.19504,0.00629
2093.13487,0.00642
2091.07470,0.00700
2089.01453,0.00735
2086.95435,0.00676
2084.89418,0.00576
2082.83401,0.00542
2080.77384,0.00545
2078.71367,0.00506
2076.65349,0.00448
2074.59332,0.00402
2072.53315,0.00393
2070.47298,0.00438
2068.41281,0.00485
2066.35263,0.00508
2064.29246,0.00538
2062.23229,0.00554
2060.17212,0.00540
2058.11194,0.00545
2056.05177,0.00574
2053.99160,0.00577
2051.93143,0.00509
2049.87126,0.00410
2047.81108,0.00379
2045.75091,0.00383
2043.69074,0.00307
2041.63057,0.00180
2039.57040,0.00157
2037.51022,0.00201
2035.45005,0.00155
2033.38988,0.00149
2031.32971,0.00249
2029.26954,0.00306
2027.20936,0.00312
2025.14919,0.00342
2023.08902,0.00431
2021.02885,0.00494
2018.96867,0.00431
2016.90850,0.00261
2014.84833,0.00076
2012.78816,0.00000
2010.72799,0.00086
2008.66781,0.00220
2006.60764,0.00214
2004.54747,0.00088
2002.48730,0.00062
2000.42713,0.00224
1998.36695,0.00428
1996.30678,0.00552
1994.24661,0.00584
1992.18644,0.00519
1990.12626,0.00441
1988.06609,0.00453
1986.00592,0.00517
1983.94575,0.00552
1981.88558,0.00544
1979.82540,0.00544
1977.76523,0.00555
1975.70506,0.00456
1973.64489,0.00258
1971.58472,0.00191
1969.52454,0.00350
1967.46437,0.00470
1965.40420,0.00374
1963.34403,0.00269
1961.28386,0.00306
1959.22368,0.00385
1957.16351,0.00382
1955.10334,0.00359
1953.04317,0.00370
1950.98299,0.00367
1948.92282,0.00379
1946.86265,0.00391
1944.80248,0.00353
1942.74231,0.00337
1940.68213,0.00384
1938.62196,0.00412
1936.56179,0.00357
1934.50162,0.00281
1932.44145,0.00271
1930.38127,0.00292
1928.32110,0.00326
1926.26093,0.00373
1924.20076,0.00412
1922.14059,0.00455
1920.08041,0.00467
1918.02024,0.00430
1915.96007,0.00422
1913.89990,0.00433
1911.83972,0.00394
1909.77955,0.00339
1907.71938,0.00347
1905.65921,0.00383
1903.59904,0.00390
1901.53886,0.00380
1899.47869,0.00401
1897.41852,0.00459
1895.35835,0.00496
1893.29818,0.00470
1891.23800,0.00426
1889.17783,0.00428
1887.11766,0.00445
1885.05749,0.00431
1882.99731,0.00408
1880.93714,0.00396
1878.87697,0.00371
1876.81680,0.00331
1874.75663,0.00314
1872.69645,0.00323
1870.63628,0.00343
1868.57611,0.00378
1866.51594,0.00400
1864.45577,0.00389
1862.39559,0.00363
1860.33542,0.00349
1858.27525,0.00371
1856.21508,0.00406
1854.15491,0.00406
1852.09473,0.00381
1850.03456,0.00366
1847.97439,0.00355
1845.91422,0.00351
1843.85404,0.00380
1841.79387,0.00424
1839.73370,0.00450
1837.67353,0.00461
1835.61336,0.00467
1833.55318,0.00464
1831.49301,0.00451
1829.43284,0.00431
1827.37267,0.00396
1825.31250,0.00359
1823.25232,0.00340
1821.19215,0.00345
1819.13198,0.00369
1817.07181,0.00381
1815.01163,0.00386
1812.95146,0.00406
1810.89129,0.00422
1808.83112,0.00422
1806.77095,0.00435
1804.71077,0.00478
1802.65060,0.00532
1800.59043,0.00564
1798.53026,0.00569
1796.47009,0.00556
1794.40991,0.00530
1792.34974,0.00528
1790.28957,0.00556
1788.22940,0.00569
1786.16923,0.00571
1784.10905,0.00574
1782.04888,0.00563
1779.98871,0.00549
1777.92854,0.00523
1775.86836,0.00480
1773.80819,0.00461
1771.74802,0.00503
1769.68785,0.00567
1767.62768,0.00593
1765.56750,0.00589
1763.50733,0.00593
1761.44716,0.00615
1759.38699,0.00638
1757.32682,0.00665
1755.26664,0.00700
1753.20647,0.00737
1751.14630,0.00782
1749.08613,0.00834
1747.02596,0.00870
1744.96578,0.00868
1742.90561,0.00824
1740.84544,0.00772
1738.78527,0.00754
1736.72509,0.00780
1734.66492,0.00841
1732.60475,0.00892
1730.54458,0.00876
1728.48441,0.00843
1726.42423,0.00828
1724.36406,0.00819
1722.30389,0.00799
1720.24372,0.00766
1718.18355,0.00770
1716.12337,0.00849
1714.06320,0.00908
1712.00303,0.00920
1709.94286,0.00915
1707.88268,0.00919
1705.82251,0.00964
1703.76234,0.01021
1701.70217,0.01039
1699.64200,0.01068
1697.58182,0.01146
1695.52165,0.01235
1693.46148,0.01312
1691.40131,0.01381
1689.34114,0.01430
1687.28096,0.01432
1685.22079,0.01432
1683.16062,0.01530
1681.10045,0.01651
1679.04028,0.01696
1676.98010,0.01697
1674.91993,0.01716
1672.85976,0.01758
1670.79959,0.01828
1668.73941,0.01941
1666.67924,0.02023
1664.61907,0.02052
1662.55890,0.02098
1660.49873,0.02187
1658.43855,0.02247
1656.37838,0.02242
1654.31821,0.02230
1652.25804,0.02286
1650.19787,0.02336
1648.13769,0.02360
1646.07752,0.02378
1644.01735,0.02373
1641.95718,0.02328
1639.89701,0.02262
1637.83683,0.02198
1635.77666,0.02163
1633.71649,0.02154
1631.65632,0.02135
1629.59614,0.02087
1627.53597,0.02028
1625.47580,0.01974
1623.41563,0.01930
1621.35546,0.01889
1619.29528,0.01811
1617.23511,0.01715
1615.17494,0.01680
1613.11477,0.01686
1611.05460,0.01673
1608.99442,0.01641
1606.93425,0.01607
1604.87408,0.01564
1602.81391,0.01520
1600.75373,0.01493
1598.69356,0.01478
1596.63339,0.01454
1594.57322,0.01423
1592.51305,0.01398
1590.45287,0.01375
1588.39270,0.01349
1586.33253,0.01328
1584.27236,0.01321
1582.21219,0.01320
1580.15201,0.01303
1578.09184,0.01279
1576.03167,0.01282
1573.97150,0.01308
1571.91133,0.01307
1569.85115,0.01295
1567.79098,0.01317
1565.73081,0.01346
1563.67064,0.01351
1561.61046,0.01316
1559.55029,0.01287
1557.49012,0.01354
1555.42995,0.01439
1553.36978,0.01475
1551.30960,0.01464
1549.24943,0.01432
1547.18926,0.01406
1545.12909,0.01396
1543.06892,0.01378
1541.00874,0.01322
1538.94857,0.01270
1536.88840,0.01260
1534.82823,0.01259
1532.76805,0.01241
1530.70788,0.01218
1528.64771,0.01208
1526.58754,0.01223
1524.52737,0.01238
1522.46719,0.01231
1520.40702,0.01219
1518.34685,0.01203
1516.28668,0.01191
1514.22651,0.01189
1512.16633,0.01194
1510.10616,0.01178
1508.04599,0.01090
1505.98582,0.00954
1503.92565,0.00900
1501.86547,0.00912
1499.80530,0.00898
1497.74513,0.00847
1495.68496,0.00806
1493.62478,0.00781
1491.56461,0.00766
1489.50444,0.00771
1487.44427,0.00764
1485.38410,0.00732
1483.32392,0.00708
1481.26375,0.00708
1479.20358,0.00719
1477.14341,0.00733
1475.08324,0.00754
1473.02306,0.00786
1470.96289,0.00804
1468.90272,0.00800
1466.84255,0.00797
1464.78238,0.00819
1462.72220,0.00853
1460.66203,0.00871
1458.60186,0.00887
1456.54169,0.00905
1454.48151,0.00892
1452.42134,0.00870
1450.36117,0.00844
1448.30100,0.00820
1446.24083,0.00818
1444.18065,0.00823
1442.12048,0.00817
1440.06031,0.00806
1438.00014,0.00809
1435.93997,0.00838
1433.87979,0.00856
1431.81962,0.00845
1429.75945,0.00831
1427.69928,0.00839
1425.63910,0.00865
1423.57893,0.00900
1421.51876,0.00945
1419.45859,0.01000
1417.39842,0.01017
1415.33824,0.00973
1413.27807,0.00938
1411.21790,0.00947
1409.15773,0.00957
1407.09756,0.00949
1405.03738,0.00945
1402.97721,0.00947
1400.91704,0.00957
1398.85687,0.00983
1396.79670,0.00992
1394.73652,0.00947
1392.67635,0.00882
1390.61618,0.00845
1388.55601,0.00832
1386.49583,0.00815
1384.43566,0.00790
1382.37549,0.00766
1380.31532,0.00752
1378.25515,0.00750
1376.19497,0.00757
1374.13480,0.00758
1372.07463,0.00740
1370.01446,0.00714
1367.95429,0.00700
1365.89411,0.00699
1363.83394,0.00703
1361.77377,0.00696
1359.71360,0.00656
1357.65343,0.00604
1355.59325,0.00566
1353.53308,0.00548
1351.47291,0.00547
1349.41274,0.00550
1347.35256,0.00538
1345.29239,0.00514
1343.23222,0.00513
1341.17205,0.00565
1339.11188,0.00625
1337.05170,0.00614
1334.99153,0.00555
1332.93136,0.00518
1330.87119,0.00516
1328.81102,0.00522
1326.75084,0.00522
1324.69067,0.00522
1322.63050,0.00534
1320.57033,0.00546
1318.51015,0.00543
1316.44998,0.00531
1314.38981,0.00523
1312.32964,0.00516
1310.26947,0.00509
1308.20929,0.00511
1306.14912,0.00515
1304.08895,0.00504
1302.02878,0.00491
1299.96861,0.00495
1297.90843,0.00506
1295.84826,0.00509
1293.78809,0.00514
1291.72792,0.00531
1289.66775,0.00544
1287.60757,0.00541
1285.54740,0.00529
1283.48723,0.00515
1281.42706,0.00507
1279.36688,0.00505
1277.30671,0.00509
1275.24654,0.00522
1273.18637,0.00540
1271.12620,0.00552
1269.06602,0.00554
1267.00585,0.00547
1264.94568,0.00535
1262.88551,0.00528
1260.82534,0.00534
1258.76516,0.00543
1256.70499,0.00555
1254.64482,0.00573
1252.58465,0.00578
1250.52447,0.00561
1248.46430,0.00556
1246.40413,0.00569
1244.34396,0.00570
1242.28379,0.00550
1240.22361,0.00522
1238.16344,0.00505
1236.10327,0.00504
1234.04310,0.00498
1231.98293,0.00479
1229.92275,0.00465
1227.86258,0.00460
1225.80241,0.00445
1223.74224,0.00412
1221.68207,0.00385
1219.62189,0.00375
1217.56172,0.00361
1215.50155,0.00341
1213.44138,0.00325
1211.38120,0.00304
1209.32103,0.00273
1207.26086,0.00251
1205.20069,0.00229
1203.14052,0.00190
1201.08034,0.00158
1199.02017,0.00160
1196.96000,0.00163
1194.89983,0.00153
1192.83966,0.00145
1190.77948,0.00150
1188.71931,0.00151
1186.65914,0.00147
1184.59897,0.00166
1182.53880,0.00203
1180.47862,0.00243
1178.41845,0.00267
1176.35828,0.00267
1174.29811,0.00256
1172.23793,0.00253
1170.17776,0.00278
1168.11759,0.00320
1166.05742,0.00350
1163.99725,0.00371
1161.93707,0.00392
1159.87690,0.00409
1157.81673,0.00432
1155.75656,0.00469
1153.69639,0.00515
1151.63621,0.00549
1149.57604,0.00569
1147.51587,0.00590
1145.45570,0.00599
1143.39552,0.00606
1141.33535,0.00644
1139.27518,0.00705
1137.21501,0.00757
1135.15484,0.00795
1133.09466,0.00846
1131.03449,0.00905
1128.97432,0.00940
1126.91415,0.00956
1124.85398,0.00991
1122.79380,0.01056
1120.73363,0.01135
1118.67346,0.01216
1116.61329,0.01277
1114.55312,0.01306
1112.49294,0.01351
1110.43277,0.01437
1108.37260,0.01535
1106.31243,0.01625
1104.25225,0.01704
1102.19208,0.01770
1100.13191,0.01825
1098.07174,0.01878
1096.01157,0.01938
1093.95139,0.01994
1091.89122,0.02035
1089.83105,0.02075
1087.77088,0.02128
1085.71071,0.02196
1083.65053,0.02262
1081.59036,0.02298
1079.53019,0.02330
1077.47002,0.02384
1075.40985,0.02419
1073.34967,0.02419
1071.28950,0.02417
1069.22933,0.02437
1067.16916,0.02474
1065.10898,0.02492
1063.04881,0.02461
1060.98864,0.02428
1058.92847,0.02440
1056.86830,0.02448
1054.80812,0.02402
1052.74795,0.02341
1050.68778,0.02297
1048.62761,0.02261
1046.56744,0.02232
1044.50726,0.02194
1042.44709,0.02120
1040.38692,0.02032
1038.32675,0.01967
1036.26657,0.01920
1034.20640,0.01860
1032.14623,0.01772
1030.08606,0.01678
1028.02589,0.01619
1025.96571,0.01577
1023.90554,0.01516
1021.84537,0.01443
1019.78520,0.01381
1017.72503,0.01342
1015.66485,0.01314
1013.60468,0.01267
1011.54451,0.01210
1009.48434,0.01161
1007.42417,0.01133
1005.36399,0.01134
1003.30382,0.01151
1001.24365,0.01173
999.18348,0.01207
997.12330,0.01231
995.06313,0.01237
993.00296,0.01278
990.94279,0.01334
988.88262,0.01361
986.82244,0.01370
984.76227,0.01361
982.70210,0.01334
980.64193,0.01325
978.58176,0.01323
976.52158,0.01283
974.46141,0.01201
972.40124,0.01124
970.34107,0.01077
968.28089,0.01014
966.22072,0.00926
964.16055,0.00855
962.10038,0.00803
960.04021,0.00753
957.98003,0.00697
955.91986,0.00637
953.85969,0.00578
951.79952,0.00529
949.73935,0.00496
947.67917,0.00466
945.61900,0.00430
943.55883,0.00387
941.49866,0.00327
939.43849,0.00251
937.37831,0.00204
935.31814,0.00186
933.25797,0.00154
931.19780,0.00127
929.13762,0.00133
927.07745,0.00137
925.01728,0.00129
922.95711,0.00134
920.89694,0.00128
918.83676,0.00093
916.77659,0.00071
914.71642,0.00065
912.65625,0.00050
910.59608,0.00029
908.53590,0.00015
906.47573,0.00016
904.41556,0.00040
902.35539,0.00074
900.29522,0.00091
898.23504,0.00087
896.17487,0.00070
894.11470,0.00051
892.05453,0.00053
889.99435,0.00087
887.93418,0.00140
885.87401,0.00176
883.81384,0.00174
881.75367,0.00190
879.69349,0.00241
877.63332,0.00265
875.57315,0.00267
873.51298,0.00276
871.45281,0.00287
869.39263,0.00316
867.33246,0.00344
865.27229,0.00339
863.21212,0.00342
861.15194,0.00379
859.09177,0.00403
857.03160,0.00405
854.97143,0.00420
852.91126,0.00450
850.85108,0.00462
848.79091,0.00434
846.73074,0.00386
844.67057,0.00351
842.61040,0.00353
840.55022,0.00385
838.49005,0.00417
836.42988,0.00412
834.36971,0.00370
832.30954,0.00352
830.24936,0.00383
828.18919,0.00399
826.12902,0.00345
824.06885,0.00285
822.00867,0.00264
819.94850,0.00250
817.88833,0.00236
815.82816,0.00212
813.76799,0.00192
811.70781,0.00229
809.64764,0.00320
807.58747,0.00367
805.52730,0.00330
803.46713,0.00299
801.40695,0.00316
799.34678,0.00306
797.28661,0.00240
795.22644,0.00184
793.16627,0.00164
791.10609,0.00146
789.04592,0.00134
786.98575,0.00169
784.92558,0.00236
782.86540,0.00276
780.80523,0.00293
778.74506,0.00301
776.68489,0.00278
774.62472,0.00247
772.56454,0.00230
770.50437,0.00230
768.44420,0.00253
766.38403,0.00287
764.32386,0.00304
762.26368,0.00287
760.20351,0.00226
758.14334,0.00164
756.08317,0.00161
754.02299,0.00210
751.96282,0.00286
749.90265,0.00336
747.84248,0.00337
745.78231,0.00333
743.72213,0.00329
741.66196,0.00338
739.60179,0.00362
737.54162,0.00361
735.48145,0.00336
733.42127,0.00324
731.36110,0.00327
729.30093,0.00344
727.24076,0.00381
725.18059,0.00432
723.12041,0.00552
721.06024,0.00588
719.00007,0.00536
716.93990,0.00472
714.87972,0.00430
712.81955,0.00433
710.75938,0.00467
708.69921,0.00525
706.63904,0.00567
704.57886,0.00580
702.51869,0.00594
700.45852,0.00603
698.39835,0.00601
696.33818,0.00598
694.27800,0.00610
692.21783,0.00606
690.15766,0.00541
688.09749,0.00449
686.03731,0.00371
683.97714,0.00342
681.91697,0.00373
679.85680,0.00391
677.79663,0.00384
675.73645,0.00422
673.67628,0.00351
671.61611,0.00000
669.55594,0.00285
667.49577,0.00992
665.43559,0.00256
663.37542,0.00514
661.31525,0.00781
659.25508,0.00714
657.19491,0.00527
655.13473,0.00334
653.07456,0.00220
651.01439,0.00258
648.95422,0.00403
646.89404,0.00507
644.83387,0.00574
642.77370,0.00600
640.71353,0.00556
638.65336,0.00458
636.59318,0.00383
634.53301,0.00369
632.47284,0.00341
630.41267,0.00235
628.35250,0.00127
626.29232,0.00091
624.23215,0.00120
622.17198,0.00118
620.11181,0.00138
618.05164,0.00117
615.99146,0.00002
613.93129,0.00077
611.87112,0.00315
609.81095,0.00378
607.75077,0.00277
605.69060,0.00231
603.63043,0.00255
601.57026,0.00140
599.51009,0.00000
