3996.73391,0.00021
3994.67374,0.00000
3992.61357,0.00005
3990.55339,0.00030
3988.49322,0.00036
3986.43305,0.00017
3984.37288,0.00006
3982.31271,0.00013
3980.25253,0.00023
3978.19236,0.00030
3976.13219,0.00034
3974.07202,0.00045
3972.01184,0.00056
3969.95167,0.00051
3967.89150,0.00031
3965.83133,0.00019
3963.77116,0.00029
3961.71098,0.00048
3959.65081,0.00058
3957.59064,0.00058
3955.53047,0.00058
3953.47030,0.00055
3951.41012,0.00047
3949.34995,0.00045
3947.28978,0.00057
3945.22961,0.00058
3943.16943,0.00042
3941.10926,0.00031
3939.04909,0.00026
3936.98892,0.00019
3934.92875,0.00018
3932.86857,0.00044
3930.80840,0.00101
3928.74823,0.00133
3926.68806,0.00110
3924.62789,0.00061
3922.56771,0.00029
3920.50754,0.00024
3918.44737,0.00018
3916.38720,0.00013
3914.32703,0.00027
3912.26685,0.00046
3910.20668,0.00059
3908.14651,0.00063
3906.08634,0.00046
3904.02616,0.00023
3901.96599,0.00020
3899.90582,0.00033
3897.84565,0.00049
3895.78548,0.00061
3893.72530,0.00062
3891.66513,0.00053
3889.60496,0.00037
3887.54479,0.00021
3885.48462,0.00017
3883.42444,0.00020
3881.36427,0.00027
3879.30410,0.00041
3877.24393,0.00058
3875.18376,0.00071
3873.12358,0.00053
3871.06341,0.00011
3869.00324,0.00006
3866.94307,0.00046
3864.88289,0.00094
3862.82272,0.00124
3860.76255,0.00113
3858.70238,0.00061
3856.64221,0.00016
3854.58203,0.00036
3852.52186,0.00094
3850.46169,0.00089
3848.40152,0.00033
3846.34135,0.00000
3844.28117,0.00016
3842.22100,0.00061
3840.16083,0.00099
3838.10066,0.00117
3836.04048,0.00099
3833.98031,0.00057
3831.92014,0.00046
3829.85997,0.00074
3827.79980,0.00105
3825.73962,0.00129
3823.67945,0.00149
3821.61928,0.00166
3819.55911,0.00157
3817.49894,0.00106
3815.43876,0.00068
3813.37859,0.00061
3811.31842,0.00066
3809.25825,0.00091
3807.19808,0.00123
3805.13790,0.00127
3803.07773,0.00127
3801.01756,0.00147
3798.95739,0.00153
3796.89721,0.00152
3794.83704,0.00171
3792.77687,0.00183
3790.71670,0.00155
3788.65653,0.00099
3786.59635,0.00050
3784.53618,0.00032
3782.47601,0.00056
3780.41584,0.00110
3778.35567,0.00146
3776.29549,0.00136
3774.23532,0.00120
3772.17515,0.00133
3770.11498,0.00156
3768.05481,0.00155
3765.99463,0.00139
3763.93446,0.00131
3761.87429,0.00121
3759.81412,0.00100
3757.75394,0.00085
3755.69377,0.00089
3753.63360,0.00102
3751.57343,0.00092
3749.51326,0.00049
3747.45308,0.00000
3745.39291,0.00012
3743.33274,0.00097
3741.27257,0.00151
3739.21240,0.00154
3737.15222,0.00150
3735.09205,0.00163
3733.03188,0.00184
3730.97171,0.00201
3728.91153,0.00188
3726.85136,0.00172
3724.79119,0.00183
3722.73102,0.00183
3720.67085,0.00175
3718.61067,0.00165
3716.55050,0.00178
3714.49033,0.00184
3712.43016,0.00158
3710.36999,0.00160
3708.30981,0.00147
3706.24964,0.00132
3704.18947,0.00129
3702.12930,0.00139
3700.06913,0.00154
3698.00895,0.00160
3695.94878,0.00177
3693.88861,0.00183
3691.82844,0.00172
3689.76826,0.00138
3687.70809,0.00124
3685.64792,0.00122
3683.58775,0.00131
3681.52758,0.00153
3679.46740,0.00194
3677.40723,0.00214
3675.34706,0.00198
3673.28689,0.00176
3671.22672,0.00176
3669.16654,0.00193
3667.10637,0.00210
3665.04620,0.00229
3662.98603,0.00244
3660.92586,0.00256
3658.86568,0.00274
3656.80551,0.00284
3654.74534,0.00263
3652.68517,0.00229
3650.62499,0.00246
3648.56482,0.00319
3646.50465,0.00366
3644.44448,0.00364
3642.38431,0.00359
3640.32413,0.00355
3638.26396,0.00345
3636.20379,0.00345
3634.14362,0.00365
3632.08345,0.00388
3630.02327,0.00398
3627.96310,0.00410
3625.90293,0.00422
3623.84276,0.00448
3621.78258,0.00464
3619.72241,0.00457
3617.66224,0.00458
3615.60207,0.00499
3613.54190,0.00589
3611.48172,0.00629
3609.42155,0.00609
3607.36138,0.00599
3605.30121,0.00606
3603.24104,0.00617
3601.18086,0.00598
3599.12069,0.00574
3597.06052,0.00569
3595.00035,0.00600
3592.94018,0.00629
3590.88000,0.00657
3588.81983,0.00682
3586.75966,0.00733
3584.69949,0.00790
3582.63931,0.00814
3580.57914,0.00817
3578.51897,0.00816
3576.45880,0.00800
3574.39863,0.00773
3572.33845,0.00781
3570.27828,0.00831
3568.21811,0.00883
3566.15794,0.00894
3564.09777,0.00879
3562.03759,0.00888
3559.97742,0.00926
3557.91725,0.00954
3555.85708,0.00955
3553.79690,0.00953
3551.73673,0.00969
3549.67656,0.01003
3547.61639,0.01046
3545.55622,0.01097
3543.49604,0.01139
3541.43587,0.01151
3539.37570,0.01143
3537.31553,0.01127
3535.25536,0.01110
3533.19518,0.01111
3531.13501,0.01142
3529.07484,0.01175
3527.01467,0.01185
3524.95450,0.01201
3522.89432,0.01236
3520.83415,0.01267
3518.77398,0.01283
3516.71381,0.01291
3514.65363,0.01286
3512.59346,0.01277
3510.53329,0.01293
3508.47312,0.01333
3506.41295,0.01356
3504.35277,0.01349
3502.29260,0.01334
3500.23243,0.01340
3498.17226,0.01362
3496.11209,0.01377
3494.05191,0.01382
3491.99174,0.01404
3489.93157,0.01450
3487.87140,0.01483
3485.81123,0.01479
3483.75105,0.01481
3481.69088,0.01523
3479.63071,0.01567
3477.57054,0.01579
3475.51036,0.01578
3473.45019,0.01592
3471.39002,0.01602
3469.32985,0.01595
3467.26968,0.01604
3465.20950,0.01627
3463.14933,0.01634
3461.08916,0.01640
3459.02899,0.01664
3456.96882,0.01681
3454.90864,0.01665
3452.84847,0.01653
3450.78830,0.01670
3448.72813,0.01692
3446.66795,0.01715
3444.60778,0.01756
3442.54761,0.01805
3440.48744,0.01819
3438.42727,0.01801
3436.36709,0.01785
3434.30692,0.01780
3432.24675,0.01786
3430.18658,0.01808
3428.12641,0.01830
3426.06623,0.01841
3424.00606,0.01848
3421.94589,0.01864
3419.88572,0.01897
3417.82555,0.01923
3415.76537,0.01932
3413.70520,0.01936
3411.64503,0.01938
3409.58486,0.01929
3407.52468,0.01915
3405.46451,0.01917
3403.40434,0.01934
3401.34417,0.01944
3399.28400,0.01939
3397.22382,0.01941
3395.16365,0.01947
3393.10348,0.01956
3391.04331,0.01966
3388.98314,0.01965
3386.92296,0.01968
3384.86279,0.01996
3382.80262,0.02024
3380.74245,0.02028
3378.68228,0.02025
3376.62210,0.02036
3374.56193,0.02057
3372.50176,0.02064
3370.44159,0.02063
3368.38141,0.02071
3366.32124,0.02068
3364.26107,0.02050
3362.20090,0.02044
3360.14073,0.02063
3358.08055,0.02081
3356.02038,0.02082
3353.96021,0.02089
3351.90004,0.02090
3349.83987,0.02079
3347.77969,0.02091
3345.71952,0.02128
3343.65935,0.02158
3341.59918,0.02155
3339.53900,0.02124
3337.47883,0.02116
3335.41866,0.02135
3333.35849,0.02141
3331.29832,0.02129
3329.23814,0.02126
3327.17797,0.02136
3325.11780,0.02150
3323.05763,0.02167
3320.99746,0.02182
3318.93728,0.02186
3316.87711,0.02189
3314.81694,0.02209
3312.75677,0.02232
3310.69660,0.02224
3308.63642,0.02204
3306.57625,0.02200
3304.51608,0.02209
3302.45591,0.02214
3300.39573,0.02205
3298.33556,0.02194
3296.27539,0.02203
3294.21522,0.02220
3292.15505,0.02219
3290.09487,0.02220
3288.03470,0.02245
3285.97453,0.02256
3283.91436,0.02241
3281.85419,0.02237
3279.79401,0.02243
3277.73384,0.02245
3275.67367,0.02249
3273.61350,0.02250
3271.55333,0.02246
3269.49315,0.02247
3267.43298,0.02248
3265.37281,0.02248
3263.31264,0.02250
3261.25246,0.02248
3259.19229,0.02239
3257.13212,0.02232
3255.07195,0.02234
3253.01178,0.02240
3250.95160,0.02248
3248.89143,0.02247
3246.83126,0.02236
3244.77109,0.02239
3242.71092,0.02257
3240.65074,0.02264
3238.59057,0.02256
3236.53040,0.02246
3234.47023,0.02238
3232.41005,0.02232
3230.34988,0.02229
3228.28971,0.02218
3226.22954,0.02212
3224.16937,0.02219
3222.10919,0.02222
3220.04902,0.02226
3217.98885,0.02243
3215.92868,0.02258
3213.86851,0.02262
3211.80833,0.02258
3209.74816,0.02247
3207.68799,0.02229
3205.62782,0.02218
3203.56765,0.02211
3201.50747,0.02202
3199.44730,0.02203
3197.38713,0.02226
3195.32696,0.02250
3193.26678,0.02255
3191.20661,0.02238
3189.14644,0.02208
3187.08627,0.02193
3185.02610,0.02201
3182.96592,0.02215
3180.90575,0.02237
3178.84558,0.02255
3176.78541,0.02242
3174.72524,0.02220
3172.66506,0.02211
3170.60489,0.02201
3168.54472,0.02183
3166.48455,0.02180
3164.42437,0.02202
3162.36420,0.02217
3160.30403,0.02198
3158.24386,0.02163
3156.18369,0.02153
3154.12351,0.02170
3152.06334,0.02169
3150.00317,0.02151
3147.94300,0.02149
3145.88283,0.02157
3143.82265,0.02156
3141.76248,0.02145
3139.70231,0.02140
3137.64214,0.02150
3135.58197,0.02156
3133.52179,0.02150
3131.46162,0.02141
3129.40145,0.02118
3127.34128,0.02094
3125.28110,0.02090
3123.22093,0.02088
3121.16076,0.02079
3119.10059,0.02089
3117.04042,0.02105
3114.98024,0.02096
3112.92007,0.02057
3110.85990,0.02022
3108.79973,0.02017
3106.73956,0.02032
3104.67938,0.02046
3102.61921,0.02048
3100.55904,0.02024
3098.49887,0.01980
3096.43870,0.01959
3094.37852,0.01971
3092.31835,0.01989
3090.25818,0.02002
3088.19801,0.01994
3086.13783,0.01972
3084.07766,0.01971
3082.01749,0.01978
3079.95732,0.01970
3077.89715,0.01967
3075.83697,0.01983
3073.77680,0.01988
3071.71663,0.01956
3069.65646,0.01915
3067.59629,0.01902
3065.53611,0.01912
3063.47594,0.01923
3061.41577,0.01920
3059.35560,0.01902
3057.29542,0.01884
3055.23525,0.01886
3053.17508,0.01888
3051.11491,0.01870
3049.05474,0.01851
3046.99456,0.01850
3044.93439,0.01856
3042.87422,0.01848
3040.81405,0.01824
3038.75388,0.01806
3036.69370,0.01799
3034.63353,0.01796
3032.57336,0.01794
3030.51319,0.01784
3028.45302,0.01772
3026.39284,0.01782
3024.33267,0.01799
3022.27250,0.01789
3020.21233,0.01757
3018.15215,0.01723
3016.09198,0.01698
3014.03181,0.01695
3011.97164,0.01703
3009.91147,0.01690
3007.85129,0.01666
3005.79112,0.01664
3003.73095,0.01676
3001.67078,0.01677
2999.61061,0.01660
2997.55043,0.01629
2995.49026,0.01610
2993.43009,0.01610
2991.36992,0.01620
2989.30975,0.01625
2987.24957,0.01623
2985.18940,0.01617
2983.12923,0.01595
2981.06906,0.01576
2979.00888,0.01575
2976.94871,0.01579
2974.88854,0.01584
2972.82837,0.01586
2970.76820,0.01579
2968.70802,0.01573
2966.64785,0.01573
2964.58768,0.01570
2962.52751,0.01562
2960.46734,0.01565
2958.40716,0.01575
2956.34699,0.01572
2954.28682,0.01562
2952.22665,0.01555
2950.16647,0.01543
2948.10630,0.01545
2946.04613,0.01550
2943.98596,0.01538
2941.92579,0.01528
2939.86561,0.01525
2937.80544,0.01525
2935.74527,0.01519
2933.68510,0.01509
2931.62493,0.01502
2929.56475,0.01491
2927.50458,0.01469
2925.44441,0.01452
2923.38424,0.01454
2921.32407,0.01463
2919.26389,0.01468
2917.20372,0.01471
2915.14355,0.01478
2913.08338,0.01482
2911.02320,0.01472
2908.96303,0.01452
2906.90286,0.01435
2904.84269,0.01429
2902.78252,0.01418
2900.72234,0.01409
2898.66217,0.01424
2896.60200,0.01428
2894.54183,0.01401
2892.48166,0.01383
2890.42148,0.01374
2888.36131,0.01352
2886.30114,0.01333
2884.24097,0.01334
2882.18080,0.01342
2880.12062,0.01338
2878.06045,0.01319
2876.00028,0.01313
2873.94011,0.01334
2871.87993,0.01351
2869.81976,0.01338
2867.75959,0.01304
2865.69942,0.01274
2863.63925,0.01263
2861.57907,0.01253
2859.51890,0.01244
2857.45873,0.01237
2855.39856,0.01219
2853.33839,0.01208
2851.27821,0.01213
2849.21804,0.01219
2847.15787,0.01222
2845.09770,0.01217
2843.03752,0.01192
2840.97735,0.01160
2838.91718,0.01149
2836.85701,0.01165
2834.79684,0.01178
2832.73666,0.01175
2830.67649,0.01168
2828.61632,0.01162
2826.55615,0.01156
2824.49598,0.01147
2822.43580,0.01136
2820.37563,0.01129
2818.31546,0.01123
2816.25529,0.01114
2814.19512,0.01100
2812.13494,0.01092
2810.07477,0.01089
2808.01460,0.01087
2805.95443,0.01075
2803.89425,0.01055
2801.83408,0.01043
2799.77391,0.01048
2797.71374,0.01058
2795.65357,0.01057
2793.59339,0.01040
2791.53322,0.01020
2789.47305,0.01012
2787.41288,0.01009
2785.35271,0.01000
2783.29253,0.00994
2781.23236,0.00998
2779.17219,0.01005
2777.11202,0.01000
2775.05184,0.00991
2772.99167,0.00985
2770.93150,0.00976
2768.87133,0.00964
2766.81116,0.00956
2764.75098,0.00952
2762.69081,0.00949
2760.63064,0.00940
2758.57047,0.00928
2756.51030,0.00927
2754.45012,0.00930
2752.38995,0.00928
2750.32978,0.00924
2748.26961,0.00924
2746.20944,0.00917
2744.14926,0.00906
2742.08909,0.00895
2740.02892,0.00889
2737.96875,0.00886
2735.90857,0.00877
2733.84840,0.00872
2731.78823,0.00880
2729.72806,0.00885
2727.66789,0.00877
2725.60771,0.00865
2723.54754,0.00856
2721.48737,0.00855
2719.42720,0.00860
2717.36703,0.00859
2715.30685,0.00849
2713.24668,0.00833
2711.18651,0.00816
2709.12634,0.00806
2707.06617,0.00799
2705.00599,0.00790
2702.94582,0.00782
2700.88565,0.00783
2698.82548,0.00789
2696.76530,0.00790
2694.70513,0.00789
2692.64496,0.00785
2690.58479,0.00773
2688.52462,0.00760
2686.46444,0.00754
2684.40427,0.00754
2682.34410,0.00753
2680.28393,0.00748
2678.22376,0.00750
2676.16358,0.00753
2674.10341,0.00737
2672.04324,0.00712
2669.98307,0.00705
2667.92289,0.00713
2665.86272,0.00716
2663.80255,0.00724
2661.74238,0.00735
2659.68221,0.00725
2657.62203,0.00705
2655.56186,0.00697
2653.50169,0.00705
2651.44152,0.00718
2649.38135,0.00719
2647.32117,0.00711
2645.26100,0.00710
2643.20083,0.00708
2641.14066,0.00690
2639.08049,0.00663
2637.02031,0.00655
2634.96014,0.00663
2632.89997,0.00664
2630.83980,0.00665
2628.77962,0.00658
2626.71945,0.00626
2624.65928,0.00604
2622.59911,0.00610
2620.53894,0.00613
2618.47876,0.00608
2616.41859,0.00605
2614.35842,0.00591
2612.29825,0.00584
2610.23808,0.00604
2608.17790,0.00615
2606.11773,0.00595
2604.05756,0.00578
2601.99739,0.00576
2599.93722,0.00568
2597.87704,0.00556
2595.81687,0.00549
2593.75670,0.00546
2591.69653,0.00551
2589.63635,0.00554
2587.57618,0.00554
2585.51601,0.00563
2583.45584,0.00555
2581.39567,0.00527
2579.33549,0.00515
2577.27532,0.00523
2575.21515,0.00546
2573.15498,0.00577
2571.09481,0.00578
2569.03463,0.00547
2566.97446,0.00548
2564.91429,0.00587
2562.85412,0.00595
2560.79394,0.00563
2558.73377,0.00537
2556.67360,0.00522
2554.61343,0.00516
2552.55326,0.00520
2550.49308,0.00521
2548.43291,0.00514
2546.37274,0.00494
2544.31257,0.00484
2542.25240,0.00504
2540.19222,0.00536
2538.13205,0.00547
2536.07188,0.00526
2534.01171,0.00502
2531.95154,0.00521
2529.89136,0.00549
2527.83119,0.00528
2525.77102,0.00496
2523.71085,0.00495
2521.65067,0.00510
2519.59050,0.00519
2517.53033,0.00512
2515.47016,0.00495
2513.40999,0.00486
2511.34981,0.00517
2509.28964,0.00565
2507.22947,0.00575
2505.16930,0.00565
2503.10913,0.00562
2501.04895,0.00538
2498.98878,0.00489
2496.92861,0.00478
2494.86844,0.00517
2492.80827,0.00551
2490.74809,0.00549
2488.68792,0.00528
2486.62775,0.00539
2484.56758,0.00577
2482.50740,0.00588
2480.44723,0.00585
2478.38706,0.00576
2476.32689,0.00550
2474.26672,0.00532
2472.20654,0.00546
2470.14637,0.00550
2468.08620,0.00522
2466.02603,0.00513
2463.96586,0.00534
2461.90568,0.00556
2459.84551,0.00569
2457.78534,0.00566
2455.72517,0.00551
2453.66499,0.00561
2451.60482,0.00583
2449.54465,0.00573
2447.48448,0.00555
2445.42431,0.00555
2443.36413,0.00557
2441.30396,0.00560
2439.24379,0.00572
2437.18362,0.00578
2435.12345,0.00576
2433.06327,0.00572
2431.00310,0.00570
2428.94293,0.00567
2426.88276,0.00559
2424.82259,0.00566
2422.76241,0.00608
2420.70224,0.00643
2418.64207,0.00615
2416.58190,0.00551
2414.52172,0.00526
2412.46155,0.00540
2410.40138,0.00551
2408.34121,0.00565
2406.28104,0.00577
2404.22086,0.00569
2402.16069,0.00563
2400.10052,0.00572
2398.04035,0.00592
2395.98018,0.00608
2393.92000,0.00587
2391.85983,0.00550
2389.79966,0.00547
2387.73949,0.00575
2385.67931,0.00627
2383.61914,0.00677
2381.55897,0.00694
2379.49880,0.00676
2377.43863,0.00659
2375.37845,0.00539
2373.31828,0.00463
2371.25811,0.00493
2369.19794,0.00447
2367.13777,0.00461
2365.07759,0.00551
2363.01742,0.00337
2360.95725,0.00652
2358.89708,0.00663
2356.83691,0.00409
2354.77673,0.00174
2352.71656,0.00339
2350.65639,0.01389
2348.59622,0.01910
2346.53604,0.00509
2344.47587,0.00206
2342.41570,0.00526
2340.35553,0.00675
2338.29536,0.00746
2336.23518,0.00686
2334.17501,0.00674
2332.11484,0.00679
2330.05467,0.00789
2327.99450,0.00782
2325.93432,0.00950
2323.87415,0.00808
2321.81398,0.00680
2319.75381,0.00535
2317.69364,0.00734
2315.63346,0.00774
2313.57329,0.00675
2311.51312,0.00675
2309.45295,0.00682
2307.39277,0.00650
2305.33260,0.00621
2303.27243,0.00636
2301.21226,0.00606
2299.15209,0.00614
2297.09191,0.00619
2295.03174,0.00590
2292.97157,0.00597
2290.91140,0.00626
2288.85123,0.00631
2286.79105,0.00615
2284.73088,0.00600
2282.67071,0.00597
2280.61054,0.00595
2278.55036,0.00580
2276.49019,0.00542
2274.43002,0.00486
2272.36985,0.00421
2270.30968,0.00399
2268.24950,0.00424
2266.18933,0.00471
2264.12916,0.00501
2262.06899,0.00490
2260.00882,0.00470
2257.94864,0.00495
2255.88847,0.00493
2253.82830,0.00449
2251.76813,0.00438
2249.70796,0.00474
2247.64778,0.00478
2245.58761,0.00425
2243.52744,0.00421
2241.46727,0.00461
2239.40709,0.00487
2237.34692,0.00473
2235.28675,0.00433
2233.22658,0.00423
2231.16641,0.00418
2229.10623,0.00405
2227.04606,0.00458
2224.98589,0.00497
2222.92572,0.00432
2220.86555,0.00391
2218.80537,0.00446
2216.74520,0.00497
2214.68503,0.00488
2212.62486,0.00452
2210.56469,0.00408
2208.50451,0.00359
2206.44434,0.00318
2204.38417,0.00301
2202.32400,0.00335
2200.26382,0.00383
2198.20365,0.00362
2196.14348,0.00286
2194.08331,0.00193
2192.02314,0.00130
2189.96296,0.00153
2187.90279,0.00228
2185.84262,0.00308
2183.78245,0.00340
2181.72228,0.00325
2179.66210,0.00326
2177.60193,0.00295
2175.54176,0.00296
2173.48159,0.00438
2171.42141,0.00581
2169.36124,0.00581
2167.30107,0.00492
2165.24090,0.00428
2163.18073,0.00374
2161.12055,0.00254
2159.06038,0.00163
2157.00021,0.00191
2154.94004,0.00194
2152.87987,0.00134
2150.81969,0.00130
2148.75952,0.00147
2146.69935,0.00151
2144.63918,0.00197
2142.57901,0.00214
2140.51883,0.00183
2138.45866,0.00178
2136.39849,0.00189
2134.33832,0.00194
2132.27814,0.00214
2130.21797,0.00220
2128.15780,0.00169
2126.09763,0.00118
2124.03746,0.00139
2121.97728,0.00211
2119.91711,0.00295
2117.85694,0.00361
2115.79677,0.00376
2113.73660,0.00346
2111.67642,0.00315
2109.61625,0.00299
2107.55608,0.00283
2105.49591,0.00276
2103.43573,0.00300
2101.37556,0.00320
2099.31539,0.00304
2097.25522,0.00286
2095.19505,0.00258
2093.13487,0.00218
2091.07470,0.00223
2089.01453,0.00261
2086.95436,0.00255
2084.89419,0.00202
2082.83401,0.00172
2080.77384,0.00189
2078.71367,0.00224
2076.65350,0.00253
2074.59333,0.00273
2072.53315,0.00267
2070.47298,0.00243
2068.41281,0.00261
2066.35264,0.00294
2064.29246,0.00267
2062.23229,0.00225
2060.17212,0.00236
2058.11195,0.00271
2056.05178,0.00294
2053.99160,0.00302
2051.93143,0.00277
2049.87126,0.00247
2047.81109,0.00262
2045.75092,0.00336
2043.69074,0.00413
2041.63057,0.00396
2039.57040,0.00281
2037.51023,0.00199
2035.45006,0.00209
2033.38988,0.00222
2031.32971,0.00209
2029.26954,0.00235
2027.20937,0.00323
2025.14919,0.00335
2023.08902,0.00194
2021.02885,0.00117
2018.96868,0.00190
2016.90851,0.00257
2014.84833,0.00231
2012.78816,0.00164
2010.72799,0.00105
2008.66782,0.00063
2006.60765,0.00072
2004.54747,0.00102
2002.48730,0.00082
2000.42713,0.00047
1998.36696,0.00082
1996.30678,0.00160
1994.24661,0.00171
1992.18644,0.00138
1990.12627,0.00140
1988.06610,0.00140
1986.00592,0.00124
1983.94575,0.00114
1981.88558,0.00106
1979.82541,0.00121
1977.76524,0.00206
1975.70506,0.00316
1973.64489,0.00313
1971.58472,0.00217
1969.52455,0.00145
1967.46438,0.00105
1965.40420,0.00086
1963.34403,0.00113
1961.28386,0.00179
1959.22369,0.00198
1957.16351,0.00176
1955.10334,0.00180
1953.04317,0.00174
1950.98300,0.00174
1948.92283,0.00218
1946.86265,0.00212
1944.80248,0.00151
1942.74231,0.00159
1940.68214,0.00232
1938.62197,0.00277
1936.56179,0.00280
1934.50162,0.00276
1932.44145,0.00276
1930.38128,0.00271
1928.32111,0.00251
1926.26093,0.00223
1924.20076,0.00223
1922.14059,0.00260
1920.08042,0.00296
1918.02024,0.00310
1915.96007,0.00303
1913.89990,0.00292
1911.83973,0.00298
1909.77956,0.00310
1907.71938,0.00301
1905.65921,0.00301
1903.59904,0.00321
1901.53887,0.00302
1899.47870,0.00241
1897.41852,0.00204
1895.35835,0.00222
1893.29818,0.00257
1891.23801,0.00255
1889.17783,0.00238
1887.11766,0.00256
1885.05749,0.00286
1882.99732,0.00293
1880.93715,0.00280
1878.87697,0.00261
1876.81680,0.00249
1874.75663,0.00248
1872.69646,0.00245
1870.63629,0.00235
1868.57611,0.00233
1866.51594,0.00253
1864.45577,0.00289
1862.39560,0.00329
1860.33543,0.00356
1858.27525,0.00354
1856.21508,0.00327
1854.15491,0.00305
1852.09474,0.00301
1850.03456,0.00289
1847.97439,0.00249
1845.91422,0.00218
1843.85405,0.00236
1841.79388,0.00273
1839.73370,0.00288
1837.67353,0.00281
1835.61336,0.00269
1833.55319,0.00264
1831.49302,0.00273
1829.43284,0.00288
1827.37267,0.00298
1825.31250,0.00301
1823.25233,0.00301
1821.19216,0.00307
1819.13198,0.00321
1817.07181,0.00331
1815.01164,0.00332
1812.95147,0.00325
1810.89129,0.00309
1808.83112,0.00300
1806.77095,0.00312
1804.71078,0.00333
1802.65061,0.00348
1800.59043,0.00357
1798.53026,0.00355
1796.47009,0.00346
1794.40992,0.00343
1792.34975,0.00338
1790.28957,0.00333
1788.22940,0.00337
1786.16923,0.00350
1784.10906,0.00364
1782.04888,0.00380
1779.98871,0.00390
1777.92854,0.00388
1775.86837,0.00382
1773.80820,0.00371
1771.74802,0.00359
1769.68785,0.00360
1767.62768,0.00371
1765.56751,0.00387
1763.50734,0.00409
1761.44716,0.00431
1759.38699,0.00442
1757.32682,0.00451
1755.26665,0.00464
1753.20648,0.00474
1751.14630,0.00477
1749.08613,0.00469
1747.02596,0.00458
1744.96579,0.00460
1742.90561,0.00475
1740.84544,0.00490
1738.78527,0.00501
1736.72510,0.00511
1734.66493,0.00519
1732.60475,0.00520
1730.54458,0.00516
1728.48441,0.00520
1726.42424,0.00531
1724.36407,0.00544
1722.30389,0.00554
1720.24372,0.00557
1718.18355,0.00552
1716.12338,0.00560
1714.06320,0.00598
1712.00303,0.00631
1709.94286,0.00637
1707.88269,0.00639
1705.82252,0.00645
1703.76234,0.00647
1701.70217,0.00665
1699.64200,0.00711
1697.58183,0.00749
1695.52166,0.00777
1693.46148,0.00810
1691.40131,0.00835
1689.34114,0.00852
1687.28097,0.00879
1685.22080,0.00925
1683.16062,0.00979
1681.10045,0.01020
1679.04028,0.01064
1676.98011,0.01115
1674.91993,0.01152
1672.85976,0.01169
1670.79959,0.01192
1668.73942,0.01235
1666.67925,0.01269
1664.61907,0.01285
1662.55890,0.01306
1660.49873,0.01337
1658.43856,0.01361
1656.37839,0.01383
1654.31821,0.01417
1652.25804,0.01443
1650.19787,0.01436
1648.13770,0.01412
1646.07753,0.01383
1644.01735,0.01362
1641.95718,0.01357
1639.89701,0.01361
1637.83684,0.01359
1635.77666,0.01342
1633.71649,0.01317
1631.65632,0.01295
1629.59615,0.01279
1627.53598,0.01265
1625.47580,0.01244
1623.41563,0.01209
1621.35546,0.01181
1619.29529,0.01177
1617.23512,0.01176
1615.17494,0.01158
1613.11477,0.01142
1611.05460,0.01141
1608.99443,0.01144
1606.93425,0.01139
1604.87408,0.01122
1602.81391,0.01093
1600.75374,0.01065
1598.69357,0.01044
1596.63339,0.01029
1594.57322,0.01015
1592.51305,0.01008
1590.45288,0.01007
1588.39271,0.01006
1586.33253,0.01002
1584.27236,0.00996
1582.21219,0.00986
1580.15202,0.00970
1578.09185,0.00944
1576.03167,0.00913
1573.97150,0.00892
1571.91133,0.00885
1569.85116,0.00882
1567.79098,0.00872
1565.73081,0.00862
1563.67064,0.00870
1561.61047,0.00902
1559.55030,0.00932
1557.49012,0.00918
1555.42995,0.00884
1553.36978,0.00859
1551.30961,0.00844
1549.24944,0.00839
1547.18926,0.00842
1545.12909,0.00849
1543.06892,0.00848
1541.00875,0.00834
1538.94858,0.00815
1536.88840,0.00794
1534.82823,0.00781
1532.76806,0.00774
1530.70789,0.00764
1528.64771,0.00755
1526.58754,0.00750
1524.52737,0.00746
1522.46720,0.00736
1520.40703,0.00718
1518.34685,0.00708
1516.28668,0.00703
1514.22651,0.00689
1512.16634,0.00667
1510.10617,0.00652
1508.04599,0.00648
1505.98582,0.00647
1503.92565,0.00640
1501.86548,0.00628
1499.80530,0.00623
1497.74513,0.00624
1495.68496,0.00623
1493.62479,0.00620
1491.56462,0.00608
1489.50444,0.00586
1487.44427,0.00572
1485.38410,0.00566
1483.32393,0.00566
1481.26376,0.00577
1479.20358,0.00595
1477.14341,0.00599
1475.08324,0.00590
1473.02307,0.00595
1470.96290,0.00622
1468.90272,0.00638
1466.84255,0.00637
1464.78238,0.00638
1462.72221,0.00649
1460.66203,0.00664
1458.60186,0.00678
1456.54169,0.00685
1454.48152,0.00680
1452.42135,0.00666
1450.36117,0.00651
1448.30100,0.00645
1446.24083,0.00649
1444.18066,0.00654
1442.12049,0.00654
1440.06031,0.00651
1438.00014,0.00652
1435.93997,0.00656
1433.87980,0.00658
1431.81963,0.00661
1429.75945,0.00678
1427.69928,0.00694
1425.63911,0.00697
1423.57894,0.00695
1421.51876,0.00704
1419.45859,0.00724
1417.39842,0.00744
1415.33825,0.00751
1413.27808,0.00749
1411.21790,0.00747
1409.15773,0.00747
1407.09756,0.00748
1405.03739,0.00745
1402.97722,0.00734
1400.91704,0.00713
1398.85687,0.00697
1396.79670,0.00698
1394.73653,0.00701
1392.67635,0.00690
1390.61618,0.00676
1388.55601,0.00667
1386.49584,0.00665
1384.43567,0.00673
1382.37549,0.00683
1380.31532,0.00690
1378.25515,0.00696
1376.19498,0.00706
1374.13481,0.00709
1372.07463,0.00701
1370.01446,0.00690
1367.95429,0.00682
1365.89412,0.00684
1363.83395,0.00692
1361.77377,0.00694
1359.71360,0.00688
1357.65343,0.00678
1355.59326,0.00669
1353.53308,0.00662
1351.47291,0.00657
1349.41274,0.00655
1347.35257,0.00652
1345.29240,0.00653
1343.23222,0.00656
1341.17205,0.00659
1339.11188,0.00660
1337.05171,0.00656
1334.99154,0.00642
1332.93136,0.00631
1330.87119,0.00634
1328.81102,0.00646
1326.75085,0.00652
1324.69067,0.00650
1322.63050,0.00643
1320.57033,0.00637
1318.51016,0.00644
1316.44999,0.00663
1314.38981,0.00673
1312.32964,0.00670
1310.26947,0.00672
1308.20930,0.00687
1306.14913,0.00699
1304.08895,0.00694
1302.02878,0.00689
1299.96861,0.00706
1297.90844,0.00721
1295.84827,0.00722
1293.78809,0.00726
1291.72792,0.00737
1289.66775,0.00741
1287.60758,0.00733
1285.54740,0.00722
1283.48723,0.00716
1281.42706,0.00714
1279.36689,0.00717
1277.30672,0.00731
1275.24654,0.00745
1273.18637,0.00739
1271.12620,0.00723
1269.06603,0.00721
1267.00586,0.00730
1264.94568,0.00734
1262.88551,0.00737
1260.82534,0.00748
1258.76517,0.00766
1256.70500,0.00777
1254.64482,0.00773
1252.58465,0.00767
1250.52448,0.00765
1248.46431,0.00763
1246.40413,0.00760
1244.34396,0.00755
1242.28379,0.00756
1240.22362,0.00754
1238.16345,0.00736
1236.10327,0.00710
1234.04310,0.00691
1231.98293,0.00682
1229.92276,0.00678
1227.86259,0.00672
1225.80241,0.00665
1223.74224,0.00661
1221.68207,0.00658
1219.62190,0.00650
1217.56172,0.00637
1215.50155,0.00620
1213.44138,0.00605
1211.38121,0.00598
1209.32104,0.00596
1207.26086,0.00586
1205.20069,0.00568
1203.14052,0.00562
1201.08035,0.00560
1199.02018,0.00558
1196.96000,0.00569
1194.89983,0.00590
1192.83966,0.00599
1190.77949,0.00602
1188.71932,0.00600
1186.65914,0.00596
1184.59897,0.00609
1182.53880,0.00636
1180.47863,0.00662
1178.41845,0.00688
1176.35828,0.00717
1174.29811,0.00751
1172.23794,0.00784
1170.17777,0.00808
1168.11759,0.00816
1166.05742,0.00826
1163.99725,0.00856
1161.93708,0.00898
1159.87691,0.00934
1157.81673,0.00965
1155.75656,0.01000
1153.69639,0.01046
1151.63622,0.01091
1149.57605,0.01126
1147.51587,0.01164
1145.45570,0.01215
1143.39553,0.01267
1141.33536,0.01319
1139.27518,0.01373
1137.21501,0.01430
1135.15484,0.01499
1133.09467,0.01567
1131.03450,0.01620
1128.97432,0.01669
1126.91415,0.01733
1124.85398,0.01820
1122.79381,0.01920
1120.73364,0.02010
1118.67346,0.02081
1116.61329,0.02153
1114.55312,0.02229
1112.49295,0.02297
1110.43277,0.02372
1108.37260,0.02458
1106.31243,0.02539
1104.25226,0.02615
1102.19209,0.02677
1100.13191,0.02726
1098.07174,0.02785
1096.01157,0.02857
1093.95140,0.02926
1091.89123,0.02982
1089.83105,0.03024
1087.77088,0.03073
1085.71071,0.03131
1083.65054,0.03190
1081.59037,0.03254
1079.53019,0.03308
1077.47002,0.03342
1075.40985,0.03363
1073.34968,0.03384
1071.28950,0.03404
1069.22933,0.03415
1067.16916,0.03426
1065.10899,0.03444
1063.04882,0.03448
1060.98864,0.03434
1058.92847,0.03409
1056.86830,0.03388
1054.80813,0.03379
1052.74796,0.03340
1050.68778,0.03257
1048.62761,0.03161
1046.56744,0.03069
1044.50727,0.02980
1042.44710,0.02899
1040.38692,0.02827
1038.32675,0.02736
1036.26658,0.02619
1034.20641,0.02510
1032.14623,0.02415
1030.08606,0.02325
1028.02589,0.02240
1025.96572,0.02163
1023.90555,0.02106
1021.84537,0.02060
1019.78520,0.02005
1017.72503,0.01946
1015.66486,0.01896
1013.60469,0.01861
1011.54451,0.01856
1009.48434,0.01883
1007.42417,0.01910
1005.36400,0.01938
1003.30382,0.01994
1001.24365,0.02071
999.18348,0.02146
997.12331,0.02203
995.06314,0.02253
993.00296,0.02319
990.94279,0.02385
988.88262,0.02434
986.82245,0.02478
984.76228,0.02520
982.70210,0.02555
980.64193,0.02578
978.58176,0.02574
976.52159,0.02560
974.46142,0.02565
972.40124,0.02557
970.34107,0.02499
968.28090,0.02427
966.22073,0.02381
964.16055,0.02341
962.10038,0.02284
960.04021,0.02224
957.98004,0.02159
955.91987,0.02084
953.85969,0.02016
951.79952,0.01959
949.73935,0.01904
947.67918,0.01843
945.61901,0.01763
943.55883,0.01704
941.49866,0.01684
939.43849,0.01649
937.37832,0.01591
935.31814,0.01547
933.25797,0.01507
931.19780,0.01459
929.13763,0.01432
927.07746,0.01420
925.01728,0.01384
922.95711,0.01349
920.89694,0.01345
918.83677,0.01346
916.77660,0.01340
914.71642,0.01334
912.65625,0.01324
910.59608,0.01305
908.53591,0.01281
906.47574,0.01267
904.41556,0.01268
902.35539,0.01274
900.29522,0.01293
898.23505,0.01322
896.17487,0.01348
894.11470,0.01371
892.05453,0.01391
889.99436,0.01415
887.93419,0.01456
885.87401,0.01491
883.81384,0.01497
881.75367,0.01518
879.69350,0.01567
877.63333,0.01615
875.57315,0.01663
873.51298,0.01700
871.45281,0.01728
869.39264,0.01764
867.33247,0.01789
865.27229,0.01803
863.21212,0.01830
861.15195,0.01864
859.09178,0.01895
857.03160,0.01933
854.97143,0.01965
852.91126,0.01978
850.85109,0.01974
848.79092,0.01952
846.73074,0.01923
844.67057,0.01887
842.61040,0.01854
840.55023,0.01862
838.49006,0.01881
836.42988,0.01832
834.36971,0.01739
832.30954,0.01678
830.24937,0.01652
828.18919,0.01636
826.12902,0.01611
824.06885,0.01577
822.00868,0.01536
819.94851,0.01496
817.88833,0.01480
815.82816,0.01490
813.76799,0.01503
811.70782,0.01503
809.64765,0.01479
807.58747,0.01445
805.52730,0.01427
803.46713,0.01410
801.40696,0.01395
799.34679,0.01397
797.28661,0.01376
795.22644,0.01343
793.16627,0.01355
791.10610,0.01388
789.04592,0.01404
786.98575,0.01405
784.92558,0.01386
782.86541,0.01377
780.80524,0.01403
778.74506,0.01416
776.68489,0.01396
774.62472,0.01388
772.56455,0.01411
770.50438,0.01427
768.44420,0.01401
766.38403,0.01337
764.32386,0.01307
762.26369,0.01345
760.20352,0.01375
758.14334,0.01331
756.08317,0.01260
754.02300,0.01248
751.96283,0.01312
749.90265,0.01376
747.84248,0.01388
745.78231,0.01383
743.72214,0.01376
741.66197,0.01363
739.60179,0.01337
737.54162,0.01319
735.48145,0.01354
733.42128,0.01394
731.36111,0.01392
729.30093,0.01381
727.24076,0.01382
725.18059,0.01403
723.12042,0.01495
721.06024,0.01375
719.00007,0.01442
716.93990,0.01450
714.87973,0.01357
712.81956,0.01344
710.75938,0.01401
708.69921,0.01468
706.63904,0.01522
704.57887,0.01579
702.51870,0.01626
700.45852,0.01644
698.39835,0.01622
696.33818,0.01592
694.27801,0.01636
692.21784,0.01749
690.15766,0.01859
688.09749,0.01959
686.03732,0.02042
683.97715,0.02063
681.91697,0.02020
679.85680,0.01956
677.79663,0.01895
675.73646,0.01875
673.67629,0.02295
671.61611,0.03183
669.55594,0.01910
667.49577,0.00000
665.43560,0.02732
663.37543,0.02303
661.31525,0.01548
659.25508,0.01517
657.19491,0.01642
655.13474,0.01707
653.07457,0.01726
651.01439,0.01627
648.95422,0.01377
646.89405,0.01240
644.83388,0.01100
642.77370,0.00982
640.71353,0.00870
638.65336,0.00738
636.59319,0.00636
634.53302,0.00586
632.47284,0.00550
630.41267,0.00466
628.35250,0.00283
626.29233,0.00159
624.23216,0.00326
622.17198,0.00590
620.11181,0.00630
618.05164,0.00449
615.99147,0.00252
613.93129,0.00126
611.87112,0.00051
609.81095,0.00040
607.75078,0.00061
605.69061,0.00080
603.63043,0.00131
601.57026,0.00130
599.51009,0.00000
