3996.73391,0.00000
3994.67374,0.00014
3992.61357,0.00031
3990.55339,0.00041
3988.49322,0.00044
3986.43305,0.00041
3984.37288,0.00041
3982.31271,0.00044
3980.25253,0.00048
3978.19236,0.00052
3976.13219,0.00047
3974.07202,0.00036
3972.01184,0.00046
3969.95167,0.00084
3967.89150,0.00104
3965.83133,0.00078
3963.77116,0.00042
3961.71098,0.00035
3959.65081,0.00038
3957.59064,0.00038
3955.53047,0.00049
3953.47030,0.00068
3951.41012,0.00066
3949.34995,0.00052
3947.28978,0.00058
3945.22961,0.00068
3943.16943,0.00061
3941.10926,0.00053
3939.04909,0.00063
3936.98892,0.00079
3934.92875,0.00083
3932.86857,0.00080
3930.80840,0.00089
3928.74823,0.00094
3926.68806,0.00077
3924.62789,0.00050
3922.56771,0.00039
3920.50754,0.00050
3918.44737,0.00058
3916.38720,0.00058
3914.32703,0.00065
3912.26685,0.00080
3910.20668,0.00090
3908.14651,0.00089
3906.08634,0.00076
3904.02616,0.00062
3901.96599,0.00072
3899.90582,0.00090
3897.84565,0.00092
3895.78548,0.00088
3893.72530,0.00083
3891.66513,0.00068
3889.60496,0.00043
3887.54479,0.00032
3885.48462,0.00048
3883.42444,0.00073
3881.36427,0.00081
3879.30410,0.00067
3877.24393,0.00055
3875.18376,0.00058
3873.12358,0.00051
3871.06341,0.00028
3869.00324,0.00019
3866.94307,0.00025
3864.88289,0.00027
3862.82272,0.00037
3860.76255,0.00057
3858.70238,0.00063
3856.64221,0.00054
3854.58203,0.00055
3852.52186,0.00058
3850.46169,0.00042
3848.40152,0.00027
3846.34135,0.00041
3844.28117,0.00074
3842.22100,0.00103
3840.16083,0.00113
3838.10066,0.00094
3836.04048,0.00066
3833.98031,0.00071
3831.92014,0.00103
3829.85997,0.00122
3827.79980,0.00119
3825.73962,0.00120
3823.67945,0.00135
3821.61928,0.00144
3819.55911,0.00115
3817.49894,0.00067
3815.43876,0.00040
3813.37859,0.00040
3811.31842,0.00061
3809.25825,0.00106
3807.19808,0.00137
3805.13790,0.00128
3803.07773,0.00130
3801.01756,0.00155
3798.95739,0.00150
3796.89721,0.00126
3794.83704,0.00123
3792.77687,0.00141
3790.71670,0.00156
3788.65653,0.00147
3786.59635,0.00108
3784.53618,0.00067
3782.47601,0.00068
3780.41584,0.00106
3778.35567,0.00130
3776.29549,0.00126
3774.23532,0.00123
3772.17515,0.00136
3770.11498,0.00157
3768.05481,0.00168
3765.99463,0.00175
3763.93446,0.00181
3761.87429,0.00170
3759.81412,0.00137
3757.75394,0.00105
3755.69377,0.00097
3753.63360,0.00087
3751.57343,0.00046
3749.51326,0.00004
3747.45308,0.00012
3745.39291,0.00078
3743.33274,0.00152
3741.27257,0.00178
3739.21240,0.00182
3737.15222,0.00184
3735.09205,0.00162
3733.03188,0.00135
3730.97171,0.00134
3728.91153,0.00145
3726.85136,0.00149
3724.79119,0.00154
3722.73102,0.00159
3720.67085,0.00153
3718.61067,0.00142
3716.55050,0.00152
3714.49033,0.00187
3712.43016,0.00228
3710.36999,0.00235
3708.30981,0.00178
3706.24964,0.00114
3704.18947,0.00087
3702.12930,0.00101
3700.06913,0.00136
3698.00895,0.00163
3695.94878,0.00179
3693.88861,0.00171
3691.82844,0.00134
3689.76826,0.00089
3687.70809,0.00089
3685.64792,0.00126
3683.58775,0.00162
3681.52758,0.00189
3679.46740,0.00228
3677.40723,0.00285
3675.34706,0.00317
3673.28689,0.00299
3671.22672,0.00270
3669.16654,0.00247
3667.10637,0.00237
3665.04620,0.00241
3662.98603,0.00258
3660.92586,0.00288
3658.86568,0.00319
3656.80551,0.00319
3654.74534,0.00277
3652.68517,0.00234
3650.62499,0.00241
3648.56482,0.00295
3646.50465,0.00347
3644.44448,0.00378
3642.38431,0.00393
3640.32413,0.00398
3638.26396,0.00403
3636.20379,0.00433
3634.14362,0.00487
3632.08345,0.00526
3630.02327,0.00518
3627.96310,0.00490
3625.90293,0.00488
3623.84276,0.00515
3621.78258,0.00549
3619.72241,0.00573
3617.66224,0.00581
3615.60207,0.00597
3613.54190,0.00642
3611.48172,0.00662
3609.42155,0.00642
3607.36138,0.00621
3605.30121,0.00641
3603.24104,0.00705
3601.18086,0.00753
3599.12069,0.00755
3597.06052,0.00746
3595.00035,0.00756
3592.94018,0.00781
3590.88000,0.00824
3588.81983,0.00856
3586.75966,0.00855
3584.69949,0.00850
3582.63931,0.00871
3580.57914,0.00915
3578.51897,0.00945
3576.45880,0.00947
3574.39863,0.00943
3572.33845,0.00956
3570.27828,0.01001
3568.21811,0.01064
3566.15794,0.01090
3564.09777,0.01084
3562.03759,0.01105
3559.97742,0.01150
3557.91725,0.01185
3555.85708,0.01190
3553.79690,0.01167
3551.73673,0.01160
3549.67656,0.01198
3547.61639,0.01251
3545.55622,0.01288
3543.49604,0.01306
3541.43587,0.01305
3539.37570,0.01312
3537.31553,0.01349
3535.25536,0.01381
3533.19518,0.01380
3531.13501,0.01376
3529.07484,0.01396
3527.01467,0.01428
3524.95450,0.01460
3522.89432,0.01494
3520.83415,0.01522
3518.77398,0.01530
3516.71381,0.01529
3514.65363,0.01529
3512.59346,0.01531
3510.53329,0.01554
3508.47312,0.01597
3506.41295,0.01625
3504.35277,0.01636
3502.29260,0.01654
3500.23243,0.01674
3498.17226,0.01698
3496.11209,0.01727
3494.05191,0.01738
3491.99174,0.01730
3489.93157,0.01734
3487.87140,0.01758
3485.81123,0.01791
3483.75105,0.01817
3481.69088,0.01839
3479.63071,0.01867
3477.57054,0.01898
3475.51036,0.01928
3473.45019,0.01962
3471.39002,0.01992
3469.32985,0.01991
3467.26968,0.01974
3465.20950,0.01968
3463.14933,0.01970
3461.08916,0.01981
3459.02899,0.02006
3456.96882,0.02029
3454.90864,0.02035
3452.84847,0.02038
3450.78830,0.02050
3448.72813,0.02062
3446.66795,0.02084
3444.60778,0.02121
3442.54761,0.02155
3440.48744,0.02174
3438.42727,0.02175
3436.36709,0.02175
3434.30692,0.02187
3432.24675,0.02213
3430.18658,0.02254
3428.12641,0.02280
3426.06623,0.02276
3424.00606,0.02273
3421.94589,0.02287
3419.88572,0.02301
3417.82555,0.02316
3415.76537,0.02340
3413.70520,0.02355
3411.64503,0.02354
3409.58486,0.02357
3407.52468,0.02368
3405.46451,0.02373
3403.40434,0.02382
3401.34417,0.02400
3399.28400,0.02402
3397.22382,0.02402
3395.16365,0.02401
3393.10348,0.02398
3391.04331,0.02396
3388.98314,0.02389
3386.92296,0.02377
3384.86279,0.02390
3382.80262,0.02434
3380.74245,0.02470
3378.68228,0.02487
3376.62210,0.02505
3374.56193,0.02532
3372.50176,0.02545
3370.44159,0.02534
3368.38141,0.02528
3366.32124,0.02543
3364.26107,0.02554
3362.20090,0.02554
3360.14073,0.02565
3358.08055,0.02584
3356.02038,0.02602
3353.96021,0.02616
3351.90004,0.02620
3349.83987,0.02616
3347.77969,0.02624
3345.71952,0.02644
3343.65935,0.02657
3341.59918,0.02660
3339.53900,0.02655
3337.47883,0.02652
3335.41866,0.02662
3333.35849,0.02672
3331.29832,0.02666
3329.23814,0.02653
3327.17797,0.02662
3325.11780,0.02700
3323.05763,0.02737
3320.99746,0.02748
3318.93728,0.02733
3316.87711,0.02711
3314.81694,0.02705
3312.75677,0.02725
3310.69660,0.02738
3308.63642,0.02734
3306.57625,0.02725
3304.51608,0.02715
3302.45591,0.02713
3300.39573,0.02720
3298.33556,0.02730
3296.27539,0.02740
3294.21522,0.02746
3292.15505,0.02747
3290.09487,0.02764
3288.03470,0.02787
3285.97453,0.02781
3283.91436,0.02759
3281.85419,0.02754
3279.79401,0.02770
3277.73384,0.02798
3275.67367,0.02828
3273.61350,0.02829
3271.55333,0.02816
3269.49315,0.02815
3267.43298,0.02814
3265.37281,0.02815
3263.31264,0.02828
3261.25246,0.02833
3259.19229,0.02820
3257.13212,0.02807
3255.07195,0.02807
3253.01178,0.02816
3250.95160,0.02827
3248.89143,0.02836
3246.83126,0.02834
3244.77109,0.02819
3242.71092,0.02822
3240.65074,0.02847
3238.59057,0.02848
3236.53040,0.02827
3234.47023,0.02824
3232.41005,0.02843
3230.34988,0.02864
3228.28971,0.02864
3226.22954,0.02846
3224.16937,0.02837
3222.10919,0.02831
3220.04902,0.02824
3217.98885,0.02829
3215.92868,0.02830
3213.86851,0.02829
3211.80833,0.02841
3209.74816,0.02838
3207.68799,0.02817
3205.62782,0.02807
3203.56765,0.02800
3201.50747,0.02798
3199.44730,0.02813
3197.38713,0.02826
3195.32696,0.02827
3193.26678,0.02831
3191.20661,0.02828
3189.14644,0.02805
3187.08627,0.02775
3185.02610,0.02758
3182.96592,0.02772
3180.90575,0.02814
3178.84558,0.02844
3176.78541,0.02829
3174.72524,0.02795
3172.66506,0.02779
3170.60489,0.02783
3168.54472,0.02794
3166.48455,0.02812
3164.42437,0.02830
3162.36420,0.02823
3160.30403,0.02787
3158.24386,0.02753
3156.18369,0.02748
3154.12351,0.02759
3152.06334,0.02756
3150.00317,0.02748
3147.94300,0.02758
3145.88283,0.02781
3143.82265,0.02784
3141.76248,0.02754
3139.70231,0.02731
3137.64214,0.02729
3135.58197,0.02721
3133.52179,0.02709
3131.46162,0.02704
3129.40145,0.02680
3127.34128,0.02645
3125.28110,0.02631
3123.22093,0.02639
3121.16076,0.02658
3119.10059,0.02679
3117.04042,0.02681
3114.98024,0.02659
3112.92007,0.02629
3110.85990,0.02613
3108.79973,0.02620
3106.73956,0.02632
3104.67938,0.02629
3102.61921,0.02616
3100.55904,0.02609
3098.49887,0.02595
3096.43870,0.02567
3094.37852,0.02551
3092.31835,0.02550
3090.25818,0.02550
3088.19801,0.02538
3086.13783,0.02527
3084.07766,0.02542
3082.01749,0.02567
3079.95732,0.02565
3077.89715,0.02538
3075.83697,0.02521
3073.77680,0.02521
3071.71663,0.02515
3069.65646,0.02500
3067.59629,0.02491
3065.53611,0.02493
3063.47594,0.02499
3061.41577,0.02492
3059.35560,0.02467
3057.29542,0.02449
3055.23525,0.02446
3053.17508,0.02440
3051.11491,0.02425
3049.05474,0.02412
3046.99456,0.02396
3044.93439,0.02378
3042.87422,0.02361
3040.81405,0.02327
3038.75388,0.02292
3036.69370,0.02289
3034.63353,0.02300
3032.57336,0.02303
3030.51319,0.02300
3028.45302,0.02286
3026.39284,0.02268
3024.33267,0.02262
3022.27250,0.02258
3020.21233,0.02247
3018.15215,0.02239
3016.09198,0.02239
3014.03181,0.02243
3011.97164,0.02233
3009.91147,0.02194
3007.85129,0.02158
3005.79112,0.02151
3003.73095,0.02158
3001.67078,0.02161
2999.61061,0.02150
2997.55043,0.02122
2995.49026,0.02093
2993.43009,0.02088
2991.36992,0.02100
2989.30975,0.02096
2987.24957,0.02074
2985.18940,0.02065
2983.12923,0.02072
2981.06906,0.02071
2979.00888,0.02049
2976.94871,0.02029
2974.88854,0.02023
2972.82837,0.02026
2970.76820,0.02039
2968.70802,0.02037
2966.64785,0.02017
2964.58768,0.02012
2962.52751,0.02030
2960.46734,0.02046
2958.40716,0.02047
2956.34699,0.02038
2954.28682,0.02030
2952.22665,0.02017
2950.16647,0.01994
2948.10630,0.01989
2946.04613,0.01991
2943.98596,0.01979
2941.92579,0.01976
2939.86561,0.01990
2937.80544,0.02008
2935.74527,0.02013
2933.68510,0.01997
2931.62493,0.01973
2929.56475,0.01958
2927.50458,0.01940
2925.44441,0.01910
2923.38424,0.01897
2921.32407,0.01920
2919.26389,0.01946
2917.20372,0.01953
2915.14355,0.01947
2913.08338,0.01931
2911.02320,0.01906
2908.96303,0.01874
2906.90286,0.01852
2904.84269,0.01852
2902.78252,0.01856
2900.72234,0.01855
2898.66217,0.01858
2896.60200,0.01850
2894.54183,0.01826
2892.48166,0.01811
2890.42148,0.01798
2888.36131,0.01776
2886.30114,0.01760
2884.24097,0.01754
2882.18080,0.01754
2880.12062,0.01750
2878.06045,0.01738
2876.00028,0.01739
2873.94011,0.01749
2871.87993,0.01746
2869.81976,0.01726
2867.75959,0.01708
2865.69942,0.01698
2863.63925,0.01684
2861.57907,0.01663
2859.51890,0.01652
2857.45873,0.01649
2855.39856,0.01637
2853.33839,0.01621
2851.27821,0.01609
2849.21804,0.01596
2847.15787,0.01584
2845.09770,0.01576
2843.03752,0.01570
2840.97735,0.01560
2838.91718,0.01552
2836.85701,0.01553
2834.79684,0.01552
2832.73666,0.01533
2830.67649,0.01504
2828.61632,0.01491
2826.55615,0.01498
2824.49598,0.01503
2822.43580,0.01500
2820.37563,0.01498
2818.31546,0.01491
2816.25529,0.01472
2814.19512,0.01454
2812.13494,0.01444
2810.07477,0.01434
2808.01460,0.01417
2805.95443,0.01400
2803.89425,0.01394
2801.83408,0.01390
2799.77391,0.01384
2797.71374,0.01381
2795.65357,0.01373
2793.59339,0.01364
2791.53322,0.01361
2789.47305,0.01355
2787.41288,0.01339
2785.35271,0.01319
2783.29253,0.01312
2781.23236,0.01311
2779.17219,0.01302
2777.11202,0.01286
2775.05184,0.01279
2772.99167,0.01283
2770.93150,0.01276
2768.87133,0.01254
2766.81116,0.01240
2764.75098,0.01241
2762.69081,0.01248
2760.63064,0.01249
2758.57047,0.01250
2756.51030,0.01250
2754.45012,0.01243
2752.38995,0.01233
2750.32978,0.01232
2748.26961,0.01229
2746.20944,0.01212
2744.14926,0.01188
2742.08909,0.01167
2740.02892,0.01153
2737.96875,0.01151
2735.90857,0.01154
2733.84840,0.01152
2731.78823,0.01144
2729.72806,0.01135
2727.66789,0.01137
2725.60771,0.01144
2723.54754,0.01127
2721.48737,0.01098
2719.42720,0.01090
2717.36703,0.01095
2715.30685,0.01096
2713.24668,0.01083
2711.18651,0.01064
2709.12634,0.01054
2707.06617,0.01050
2705.00599,0.01044
2702.94582,0.01034
2700.88565,0.01027
2698.82548,0.01031
2696.76530,0.01035
2694.70513,0.01027
2692.64496,0.01013
2690.58479,0.01005
2688.52462,0.00993
2686.46444,0.00984
2684.40427,0.00994
2682.34410,0.01002
2680.28393,0.00985
2678.22376,0.00972
2676.16358,0.00977
2674.10341,0.00976
2672.04324,0.00965
2669.98307,0.00955
2667.92289,0.00940
2665.86272,0.00936
2663.80255,0.00959
2661.74238,0.00970
2659.68221,0.00948
2657.62203,0.00921
2655.56186,0.00914
2653.50169,0.00925
2651.44152,0.00934
2649.38135,0.00925
2647.32117,0.00914
2645.26100,0.00900
2643.20083,0.00875
2641.14066,0.00865
2639.08049,0.00875
2637.02031,0.00878
2634.96014,0.00873
2632.89997,0.00876
2630.83980,0.00892
2628.77962,0.00893
2626.71945,0.00856
2624.65928,0.00817
2622.59911,0.00810
2620.53894,0.00816
2618.47876,0.00816
2616.41859,0.00809
2614.35842,0.00786
2612.29825,0.00770
2610.23808,0.00791
2608.17790,0.00808
2606.11773,0.00791
2604.05756,0.00775
2601.99739,0.00778
2599.93722,0.00786
2597.87704,0.00793
2595.81687,0.00794
2593.75670,0.00787
2591.69653,0.00775
2589.63635,0.00763
2587.57618,0.00767
2585.51601,0.00781
2583.45584,0.00785
2581.39567,0.00778
2579.33549,0.00760
2577.27532,0.00754
2575.21515,0.00782
2573.15498,0.00797
2571.09481,0.00772
2569.03463,0.00754
2566.97446,0.00763
2564.91429,0.00782
2562.85412,0.00789
2560.79394,0.00777
2558.73377,0.00763
2556.67360,0.00757
2554.61343,0.00755
2552.55326,0.00755
2550.49308,0.00751
2548.43291,0.00739
2546.37274,0.00718
2544.31257,0.00699
2542.25240,0.00696
2540.19222,0.00713
2538.13205,0.00718
2536.07188,0.00705
2534.01171,0.00703
2531.95154,0.00726
2529.89136,0.00749
2527.83119,0.00743
2525.77102,0.00738
2523.71085,0.00747
2521.65067,0.00747
2519.59050,0.00737
2517.53033,0.00721
2515.47016,0.00710
2513.40999,0.00711
2511.34981,0.00738
2509.28964,0.00776
2507.22947,0.00784
2505.16930,0.00761
2503.10913,0.00749
2501.04895,0.00745
2498.98878,0.00727
2496.92861,0.00723
2494.86844,0.00748
2492.80827,0.00781
2490.74809,0.00798
2488.68792,0.00783
2486.62775,0.00759
2484.56758,0.00773
2482.50740,0.00807
2480.44723,0.00824
2478.38706,0.00836
2476.32689,0.00844
2474.26672,0.00833
2472.20654,0.00811
2470.14637,0.00775
2468.08620,0.00745
2466.02603,0.00752
2463.96586,0.00785
2461.90568,0.00827
2459.84551,0.00858
2457.78534,0.00861
2455.72517,0.00838
2453.66499,0.00828
2451.60482,0.00833
2449.54465,0.00819
2447.48448,0.00814
2445.42431,0.00839
2443.36413,0.00852
2441.30396,0.00841
2439.24379,0.00837
2437.18362,0.00833
2435.12345,0.00816
2433.06327,0.00801
2431.00310,0.00790
2428.94293,0.00806
2426.88276,0.00839
2424.82259,0.00855
2422.76241,0.00861
2420.70224,0.00859
2418.64207,0.00834
2416.58190,0.00808
2414.52172,0.00809
2412.46155,0.00803
2410.40138,0.00782
2408.34121,0.00788
2406.28104,0.00806
2404.22086,0.00800
2402.16069,0.00794
2400.10052,0.00798
2398.04035,0.00805
2395.98018,0.00815
2393.92000,0.00812
2391.85983,0.00802
2389.79966,0.00797
2387.73949,0.00792
2385.67931,0.00800
2383.61914,0.00826
2381.55897,0.00846
2379.49880,0.00836
2377.43863,0.00807
2375.37845,0.00755
2373.31828,0.00714
2371.25811,0.00723
2369.19794,0.00757
2367.13777,0.00753
2365.07759,0.00681
2363.01742,0.00591
2360.95725,0.00744
2358.89708,0.00867
2356.83691,0.00845
2354.77673,0.00793
2352.71656,0.00843
2350.65639,0.01052
2348.59622,0.01160
2346.53604,0.00918
2344.47587,0.00890
2342.41570,0.00964
2340.35553,0.00997
2338.29536,0.00982
2336.23518,0.00928
2334.17501,0.00915
2332.11484,0.00915
2330.05467,0.00927
2327.99450,0.00931
2325.93432,0.00982
2323.87415,0.00932
2321.81398,0.00850
2319.75381,0.00790
2317.69364,0.00845
2315.63346,0.00863
2313.57329,0.00819
2311.51312,0.00797
2309.45295,0.00789
2307.39277,0.00774
2305.33260,0.00777
2303.27243,0.00812
2301.21226,0.00833
2299.15209,0.00844
2297.09191,0.00844
2295.03174,0.00828
2292.97157,0.00820
2290.91140,0.00832
2288.85123,0.00844
2286.79105,0.00837
2284.73088,0.00828
2282.67071,0.00813
2280.61054,0.00775
2278.55036,0.00723
2276.49019,0.00678
2274.43002,0.00650
2272.36985,0.00645
2270.30968,0.00665
2268.24950,0.00698
2266.18933,0.00731
2264.12916,0.00741
2262.06899,0.00705
2260.00882,0.00652
2257.94864,0.00645
2255.88847,0.00672
2253.82830,0.00686
2251.76813,0.00684
2249.70796,0.00684
2247.64778,0.00689
2245.58761,0.00691
2243.52744,0.00678
2241.46727,0.00663
2239.40709,0.00675
2237.34692,0.00688
2235.28675,0.00698
2233.22658,0.00699
2231.16641,0.00632
2229.10623,0.00557
2227.04606,0.00586
2224.98589,0.00626
2222.92572,0.00593
2220.86555,0.00579
2218.80537,0.00632
2216.74520,0.00692
2214.68503,0.00711
2212.62486,0.00703
2210.56469,0.00663
2208.50451,0.00623
2206.44434,0.00622
2204.38417,0.00604
2202.32400,0.00531
2200.26382,0.00472
2198.20365,0.00482
2196.14348,0.00499
2194.08331,0.00495
2192.02314,0.00493
2189.96296,0.00470
2187.90279,0.00425
2185.84262,0.00394
2183.78245,0.00379
2181.72228,0.00400
2179.66210,0.00454
2177.60193,0.00461
2175.54176,0.00464
2173.48159,0.00534
2171.42141,0.00611
2169.36124,0.00611
2167.30107,0.00536
2165.24090,0.00454
2163.18073,0.00396
2161.12055,0.00321
2159.06038,0.00260
2157.00021,0.00244
2154.94004,0.00223
2152.87987,0.00202
2150.81969,0.00243
2148.75952,0.00323
2146.69935,0.00330
2144.63918,0.00303
2142.57901,0.00294
2140.51883,0.00269
2138.45866,0.00265
2136.39849,0.00267
2134.33832,0.00261
2132.27814,0.00293
2130.21797,0.00313
2128.15780,0.00276
2126.09763,0.00253
2124.03746,0.00279
2121.97728,0.00333
2119.91711,0.00416
2117.85694,0.00497
2115.79677,0.00519
2113.73660,0.00475
2111.67642,0.00413
2109.61625,0.00371
2107.55608,0.00366
2105.49591,0.00389
2103.43573,0.00417
2101.37556,0.00422
2099.31539,0.00396
2097.25522,0.00373
2095.19505,0.00345
2093.13487,0.00320
2091.07470,0.00363
2089.01453,0.00435
2086.95436,0.00421
2084.89419,0.00331
2082.83401,0.00292
2080.77384,0.00348
2078.71367,0.00430
2076.65350,0.00448
2074.59333,0.00393
2072.53315,0.00339
2070.47298,0.00327
2068.41281,0.00336
2066.35264,0.00338
2064.29246,0.00337
2062.23229,0.00391
2060.17212,0.00472
2058.11195,0.00488
2056.05178,0.00452
2053.99160,0.00396
2051.93143,0.00335
2049.87126,0.00305
2047.81109,0.00276
2045.75092,0.00229
2043.69074,0.00232
2041.63057,0.00254
2039.57040,0.00247
2037.51023,0.00262
2035.45006,0.00293
2033.38988,0.00289
2031.32971,0.00236
2029.26954,0.00198
2027.20937,0.00286
2025.14919,0.00401
2023.08902,0.00400
2021.02885,0.00341
2018.96868,0.00274
2016.90851,0.00197
2014.84833,0.00137
2012.78816,0.00103
2010.72799,0.00114
2008.66782,0.00165
2006.60765,0.00204
2004.54747,0.00217
2002.48730,0.00232
2000.42713,0.00253
1998.36696,0.00267
1996.30678,0.00239
1994.24661,0.00181
1992.18644,0.00161
1990.12627,0.00183
1988.06610,0.00222
1986.00592,0.00298
1983.94575,0.00366
1981.88558,0.00360
1979.82541,0.00319
1977.76524,0.00329
1975.70506,0.00410
1973.64489,0.00472
1971.58472,0.00443
1969.52455,0.00333
1967.46438,0.00163
1965.40420,0.00034
1963.34403,0.00084
1961.28386,0.00244
1959.22369,0.00312
1957.16351,0.00297
1955.10334,0.00305
1953.04317,0.00321
1950.98300,0.00331
1948.92283,0.00335
1946.86265,0.00291
1944.80248,0.00220
1942.74231,0.00197
1940.68214,0.00228
1938.62197,0.00271
1936.56179,0.00295
1934.50162,0.00300
1932.44145,0.00316
1930.38128,0.00329
1928.32111,0.00316
1926.26093,0.00313
1924.20076,0.00344
1922.14059,0.00359
1920.08042,0.00332
1918.02024,0.00303
1915.96007,0.00305
1913.89990,0.00337
1911.83973,0.00372
1909.77956,0.00381
1907.71938,0.00370
1905.65921,0.00362
1903.59904,0.00359
1901.53887,0.00345
1899.47870,0.00323
1897.41852,0.00305
1895.35835,0.00309
1893.29818,0.00319
1891.23801,0.00309
1889.17783,0.00306
1887.11766,0.00332
1885.05749,0.00361
1882.99732,0.00368
1880.93715,0.00350
1878.87697,0.00333
1876.81680,0.00343
1874.75663,0.00355
1872.69646,0.00338
1870.63629,0.00306
1868.57611,0.00288
1866.51594,0.00283
1864.45577,0.00295
1862.39560,0.00335
1860.33543,0.00377
1858.27525,0.00386
1856.21508,0.00361
1854.15491,0.00339
1852.09474,0.00337
1850.03456,0.00323
1847.97439,0.00287
1845.91422,0.00272
1843.85405,0.00295
1841.79388,0.00312
1839.73370,0.00303
1837.67353,0.00287
1835.61336,0.00282
1833.55319,0.00297
1831.49302,0.00323
1829.43284,0.00335
1827.37267,0.00334
1825.31250,0.00327
1823.25233,0.00323
1821.19216,0.00326
1819.13198,0.00336
1817.07181,0.00344
1815.01164,0.00347
1812.95147,0.00351
1810.89129,0.00355
1808.83112,0.00356
1806.77095,0.00359
1804.71078,0.00368
1802.65061,0.00377
1800.59043,0.00375
1798.53026,0.00358
1796.47009,0.00345
1794.40992,0.00355
1792.34975,0.00371
1790.28957,0.00370
1788.22940,0.00357
1786.16923,0.00340
1784.10906,0.00332
1782.04888,0.00345
1779.98871,0.00360
1777.92854,0.00353
1775.86837,0.00340
1773.80820,0.00344
1771.74802,0.00370
1769.68785,0.00394
1767.62768,0.00392
1765.56751,0.00376
1763.50734,0.00374
1761.44716,0.00386
1759.38699,0.00391
1757.32682,0.00397
1755.26665,0.00420
1753.20648,0.00448
1751.14630,0.00464
1749.08613,0.00461
1747.02596,0.00449
1744.96579,0.00449
1742.90561,0.00460
1740.84544,0.00470
1738.78527,0.00480
1736.72510,0.00490
1734.66493,0.00491
1732.60475,0.00483
1730.54458,0.00474
1728.48441,0.00477
1726.42424,0.00493
1724.36407,0.00508
1722.30389,0.00515
1720.24372,0.00521
1718.18355,0.00529
1716.12338,0.00539
1714.06320,0.00559
1712.00303,0.00575
1709.94286,0.00583
1707.88269,0.00587
1705.82252,0.00590
1703.76234,0.00593
1701.70217,0.00614
1699.64200,0.00651
1697.58183,0.00691
1695.52166,0.00747
1693.46148,0.00805
1691.40131,0.00839
1689.34114,0.00862
1687.28097,0.00890
1685.22080,0.00935
1683.16062,0.00992
1681.10045,0.01036
1679.04028,0.01073
1676.98011,0.01115
1674.91993,0.01160
1672.85976,0.01196
1670.79959,0.01224
1668.73942,0.01260
1666.67925,0.01304
1664.61907,0.01344
1662.55890,0.01375
1660.49873,0.01392
1658.43856,0.01403
1656.37839,0.01425
1654.31821,0.01462
1652.25804,0.01483
1650.19787,0.01469
1648.13770,0.01444
1646.07753,0.01427
1644.01735,0.01419
1641.95718,0.01417
1639.89701,0.01418
1637.83684,0.01418
1635.77666,0.01405
1633.71649,0.01374
1631.65632,0.01341
1629.59615,0.01320
1627.53598,0.01304
1625.47580,0.01284
1623.41563,0.01251
1621.35546,0.01213
1619.29529,0.01192
1617.23512,0.01183
1615.17494,0.01167
1613.11477,0.01154
1611.05460,0.01148
1608.99443,0.01133
1606.93425,0.01106
1604.87408,0.01078
1602.81391,0.01051
1600.75374,0.01027
1598.69357,0.01009
1596.63339,0.00991
1594.57322,0.00973
1592.51305,0.00969
1590.45288,0.00971
1588.39271,0.00964
1586.33253,0.00946
1584.27236,0.00919
1582.21219,0.00896
1580.15202,0.00884
1578.09185,0.00872
1576.03167,0.00844
1573.97150,0.00806
1571.91133,0.00779
1569.85116,0.00762
1567.79098,0.00746
1565.73081,0.00736
1563.67064,0.00737
1561.61047,0.00748
1559.55030,0.00766
1557.49012,0.00767
1555.42995,0.00750
1553.36978,0.00733
1551.30961,0.00719
1549.24944,0.00706
1547.18926,0.00700
1545.12909,0.00712
1543.06892,0.00730
1541.00875,0.00714
1538.94858,0.00652
1536.88840,0.00601
1534.82823,0.00586
1532.76806,0.00581
1530.70789,0.00568
1528.64771,0.00553
1526.58754,0.00546
1524.52737,0.00547
1522.46720,0.00547
1520.40703,0.00534
1518.34685,0.00512
1516.28668,0.00487
1514.22651,0.00452
1512.16634,0.00423
1510.10617,0.00414
1508.04599,0.00416
1505.98582,0.00407
1503.92565,0.00387
1501.86548,0.00372
1499.80530,0.00373
1497.74513,0.00379
1495.68496,0.00366
1493.62479,0.00347
1491.56462,0.00337
1489.50444,0.00329
1487.44427,0.00320
1485.38410,0.00307
1483.32393,0.00292
1481.26376,0.00285
1479.20358,0.00292
1477.14341,0.00305
1475.08324,0.00315
1473.02307,0.00326
1470.96290,0.00341
1468.90272,0.00351
1466.84255,0.00359
1464.78238,0.00367
1462.72221,0.00368
1460.66203,0.00374
1458.60186,0.00390
1456.54169,0.00389
1454.48152,0.00368
1452.42135,0.00357
1450.36117,0.00362
1448.30100,0.00370
1446.24083,0.00373
1444.18066,0.00374
1442.12049,0.00373
1440.06031,0.00366
1438.00014,0.00357
1435.93997,0.00350
1433.87980,0.00349
1431.81963,0.00358
1429.75945,0.00380
1427.69928,0.00407
1425.63911,0.00424
1423.57894,0.00431
1421.51876,0.00442
1419.45859,0.00462
1417.39842,0.00474
1415.33825,0.00471
1413.27808,0.00467
1411.21790,0.00464
1409.15773,0.00462
1407.09756,0.00466
1405.03739,0.00464
1402.97722,0.00448
1400.91704,0.00424
1398.85687,0.00403
1396.79670,0.00397
1394.73653,0.00404
1392.67635,0.00410
1390.61618,0.00406
1388.55601,0.00395
1386.49584,0.00387
1384.43567,0.00389
1382.37549,0.00397
1380.31532,0.00404
1378.25515,0.00410
1376.19498,0.00415
1374.13481,0.00408
1372.07463,0.00394
1370.01446,0.00387
1367.95429,0.00385
1365.89412,0.00386
1363.83395,0.00392
1361.77377,0.00393
1359.71360,0.00383
1357.65343,0.00369
1355.59326,0.00363
1353.53308,0.00362
1351.47291,0.00353
1349.41274,0.00339
1347.35257,0.00331
1345.29240,0.00328
1343.23222,0.00318
1341.17205,0.00303
1339.11188,0.00293
1337.05171,0.00291
1334.99154,0.00280
1332.93136,0.00259
1330.87119,0.00248
1328.81102,0.00252
1326.75085,0.00254
1324.69067,0.00252
1322.63050,0.00256
1320.57033,0.00260
1318.51016,0.00259
1316.44999,0.00260
1314.38981,0.00264
1312.32964,0.00269
1310.26947,0.00276
1308.20930,0.00281
1306.14913,0.00275
1304.08895,0.00255
1302.02878,0.00239
1299.96861,0.00244
1297.90844,0.00268
1295.84827,0.00295
1293.78809,0.00313
1291.72792,0.00311
1289.66775,0.00303
1287.60758,0.00296
1285.54740,0.00289
1283.48723,0.00282
1281.42706,0.00274
1279.36689,0.00268
1277.30672,0.00276
1275.24654,0.00288
1273.18637,0.00279
1271.12620,0.00257
1269.06603,0.00252
1267.00586,0.00265
1264.94568,0.00273
1262.88551,0.00270
1260.82534,0.00277
1258.76517,0.00297
1256.70500,0.00308
1254.64482,0.00304
1252.58465,0.00295
1250.52448,0.00285
1248.46431,0.00277
1246.40413,0.00273
1244.34396,0.00268
1242.28379,0.00260
1240.22362,0.00244
1238.16345,0.00223
1236.10327,0.00208
1234.04310,0.00198
1231.98293,0.00180
1229.92276,0.00165
1227.86259,0.00167
1225.80241,0.00173
1223.74224,0.00168
1221.68207,0.00150
1219.62190,0.00127
1217.56172,0.00100
1215.50155,0.00079
1213.44138,0.00066
1211.38121,0.00065
1209.32104,0.00074
1207.26086,0.00077
1205.20069,0.00061
1203.14052,0.00047
1201.08035,0.00043
1199.02018,0.00047
1196.96000,0.00066
1194.89983,0.00103
1192.83966,0.00135
1190.77949,0.00156
1188.71932,0.00182
1186.65914,0.00213
1184.59897,0.00247
1182.53880,0.00282
1180.47863,0.00318
1178.41845,0.00357
1176.35828,0.00406
1174.29811,0.00471
1172.23794,0.00530
1170.17777,0.00578
1168.11759,0.00614
1166.05742,0.00637
1163.99725,0.00664
1161.93708,0.00697
1159.87691,0.00734
1157.81673,0.00782
1155.75656,0.00834
1153.69639,0.00880
1151.63622,0.00926
1149.57605,0.00974
1147.51587,0.01023
1145.45570,0.01066
1143.39553,0.01112
1141.33536,0.01163
1139.27518,0.01209
1137.21501,0.01268
1135.15484,0.01354
1133.09467,0.01439
1131.03450,0.01508
1128.97432,0.01575
1126.91415,0.01646
1124.85398,0.01733
1122.79381,0.01844
1120.73364,0.01950
1118.67346,0.02048
1116.61329,0.02155
1114.55312,0.02262
1112.49295,0.02365
1110.43277,0.02474
1108.37260,0.02578
1106.31243,0.02679
1104.25226,0.02785
1102.19209,0.02882
1100.13191,0.02963
1098.07174,0.03036
1096.01157,0.03113
1093.95140,0.03204
1091.89123,0.03287
1089.83105,0.03347
1087.77088,0.03404
1085.71071,0.03488
1083.65054,0.03581
1081.59037,0.03653
1079.53019,0.03712
1077.47002,0.03765
1075.40985,0.03805
1073.34968,0.03836
1071.28950,0.03865
1069.22933,0.03890
1067.16916,0.03907
1065.10899,0.03913
1063.04882,0.03902
1060.98864,0.03875
1058.92847,0.03831
1056.86830,0.03771
1054.80813,0.03706
1052.74796,0.03631
1050.68778,0.03527
1048.62761,0.03401
1046.56744,0.03277
1044.50727,0.03154
1042.44710,0.03011
1040.38692,0.02855
1038.32675,0.02712
1036.26658,0.02580
1034.20641,0.02438
1032.14623,0.02293
1030.08606,0.02158
1028.02589,0.02034
1025.96572,0.01929
1023.90555,0.01843
1021.84537,0.01767
1019.78520,0.01700
1017.72503,0.01635
1015.66486,0.01568
1013.60469,0.01512
1011.54451,0.01491
1009.48434,0.01503
1007.42417,0.01528
1005.36400,0.01570
1003.30382,0.01639
1001.24365,0.01730
999.18348,0.01826
997.12331,0.01906
995.06314,0.01986
993.00296,0.02097
990.94279,0.02196
988.88262,0.02243
986.82245,0.02287
984.76228,0.02351
982.70210,0.02405
980.64193,0.02430
978.58176,0.02425
976.52159,0.02417
974.46142,0.02428
972.40124,0.02423
970.34107,0.02351
968.28090,0.02246
966.22073,0.02179
964.16055,0.02137
962.10038,0.02073
960.04021,0.01998
957.98004,0.01926
955.91987,0.01848
953.85969,0.01769
951.79952,0.01689
949.73935,0.01600
947.67918,0.01520
945.61901,0.01451
943.55883,0.01388
941.49866,0.01340
939.43849,0.01291
937.37832,0.01229
935.31814,0.01159
933.25797,0.01086
931.19780,0.01025
929.13763,0.00975
927.07746,0.00913
925.01728,0.00847
922.95711,0.00804
920.89694,0.00790
918.83677,0.00773
916.77660,0.00739
914.71642,0.00704
912.65625,0.00670
910.59608,0.00630
908.53591,0.00586
906.47574,0.00550
904.41556,0.00528
902.35539,0.00527
900.29522,0.00552
898.23505,0.00590
896.17487,0.00612
894.11470,0.00617
892.05453,0.00644
889.99436,0.00700
887.93419,0.00751
885.87401,0.00787
883.81384,0.00819
881.75367,0.00863
879.69350,0.00917
877.63333,0.00970
875.57315,0.01045
873.51298,0.01139
871.45281,0.01217
869.39264,0.01290
867.33247,0.01359
865.27229,0.01409
863.21212,0.01450
861.15195,0.01473
859.09178,0.01480
857.03160,0.01502
854.97143,0.01544
852.91126,0.01575
850.85109,0.01569
848.79092,0.01543
846.73074,0.01512
844.67057,0.01458
842.61040,0.01398
840.55023,0.01374
838.49006,0.01369
836.42988,0.01327
834.36971,0.01248
832.30954,0.01169
830.24937,0.01101
828.18919,0.01042
826.12902,0.00987
824.06885,0.00928
822.00868,0.00863
819.94851,0.00814
817.88833,0.00775
815.82816,0.00744
813.76799,0.00730
811.70782,0.00703
809.64765,0.00645
807.58747,0.00606
805.52730,0.00611
803.46713,0.00595
801.40696,0.00535
799.34679,0.00488
797.28661,0.00464
795.22644,0.00438
793.16627,0.00434
791.10610,0.00467
789.04592,0.00506
786.98575,0.00517
784.92558,0.00485
782.86541,0.00442
780.80524,0.00432
778.74506,0.00423
776.68489,0.00385
774.62472,0.00374
772.56455,0.00390
770.50438,0.00371
768.44420,0.00324
766.38403,0.00299
764.32386,0.00314
762.26369,0.00343
760.20352,0.00353
758.14334,0.00330
756.08317,0.00284
754.02300,0.00274
751.96283,0.00324
749.90265,0.00341
747.84248,0.00296
745.78231,0.00272
743.72214,0.00288
741.66197,0.00309
739.60179,0.00295
737.54162,0.00249
735.48145,0.00244
733.42128,0.00280
731.36111,0.00307
729.30093,0.00306
727.24076,0.00271
725.18059,0.00249
723.12042,0.00304
721.06024,0.00324
719.00007,0.00336
716.93990,0.00312
714.87973,0.00272
712.81956,0.00245
710.75938,0.00264
708.69921,0.00329
706.63904,0.00396
704.57887,0.00430
702.51870,0.00410
700.45852,0.00360
698.39835,0.00326
696.33818,0.00309
694.27801,0.00320
692.21784,0.00372
690.15766,0.00432
688.09749,0.00480
686.03732,0.00525
683.97715,0.00552
681.91697,0.00526
679.85680,0.00459
677.79663,0.00385
675.73646,0.00351
673.67629,0.00477
671.61611,0.00738
669.55594,0.00560
667.49577,0.00128
665.43560,0.00552
663.37543,0.00488
661.31525,0.00402
659.25508,0.00385
657.19491,0.00359
655.13474,0.00374
653.07457,0.00405
651.01439,0.00365
648.95422,0.00269
646.89405,0.00250
644.83388,0.00275
642.77370,0.00270
640.71353,0.00236
638.65336,0.00212
636.59319,0.00228
634.53302,0.00278
632.47284,0.00309
630.41267,0.00263
628.35250,0.00142
626.29233,0.00090
624.23216,0.00283
622.17198,0.00520
620.11181,0.00603
618.05164,0.00499
615.99147,0.00242
613.93129,0.00057
611.87112,0.00000
609.81095,0.00045
607.75078,0.00091
605.69061,0.00052
603.63043,-0.00034
601.57026,-0.00032
599.51009,0.00000
