3996.73391,-0.00012
3994.67373,-0.00001
3992.61356,0.00003
3990.55339,0.00002
3988.49322,0.00012
3986.43305,0.00026
3984.37287,0.00032
3982.31270,0.00043
3980.25253,0.00060
3978.19236,0.00063
3976.13219,0.00049
3974.07201,0.00032
3972.01184,0.00031
3969.95167,0.00049
3967.89150,0.00075
3965.83133,0.00087
3963.77115,0.00069
3961.71098,0.00048
3959.65081,0.00057
3957.59064,0.00085
3955.53046,0.00104
3953.47029,0.00102
3951.41012,0.00070
3949.34995,0.00024
3947.28978,0.00000
3945.22960,0.00007
3943.16943,0.00019
3941.10926,0.00036
3939.04909,0.00064
3936.98892,0.00079
3934.92874,0.00062
3932.86857,0.00044
3930.80840,0.00071
3928.74823,0.00121
3926.68805,0.00148
3924.62788,0.00152
3922.56771,0.00136
3920.50754,0.00109
3918.44737,0.00078
3916.38719,0.00074
3914.32702,0.00103
3912.26685,0.00136
3910.20668,0.00153
3908.14651,0.00146
3906.08633,0.00117
3904.02616,0.00064
3901.96599,0.00025
3899.90582,0.00051
3897.84565,0.00095
3895.78547,0.00101
3893.72530,0.00081
3891.66513,0.00060
3889.60496,0.00045
3887.54478,0.00035
3885.48461,0.00042
3883.42444,0.00052
3881.36427,0.00051
3879.30410,0.00068
3877.24392,0.00102
3875.18375,0.00108
3873.12358,0.00062
3871.06341,0.00003
3869.00324,-0.00007
3866.94306,0.00015
3864.88289,0.00030
3862.82272,0.00028
3860.76255,0.00026
3858.70237,0.00023
3856.64220,0.00000
3854.58203,0.00017
3852.52186,0.00105
3850.46169,0.00169
3848.40151,0.00146
3846.34134,0.00101
3844.28117,0.00084
3842.22100,0.00100
3840.16083,0.00122
3838.10065,0.00112
3836.04048,0.00100
3833.98031,0.00123
3831.92014,0.00166
3829.85997,0.00201
3827.79979,0.00201
3825.73962,0.00184
3823.67945,0.00184
3821.61928,0.00212
3819.55910,0.00216
3817.49893,0.00202
3815.43876,0.00224
3813.37859,0.00256
3811.31842,0.00248
3809.25824,0.00250
3807.19807,0.00302
3805.13790,0.00347
3803.07773,0.00355
3801.01756,0.00354
3798.95738,0.00339
3796.89721,0.00312
3794.83704,0.00309
3792.77687,0.00333
3790.71670,0.00361
3788.65652,0.00382
3786.59635,0.00400
3784.53618,0.00409
3782.47601,0.00411
3780.41583,0.00418
3778.35566,0.00401
3776.29549,0.00361
3774.23532,0.00342
3772.17515,0.00354
3770.11497,0.00360
3768.05480,0.00346
3765.99463,0.00331
3763.93446,0.00315
3761.87429,0.00297
3759.81411,0.00276
3757.75394,0.00225
3755.69377,0.00162
3753.63360,0.00130
3751.57342,0.00116
3749.51325,0.00079
3747.45308,0.00038
3745.39291,0.00000
3743.33274,0.00020
3741.27256,0.00057
3739.21239,0.00049
3737.15222,0.00036
3735.09205,0.00053
3733.03188,0.00121
3730.97170,0.00207
3728.91153,0.00263
3726.85136,0.00291
3724.79119,0.00291
3722.73102,0.00270
3720.67084,0.00276
3718.61067,0.00288
3716.55050,0.00266
3714.49033,0.00249
3712.43015,0.00291
3710.36998,0.00353
3708.30981,0.00390
3706.24964,0.00407
3704.18947,0.00409
3702.12929,0.00410
3700.06912,0.00410
3698.00895,0.00397
3695.94878,0.00385
3693.88861,0.00403
3691.82843,0.00444
3689.76826,0.00454
3687.70809,0.00434
3685.64792,0.00429
3683.58775,0.00427
3681.52757,0.00410
3679.46740,0.00371
3677.40723,0.00333
3675.34706,0.00340
3673.28688,0.00353
3671.22671,0.00329
3669.16654,0.00322
3667.10637,0.00342
3665.04620,0.00354
3662.98602,0.00364
3660.92585,0.00372
3658.86568,0.00363
3656.80551,0.00357
3654.74534,0.00374
3652.68516,0.00395
3650.62499,0.00419
3648.56482,0.00451
3646.50465,0.00497
3644.44447,0.00493
3642.38430,0.00461
3640.32413,0.00437
3638.26396,0.00426
3636.20379,0.00428
3634.14361,0.00430
3632.08344,0.00413
3630.02327,0.00396
3627.96310,0.00408
3625.90293,0.00417
3623.84275,0.00397
3621.78258,0.00391
3619.72241,0.00422
3617.66224,0.00454
3615.60207,0.00457
3613.54189,0.00437
3611.48172,0.00408
3609.42155,0.00410
3607.36138,0.00444
3605.30120,0.00475
3603.24103,0.00504
3601.18086,0.00539
3599.12069,0.00554
3597.06052,0.00541
3595.00034,0.00534
3592.94017,0.00533
3590.88000,0.00524
3588.81983,0.00511
3586.75966,0.00531
3584.69948,0.00578
3582.63931,0.00602
3580.57914,0.00607
3578.51897,0.00616
3576.45879,0.00631
3574.39862,0.00647
3572.33845,0.00668
3570.27828,0.00681
3568.21811,0.00672
3566.15793,0.00673
3564.09776,0.00706
3562.03759,0.00729
3559.97742,0.00736
3557.91725,0.00739
3555.85707,0.00725
3553.79690,0.00715
3551.73673,0.00739
3549.67656,0.00752
3547.61639,0.00725
3545.55621,0.00724
3543.49604,0.00780
3541.43587,0.00841
3539.37570,0.00876
3537.31552,0.00885
3535.25535,0.00875
3533.19518,0.00871
3531.13501,0.00884
3529.07484,0.00888
3527.01466,0.00874
3524.95449,0.00877
3522.89432,0.00901
3520.83415,0.00911
3518.77398,0.00910
3516.71380,0.00925
3514.65363,0.00958
3512.59346,0.00990
3510.53329,0.00997
3508.47312,0.00983
3506.41294,0.00973
3504.35277,0.00969
3502.29260,0.00964
3500.23243,0.00979
3498.17225,0.01007
3496.11208,0.01025
3494.05191,0.01034
3491.99174,0.01046
3489.93157,0.01060
3487.87139,0.01074
3485.81122,0.01087
3483.75105,0.01098
3481.69088,0.01114
3479.63071,0.01141
3477.57053,0.01160
3475.51036,0.01165
3473.45019,0.01166
3471.39002,0.01164
3469.32984,0.01162
3467.26967,0.01166
3465.20950,0.01173
3463.14933,0.01180
3461.08916,0.01192
3459.02898,0.01205
3456.96881,0.01202
3454.90864,0.01200
3452.84847,0.01221
3450.78830,0.01238
3448.72812,0.01243
3446.66795,0.01252
3444.60778,0.01254
3442.54761,0.01245
3440.48744,0.01238
3438.42726,0.01238
3436.36709,0.01250
3434.30692,0.01275
3432.24675,0.01289
3430.18657,0.01280
3428.12640,0.01279
3426.06623,0.01296
3424.00606,0.01303
3421.94589,0.01297
3419.88571,0.01295
3417.82554,0.01308
3415.76537,0.01333
3413.70520,0.01358
3411.64503,0.01373
3409.58485,0.01393
3407.52468,0.01424
3405.46451,0.01424
3403.40434,0.01394
3401.34416,0.01370
3399.28399,0.01299
3397.22382,0.01310
3395.16365,0.01315
3393.10348,0.01295
3391.04330,0.01294
3388.98313,0.01321
3386.92296,0.01342
3384.86279,0.01356
3382.80262,0.01386
3380.74244,0.01428
3378.68227,0.01458
3376.62210,0.01450
3374.56193,0.01417
3372.50176,0.01399
3370.44158,0.01403
3368.38141,0.01402
3366.32124,0.01399
3364.26107,0.01409
3362.20089,0.01413
3360.14072,0.01415
3358.08055,0.01437
3356.02038,0.01459
3353.96021,0.01461
3351.90003,0.01451
3349.83986,0.01445
3347.77969,0.01460
3345.71952,0.01485
3343.65935,0.01491
3341.59917,0.01486
3339.53900,0.01477
3337.47883,0.01455
3335.41866,0.01450
3333.35849,0.01469
3331.29831,0.01477
3329.23814,0.01465
3327.17797,0.01452
3325.11780,0.01453
3323.05762,0.01467
3320.99745,0.01477
3318.93728,0.01479
3316.87711,0.01488
3314.81694,0.01497
3312.75676,0.01484
3310.69659,0.01462
3308.63642,0.01453
3306.57625,0.01460
3304.51608,0.01479
3302.45590,0.01497
3300.39573,0.01497
3298.33556,0.01490
3296.27539,0.01489
3294.21521,0.01482
3292.15504,0.01474
3290.09487,0.01482
3288.03470,0.01497
3285.97453,0.01504
3283.91435,0.01505
3281.85418,0.01506
3279.79401,0.01502
3277.73384,0.01502
3275.67367,0.01504
3273.61349,0.01504
3271.55332,0.01511
3269.49315,0.01526
3267.43298,0.01534
3265.37281,0.01520
3263.31263,0.01496
3261.25246,0.01488
3259.19229,0.01498
3257.13212,0.01495
3255.07194,0.01478
3253.01177,0.01475
3250.95160,0.01489
3248.89143,0.01495
3246.83126,0.01492
3244.77108,0.01489
3242.71091,0.01483
3240.65074,0.01480
3238.59057,0.01485
3236.53040,0.01485
3234.47022,0.01487
3232.41005,0.01490
3230.34988,0.01482
3228.28971,0.01472
3226.22954,0.01464
3224.16936,0.01455
3222.10919,0.01446
3220.04902,0.01445
3217.98885,0.01455
3215.92867,0.01462
3213.86850,0.01452
3211.80833,0.01447
3209.74816,0.01467
3207.68799,0.01492
3205.62781,0.01502
3203.56764,0.01502
3201.50747,0.01488
3199.44730,0.01465
3197.38713,0.01454
3195.32695,0.01453
3193.26678,0.01443
3191.20661,0.01431
3189.14644,0.01438
3187.08626,0.01448
3185.02609,0.01439
3182.96592,0.01425
3180.90575,0.01424
3178.84558,0.01431
3176.78540,0.01439
3174.72523,0.01439
3172.66506,0.01436
3170.60489,0.01436
3168.54472,0.01446
3166.48454,0.01449
3164.42437,0.01432
3162.36420,0.01413
3160.30403,0.01403
3158.24386,0.01397
3156.18368,0.01392
3154.12351,0.01394
3152.06334,0.01398
3150.00317,0.01399
3147.94299,0.01396
3145.88282,0.01390
3143.82265,0.01379
3141.76248,0.01369
3139.70231,0.01366
3137.64213,0.01372
3135.58196,0.01382
3133.52179,0.01396
3131.46162,0.01407
3129.40145,0.01391
3127.34127,0.01357
3125.28110,0.01338
3123.22093,0.01329
3121.16076,0.01315
3119.10058,0.01305
3117.04041,0.01301
3114.98024,0.01304
3112.92007,0.01316
3110.85990,0.01321
3108.79972,0.01315
3106.73955,0.01315
3104.67938,0.01323
3102.61921,0.01318
3100.55904,0.01300
3098.49886,0.01296
3096.43869,0.01312
3094.37852,0.01326
3092.31835,0.01329
3090.25818,0.01328
3088.19800,0.01321
3086.13783,0.01310
3084.07766,0.01308
3082.01749,0.01306
3079.95731,0.01294
3077.89714,0.01285
3075.83697,0.01294
3073.77680,0.01312
3071.71663,0.01318
3069.65645,0.01303
3067.59628,0.01279
3065.53611,0.01266
3063.47594,0.01259
3061.41577,0.01250
3059.35559,0.01240
3057.29542,0.01241
3055.23525,0.01253
3053.17508,0.01259
3051.11491,0.01252
3049.05473,0.01250
3046.99456,0.01257
3044.93439,0.01265
3042.87422,0.01267
3040.81404,0.01254
3038.75387,0.01234
3036.69370,0.01218
3034.63353,0.01203
3032.57336,0.01186
3030.51318,0.01182
3028.45301,0.01189
3026.39284,0.01197
3024.33267,0.01205
3022.27250,0.01205
3020.21232,0.01196
3018.15215,0.01191
3016.09198,0.01182
3014.03181,0.01166
3011.97163,0.01160
3009.91146,0.01165
3007.85129,0.01163
3005.79112,0.01154
3003.73095,0.01149
3001.67077,0.01155
2999.61060,0.01186
2997.55043,0.01206
2995.49026,0.01194
2993.43009,0.01168
2991.36991,0.01154
2989.30974,0.01145
2987.24957,0.01130
2985.18940,0.01121
2983.12923,0.01126
2981.06905,0.01138
2979.00888,0.01139
2976.94871,0.01130
2974.88854,0.01129
2972.82836,0.01136
2970.76819,0.01141
2968.70802,0.01152
2966.64785,0.01166
2964.58768,0.01167
2962.52750,0.01158
2960.46733,0.01150
2958.40716,0.01146
2956.34699,0.01141
2954.28682,0.01143
2952.22664,0.01155
2950.16647,0.01165
2948.10630,0.01165
2946.04613,0.01162
2943.98596,0.01161
2941.92578,0.01164
2939.86561,0.01175
2937.80544,0.01178
2935.74527,0.01165
2933.68509,0.01159
2931.62492,0.01172
2929.56475,0.01176
2927.50458,0.01156
2925.44441,0.01135
2923.38423,0.01126
2921.32406,0.01114
2919.26389,0.01097
2917.20372,0.01094
2915.14355,0.01104
2913.08337,0.01115
2911.02320,0.01120
2908.96303,0.01116
2906.90286,0.01106
2904.84268,0.01103
2902.78251,0.01116
2900.72234,0.01128
2898.66217,0.01124
2896.60200,0.01113
2894.54182,0.01112
2892.48165,0.01119
2890.42148,0.01119
2888.36131,0.01124
2886.30114,0.01132
2884.24096,0.01137
2882.18079,0.01140
2880.12062,0.01142
2878.06045,0.01147
2876.00028,0.01153
2873.94010,0.01154
2871.87993,0.01148
2869.81976,0.01139
2867.75959,0.01134
2865.69941,0.01129
2863.63924,0.01125
2861.57907,0.01119
2859.51890,0.01110
2857.45873,0.01098
2855.39855,0.01081
2853.33838,0.01062
2851.27821,0.01053
2849.21804,0.01050
2847.15787,0.01038
2845.09769,0.01024
2843.03752,0.01032
2840.97735,0.01045
2838.91718,0.01045
2836.85700,0.01048
2834.79683,0.01056
2832.73666,0.01052
2830.67649,0.01038
2828.61632,0.01028
2826.55614,0.01020
2824.49597,0.01010
2822.43580,0.01006
2820.37563,0.01015
2818.31546,0.01021
2816.25528,0.01015
2814.19511,0.01013
2812.13494,0.01015
2810.07477,0.01007
2808.01460,0.00996
2805.95442,0.00997
2803.89425,0.00998
2801.83408,0.00994
2799.77391,0.00988
2797.71373,0.00980
2795.65356,0.00979
2793.59339,0.00991
2791.53322,0.01003
2789.47305,0.01005
2787.41287,0.00993
2785.35270,0.00970
2783.29253,0.00951
2781.23236,0.00945
2779.17219,0.00950
2777.11201,0.00962
2775.05184,0.00967
2772.99167,0.00955
2770.93150,0.00939
2768.87133,0.00926
2766.81115,0.00918
2764.75098,0.00921
2762.69081,0.00924
2760.63064,0.00917
2758.57046,0.00909
2756.51029,0.00903
2754.45012,0.00898
2752.38995,0.00905
2750.32978,0.00920
2748.26960,0.00924
2746.20943,0.00907
2744.14926,0.00886
2742.08909,0.00878
2740.02892,0.00882
2737.96874,0.00881
2735.90857,0.00869
2733.84840,0.00863
2731.78823,0.00871
2729.72805,0.00880
2727.66788,0.00880
2725.60771,0.00875
2723.54754,0.00876
2721.48737,0.00877
2719.42719,0.00870
2717.36702,0.00864
2715.30685,0.00852
2713.24668,0.00834
2711.18651,0.00822
2709.12633,0.00823
2707.06616,0.00836
2705.00599,0.00853
2702.94582,0.00862
2700.88565,0.00858
2698.82547,0.00845
2696.76530,0.00839
2694.70513,0.00842
2692.64496,0.00843
2690.58478,0.00836
2688.52461,0.00827
2686.46444,0.00826
2684.40427,0.00833
2682.34410,0.00834
2680.28392,0.00826
2678.22375,0.00823
2676.16358,0.00822
2674.10341,0.00816
2672.04324,0.00810
2669.98306,0.00813
2667.92289,0.00817
2665.86272,0.00817
2663.80255,0.00821
2661.74238,0.00825
2659.68220,0.00820
2657.62203,0.00812
2655.56186,0.00813
2653.50169,0.00825
2651.44151,0.00836
2649.38134,0.00836
2647.32117,0.00829
2645.26100,0.00824
2643.20083,0.00824
2641.14065,0.00823
2639.08048,0.00817
2637.02031,0.00818
2634.96014,0.00823
2632.89997,0.00812
2630.83979,0.00792
2628.77962,0.00784
2626.71945,0.00784
2624.65928,0.00780
2622.59910,0.00772
2620.53893,0.00762
2618.47876,0.00754
2616.41859,0.00754
2614.35842,0.00759
2612.29824,0.00758
2610.23807,0.00755
2608.17790,0.00753
2606.11773,0.00743
2604.05756,0.00738
2601.99738,0.00747
2599.93721,0.00760
2597.87704,0.00767
2595.81687,0.00767
2593.75670,0.00763
2591.69652,0.00759
2589.63635,0.00752
2587.57618,0.00746
2585.51601,0.00748
2583.45583,0.00752
2581.39566,0.00756
2579.33549,0.00759
2577.27532,0.00754
2575.21515,0.00737
2573.15497,0.00721
2571.09480,0.00722
2569.03463,0.00742
2566.97446,0.00763
2564.91429,0.00772
2562.85411,0.00764
2560.79394,0.00734
2558.73377,0.00706
2556.67360,0.00702
2554.61342,0.00708
2552.55325,0.00717
2550.49308,0.00738
2548.43291,0.00758
2546.37274,0.00757
2544.31256,0.00742
2542.25239,0.00736
2540.19222,0.00741
2538.13205,0.00732
2536.07188,0.00695
2534.01170,0.00667
2531.95153,0.00680
2529.89136,0.00707
2527.83119,0.00713
2525.77102,0.00693
2523.71084,0.00680
2521.65067,0.00714
2519.59050,0.00755
2517.53033,0.00749
2515.47015,0.00721
2513.40998,0.00721
2511.34981,0.00743
2509.28964,0.00748
2507.22947,0.00735
2505.16929,0.00726
2503.10912,0.00721
2501.04895,0.00722
2498.98878,0.00738
2496.92861,0.00765
2494.86843,0.00787
2492.80826,0.00790
2490.74809,0.00772
2488.68792,0.00752
2486.62775,0.00750
2484.56757,0.00761
2482.50740,0.00764
2480.44723,0.00757
2478.38706,0.00766
2476.32688,0.00787
2474.26671,0.00794
2472.20654,0.00793
2470.14637,0.00799
2468.08620,0.00802
2466.02602,0.00791
2463.96585,0.00779
2461.90568,0.00778
2459.84551,0.00778
2457.78534,0.00784
2455.72516,0.00807
2453.66499,0.00814
2451.60482,0.00792
2449.54465,0.00773
2447.48447,0.00777
2445.42430,0.00794
2443.36413,0.00802
2441.30396,0.00795
2439.24379,0.00782
2437.18361,0.00770
2435.12344,0.00766
2433.06327,0.00764
2431.00310,0.00755
2428.94293,0.00746
2426.88275,0.00761
2424.82258,0.00785
2422.76241,0.00790
2420.70224,0.00795
2418.64207,0.00791
2416.58189,0.00767
2414.52172,0.00764
2412.46155,0.00784
2410.40138,0.00790
2408.34120,0.00766
2406.28103,0.00730
2404.22086,0.00710
2402.16069,0.00726
2400.10052,0.00772
2398.04034,0.00788
2395.98017,0.00765
2393.92000,0.00743
2391.85983,0.00741
2389.79966,0.00731
2387.73948,0.00705
2385.67931,0.00678
2383.61914,0.00650
2381.55897,0.00615
2379.49880,0.00585
2377.43862,0.00565
2375.37845,0.00536
2373.31828,0.00530
2371.25811,0.00546
2369.19793,0.00560
2367.13776,0.00623
2365.07759,0.00756
2363.01742,0.00852
2360.95725,0.00970
2358.89707,0.00958
2356.83690,0.00839
2354.77673,0.00688
2352.71656,0.00642
2350.65639,0.00774
2348.59621,0.00850
2346.53604,0.00635
2344.47587,0.00591
2342.41570,0.00654
2340.35552,0.00707
2338.29535,0.00750
2336.23518,0.00757
2334.17501,0.00707
2332.11484,0.00636
2330.05466,0.00618
2327.99449,0.00627
2325.93432,0.00695
2323.87415,0.00686
2321.81398,0.00637
2319.75380,0.00569
2317.69363,0.00581
2315.63346,0.00582
2313.57329,0.00555
2311.51312,0.00548
2309.45294,0.00564
2307.39277,0.00592
2305.33260,0.00616
2303.27243,0.00631
2301.21225,0.00637
2299.15208,0.00651
2297.09191,0.00657
2295.03174,0.00651
2292.97157,0.00668
2290.91139,0.00704
2288.85122,0.00736
2286.79105,0.00751
2284.73088,0.00741
2282.67071,0.00719
2280.61053,0.00715
2278.55036,0.00715
2276.49019,0.00694
2274.43002,0.00672
2272.36984,0.00667
2270.30967,0.00685
2268.24950,0.00708
2266.18933,0.00713
2264.12916,0.00700
2262.06898,0.00679
2260.00881,0.00652
2257.94864,0.00628
2255.88847,0.00605
2253.82830,0.00603
2251.76812,0.00644
2249.70795,0.00684
2247.64778,0.00669
2245.58761,0.00629
2243.52744,0.00602
2241.46726,0.00610
2239.40709,0.00641
2237.34692,0.00647
2235.28675,0.00601
2233.22657,0.00543
2231.16640,0.00537
2229.10623,0.00576
2227.04606,0.00570
2224.98589,0.00512
2222.92571,0.00494
2220.86554,0.00513
2218.80537,0.00500
2216.74520,0.00462
2214.68503,0.00442
2212.62485,0.00450
2210.56468,0.00475
2208.50451,0.00510
2206.44434,0.00505
2204.38417,0.00472
2202.32399,0.00508
2200.26382,0.00589
2198.20365,0.00619
2196.14348,0.00602
2194.08330,0.00570
2192.02313,0.00510
2189.96296,0.00428
2187.90279,0.00378
2185.84262,0.00357
2183.78244,0.00354
2181.72227,0.00451
2179.66210,0.00588
2177.60193,0.00562
2175.54176,0.00430
2173.48158,0.00400
2171.42141,0.00435
2169.36124,0.00411
2167.30107,0.00405
2165.24089,0.00476
2163.18072,0.00501
2161.12055,0.00384
2159.06038,0.00205
2157.00021,0.00084
2154.94003,0.00096
2152.87986,0.00173
2150.81969,0.00187
2148.75952,0.00188
2146.69935,0.00231
2144.63917,0.00260
2142.57900,0.00273
2140.51883,0.00287
2138.45866,0.00275
2136.39849,0.00254
2134.33831,0.00261
2132.27814,0.00290
2130.21797,0.00318
2128.15780,0.00329
2126.09762,0.00363
2124.03745,0.00419
2121.97728,0.00439
2119.91711,0.00430
2117.85694,0.00428
2115.79676,0.00427
2113.73659,0.00439
2111.67642,0.00468
2109.61625,0.00465
2107.55608,0.00428
2105.49590,0.00404
2103.43573,0.00401
2101.37556,0.00375
2099.31539,0.00351
2097.25521,0.00352
2095.19504,0.00377
2093.13487,0.00366
2091.07470,0.00334
2089.01453,0.00353
2086.95435,0.00414
2084.89418,0.00466
2082.83401,0.00483
2080.77384,0.00486
2078.71367,0.00497
2076.65349,0.00499
2074.59332,0.00506
2072.53315,0.00542
2070.47298,0.00558
2068.41281,0.00535
2066.35263,0.00494
2064.29246,0.00421
2062.23229,0.00348
2060.17212,0.00344
2058.11194,0.00380
2056.05177,0.00407
2053.99160,0.00435
2051.93143,0.00463
2049.87126,0.00487
2047.81108,0.00545
2045.75091,0.00624
2043.69074,0.00657
2041.63057,0.00638
2039.57040,0.00594
2037.51022,0.00577
2035.45005,0.00605
2033.38988,0.00588
2031.32971,0.00524
2029.26954,0.00503
2027.20936,0.00470
2025.14919,0.00387
2023.08902,0.00332
2021.02885,0.00327
2018.96867,0.00343
2016.90850,0.00384
2014.84833,0.00475
2012.78816,0.00536
2010.72799,0.00519
2008.66781,0.00505
2006.60764,0.00484
2004.54747,0.00397
2002.48730,0.00304
2000.42713,0.00274
1998.36695,0.00279
1996.30678,0.00279
1994.24661,0.00291
1992.18644,0.00339
1990.12626,0.00399
1988.06609,0.00421
1986.00592,0.00414
1983.94575,0.00447
1981.88558,0.00531
1979.82540,0.00606
1977.76523,0.00630
1975.70506,0.00597
1973.64489,0.00517
1971.58472,0.00421
1969.52454,0.00370
1967.46437,0.00382
1965.40420,0.00405
1963.34403,0.00384
1961.28386,0.00363
1959.22368,0.00376
1957.16351,0.00365
1955.10334,0.00317
1953.04317,0.00291
1950.98299,0.00317
1948.92282,0.00348
1946.86265,0.00350
1944.80248,0.00360
1942.74231,0.00372
1940.68213,0.00350
1938.62196,0.00316
1936.56179,0.00314
1934.50162,0.00355
1932.44145,0.00389
1930.38127,0.00384
1928.32110,0.00380
1926.26093,0.00393
1924.20076,0.00401
1922.14059,0.00402
1920.08041,0.00418
1918.02024,0.00446
1915.96007,0.00461
1913.89990,0.00467
1911.83972,0.00473
1909.77955,0.00466
1907.71938,0.00450
1905.65921,0.00447
1903.59904,0.00451
1901.53886,0.00456
1899.47869,0.00462
1897.41852,0.00468
1895.35835,0.00484
1893.29818,0.00500
1891.23800,0.00504
1889.17783,0.00486
1887.11766,0.00460
1885.05749,0.00455
1882.99731,0.00469
1880.93714,0.00486
1878.87697,0.00500
1876.81680,0.00509
1874.75663,0.00504
1872.69645,0.00488
1870.63628,0.00487
1868.57611,0.00510
1866.51594,0.00522
1864.45577,0.00511
1862.39559,0.00498
1860.33542,0.00489
1858.27525,0.00480
1856.21508,0.00475
1854.15491,0.00476
1852.09473,0.00486
1850.03456,0.00494
1847.97439,0.00495
1845.91422,0.00499
1843.85404,0.00514
1841.79387,0.00519
1839.73370,0.00509
1837.67353,0.00498
1835.61336,0.00487
1833.55318,0.00492
1831.49301,0.00525
1829.43284,0.00547
1827.37267,0.00543
1825.31250,0.00541
1823.25232,0.00544
1821.19215,0.00543
1819.13198,0.00538
1817.07181,0.00528
1815.01163,0.00516
1812.95146,0.00510
1810.89129,0.00512
1808.83112,0.00515
1806.77095,0.00513
1804.71077,0.00500
1802.65060,0.00481
1800.59043,0.00479
1798.53026,0.00486
1796.47009,0.00490
1794.40991,0.00505
1792.34974,0.00522
1790.28957,0.00506
1788.22940,0.00477
1786.16923,0.00457
1784.10905,0.00462
1782.04888,0.00498
1779.98871,0.00527
1777.92854,0.00515
1775.86836,0.00497
1773.80819,0.00517
1771.74802,0.00537
1769.68785,0.00502
1767.62768,0.00460
1765.56750,0.00466
1763.50733,0.00496
1761.44716,0.00508
1759.38699,0.00490
1757.32682,0.00471
1755.26664,0.00468
1753.20647,0.00479
1751.14630,0.00496
1749.08613,0.00512
1747.02596,0.00509
1744.96578,0.00498
1742.90561,0.00496
1740.84544,0.00499
1738.78527,0.00495
1736.72509,0.00489
1734.66492,0.00491
1732.60475,0.00501
1730.54458,0.00511
1728.48441,0.00498
1726.42423,0.00477
1724.36406,0.00462
1722.30389,0.00461
1720.24372,0.00495
1718.18355,0.00535
1716.12337,0.00498
1714.06320,0.00433
1712.00303,0.00396
1709.94286,0.00406
1707.88268,0.00441
1705.82251,0.00446
1703.76234,0.00414
1701.70217,0.00422
1699.64200,0.00484
1697.58182,0.00524
1695.52165,0.00514
1693.46148,0.00490
1691.40131,0.00487
1689.34114,0.00522
1687.28096,0.00594
1685.22079,0.00700
1683.16062,0.00750
1681.10045,0.00720
1679.04028,0.00702
1676.98010,0.00735
1674.91993,0.00794
1672.85976,0.00855
1670.79959,0.00924
1668.73941,0.00975
1666.67924,0.00979
1664.61907,0.00979
1662.55890,0.00984
1660.49873,0.00952
1658.43855,0.00911
1656.37838,0.00926
1654.31821,0.01007
1652.25804,0.01048
1650.19787,0.01025
1648.13769,0.01010
1646.07752,0.01013
1644.01735,0.00977
1641.95718,0.00941
1639.89701,0.00958
1637.83683,0.01024
1635.77666,0.01060
1633.71649,0.01012
1631.65632,0.00945
1629.59614,0.00920
1627.53597,0.00930
1625.47580,0.00939
1623.41563,0.00934
1621.35546,0.00911
1619.29528,0.00909
1617.23511,0.00944
1615.17494,0.00948
1613.11477,0.00915
1611.05460,0.00905
1608.99442,0.00922
1606.93425,0.00927
1604.87408,0.00922
1602.81391,0.00914
1600.75373,0.00893
1598.69356,0.00864
1596.63339,0.00847
1594.57322,0.00844
1592.51305,0.00836
1590.45287,0.00815
1588.39270,0.00791
1586.33253,0.00772
1584.27236,0.00749
1582.21219,0.00717
1580.15201,0.00704
1578.09184,0.00729
1576.03167,0.00736
1573.97150,0.00677
1571.91133,0.00634
1569.85115,0.00645
1567.79098,0.00635
1565.73081,0.00582
1563.67064,0.00537
1561.61046,0.00556
1559.55029,0.00620
1557.49012,0.00588
1555.42995,0.00488
1553.36978,0.00418
1551.30960,0.00397
1549.24943,0.00390
1547.18926,0.00381
1545.12909,0.00394
1543.06892,0.00460
1541.00874,0.00547
1538.94857,0.00523
1536.88840,0.00416
1534.82823,0.00359
1532.76805,0.00367
1530.70788,0.00371
1528.64771,0.00368
1526.58754,0.00362
1524.52737,0.00351
1522.46719,0.00347
1520.40702,0.00325
1518.34685,0.00308
1516.28668,0.00300
1514.22651,0.00266
1512.16633,0.00225
1510.10616,0.00236
1508.04599,0.00317
1505.98582,0.00390
1503.92565,0.00365
1501.86547,0.00308
1499.80530,0.00311
1497.74513,0.00352
1495.68496,0.00368
1493.62478,0.00371
1491.56461,0.00391
1489.50444,0.00412
1487.44427,0.00412
1485.38410,0.00405
1483.32392,0.00405
1481.26375,0.00404
1479.20358,0.00398
1477.14341,0.00406
1475.08324,0.00438
1473.02306,0.00475
1470.96289,0.00482
1468.90272,0.00463
1466.84255,0.00461
1464.78238,0.00475
1462.72220,0.00482
1460.66203,0.00510
1458.60186,0.00556
1456.54169,0.00553
1454.48151,0.00520
1452.42134,0.00499
1450.36117,0.00516
1448.30100,0.00556
1446.24083,0.00591
1444.18065,0.00607
1442.12048,0.00606
1440.06031,0.00597
1438.00014,0.00595
1435.93997,0.00604
1433.87979,0.00614
1431.81962,0.00625
1429.75945,0.00642
1427.69928,0.00651
1425.63910,0.00661
1423.57893,0.00666
1421.51876,0.00652
1419.45859,0.00638
1417.39842,0.00648
1415.33824,0.00675
1413.27807,0.00703
1411.21790,0.00730
1409.15773,0.00753
1407.09756,0.00773
1405.03738,0.00782
1402.97721,0.00781
1400.91704,0.00783
1398.85687,0.00774
1396.79670,0.00755
1394.73652,0.00752
1392.67635,0.00754
1390.61618,0.00748
1388.55601,0.00755
1386.49583,0.00786
1384.43566,0.00812
1382.37549,0.00815
1380.31532,0.00813
1378.25515,0.00826
1376.19497,0.00848
1374.13480,0.00853
1372.07463,0.00846
1370.01446,0.00849
1367.95429,0.00853
1365.89411,0.00846
1363.83394,0.00824
1361.77377,0.00802
1359.71360,0.00802
1357.65343,0.00815
1355.59325,0.00822
1353.53308,0.00821
1351.47291,0.00813
1349.41274,0.00806
1347.35256,0.00799
1345.29239,0.00787
1343.23222,0.00759
1341.17205,0.00711
1339.11188,0.00660
1337.05170,0.00644
1334.99153,0.00665
1332.93136,0.00686
1330.87119,0.00685
1328.81102,0.00678
1326.75084,0.00678
1324.69067,0.00679
1322.63050,0.00679
1320.57033,0.00680
1318.51015,0.00666
1316.44998,0.00644
1314.38981,0.00637
1312.32964,0.00646
1310.26947,0.00656
1308.20929,0.00660
1306.14912,0.00657
1304.08895,0.00656
1302.02878,0.00652
1299.96861,0.00643
1297.90843,0.00638
1295.84826,0.00642
1293.78809,0.00651
1291.72792,0.00648
1289.66775,0.00628
1287.60757,0.00609
1285.54740,0.00610
1283.48723,0.00623
1281.42706,0.00632
1279.36688,0.00633
1277.30671,0.00623
1275.24654,0.00609
1273.18637,0.00608
1271.12620,0.00610
1269.06602,0.00604
1267.00585,0.00605
1264.94568,0.00614
1262.88551,0.00623
1260.82534,0.00627
1258.76516,0.00629
1256.70499,0.00630
1254.64482,0.00629
1252.58465,0.00627
1250.52447,0.00629
1248.46430,0.00629
1246.40413,0.00623
1244.34396,0.00617
1242.28379,0.00618
1240.22361,0.00622
1238.16344,0.00625
1236.10327,0.00625
1234.04310,0.00618
1231.98293,0.00605
1229.92275,0.00594
1227.86258,0.00589
1225.80241,0.00581
1223.74224,0.00569
1221.68207,0.00565
1219.62189,0.00567
1217.56172,0.00571
1215.50155,0.00575
1213.44138,0.00568
1211.38120,0.00560
1209.32103,0.00568
1207.26086,0.00588
1205.20069,0.00605
1203.14052,0.00615
1201.08034,0.00626
1199.02017,0.00641
1196.96000,0.00680
1194.89983,0.00730
1192.83966,0.00780
1190.77948,0.00828
1188.71931,0.00878
1186.65914,0.00942
1184.59897,0.01021
1182.53880,0.01100
1180.47862,0.01169
1178.41845,0.01237
1176.35828,0.01313
1174.29811,0.01397
1172.23793,0.01479
1170.17776,0.01542
1168.11759,0.01590
1166.05742,0.01641
1163.99725,0.01706
1161.93707,0.01773
1159.87690,0.01825
1157.81673,0.01863
1155.75656,0.01893
1153.69639,0.01920
1151.63621,0.01958
1149.57604,0.02006
1147.51587,0.02038
1145.45570,0.02041
1143.39552,0.02034
1141.33535,0.02026
1139.27518,0.02018
1137.21501,0.02020
1135.15484,0.02023
1133.09466,0.02021
1131.03449,0.02022
1128.97432,0.02034
1126.91415,0.02049
1124.85398,0.02057
1122.79380,0.02067
1120.73363,0.02092
1118.67346,0.02127
1116.61329,0.02165
1114.55312,0.02203
1112.49294,0.02248
1110.43277,0.02286
1108.37260,0.02316
1106.31243,0.02361
1104.25225,0.02420
1102.19208,0.02473
1100.13191,0.02518
1098.07174,0.02570
1096.01157,0.02629
1093.95139,0.02680
1091.89122,0.02721
1089.83105,0.02762
1087.77088,0.02816
1085.71071,0.02879
1083.65053,0.02924
1081.59036,0.02956
1079.53019,0.02995
1077.47002,0.03025
1075.40985,0.03038
1073.34967,0.03046
1071.28950,0.03050
1069.22933,0.03043
1067.16916,0.03021
1065.10898,0.02996
1063.04881,0.02987
1060.98864,0.02974
1058.92847,0.02933
1056.86830,0.02878
1054.80812,0.02818
1052.74795,0.02755
1050.68778,0.02694
1048.62761,0.02626
1046.56744,0.02542
1044.50726,0.02453
1042.44709,0.02374
1040.38692,0.02305
1038.32675,0.02229
1036.26657,0.02137
1034.20640,0.02047
1032.14623,0.01977
1030.08606,0.01922
1028.02589,0.01865
1025.96571,0.01799
1023.90554,0.01746
1021.84537,0.01717
1019.78520,0.01677
1017.72503,0.01614
1015.66485,0.01568
1013.60468,0.01554
1011.54451,0.01558
1009.48434,0.01568
1007.42417,0.01577
1005.36399,0.01583
1003.30382,0.01604
1001.24365,0.01653
999.18348,0.01705
997.12330,0.01735
995.06313,0.01754
993.00296,0.01774
990.94279,0.01793
988.88262,0.01807
986.82244,0.01831
984.76227,0.01864
982.70210,0.01884
980.64193,0.01898
978.58176,0.01918
976.52158,0.01927
974.46141,0.01923
972.40124,0.01915
970.34107,0.01904
968.28089,0.01893
966.22072,0.01891
964.16055,0.01893
962.10038,0.01895
960.04021,0.01901
957.98003,0.01899
955.91986,0.01877
953.85969,0.01853
951.79952,0.01842
949.73935,0.01833
947.67917,0.01816
945.61900,0.01793
943.55883,0.01767
941.49866,0.01732
939.43849,0.01705
937.37831,0.01699
935.31814,0.01674
933.25797,0.01605
931.19780,0.01531
929.13762,0.01477
927.07745,0.01442
925.01728,0.01408
922.95711,0.01358
920.89694,0.01300
918.83676,0.01248
916.77659,0.01206
914.71642,0.01166
912.65625,0.01128
910.59608,0.01105
908.53590,0.01082
906.47573,0.01048
904.41556,0.01024
902.35539,0.01011
900.29522,0.00993
898.23504,0.00986
896.17487,0.01004
894.11470,0.01032
892.05453,0.01049
889.99435,0.01062
887.93418,0.01104
885.87401,0.01172
883.81384,0.01230
881.75367,0.01272
879.69349,0.01332
877.63332,0.01406
875.57315,0.01462
873.51298,0.01513
871.45281,0.01599
869.39263,0.01711
867.33246,0.01799
865.27229,0.01847
863.21212,0.01885
861.15194,0.01932
859.09177,0.01964
857.03160,0.01954
854.97143,0.01919
852.91126,0.01886
850.85108,0.01855
848.79091,0.01835
846.73074,0.01818
844.67057,0.01774
842.61040,0.01717
840.55022,0.01660
838.49005,0.01598
836.42988,0.01530
834.36971,0.01459
832.30954,0.01402
830.24936,0.01371
828.18919,0.01339
826.12902,0.01288
824.06885,0.01245
822.00867,0.01209
819.94850,0.01151
817.88833,0.01096
815.82816,0.01065
813.76799,0.01027
811.70781,0.00993
809.64764,0.00985
807.58747,0.00983
805.52730,0.00954
803.46713,0.00886
801.40695,0.00828
799.34678,0.00819
797.28661,0.00823
795.22644,0.00816
793.16627,0.00813
791.10609,0.00821
789.04592,0.00835
786.98575,0.00837
784.92558,0.00828
782.86540,0.00821
780.80523,0.00798
778.74506,0.00764
776.68489,0.00760
774.62472,0.00772
772.56454,0.00768
770.50437,0.00752
768.44420,0.00725
766.38403,0.00694
764.32386,0.00674
762.26368,0.00664
760.20351,0.00659
758.14334,0.00654
756.08317,0.00635
754.02299,0.00593
751.96282,0.00572
749.90265,0.00586
747.84248,0.00580
745.78231,0.00564
743.72213,0.00579
741.66196,0.00588
739.60179,0.00572
737.54162,0.00555
735.48145,0.00562
733.42127,0.00597
731.36110,0.00599
729.30093,0.00557
727.24076,0.00538
725.18059,0.00550
723.12041,0.00574
721.06024,0.00567
719.00007,0.00590
716.93990,0.00593
714.87972,0.00581
712.81955,0.00568
710.75938,0.00546
708.69921,0.00519
706.63904,0.00492
704.57886,0.00480
702.51869,0.00486
700.45852,0.00465
698.39835,0.00401
696.33818,0.00349
694.27800,0.00360
692.21783,0.00398
690.15766,0.00423
688.09749,0.00470
686.03731,0.00528
683.97714,0.00519
681.91697,0.00469
679.85680,0.00470
677.79663,0.00498
675.73645,0.00459
673.67628,0.00416
671.61611,0.00522
669.55594,0.00475
667.49577,0.00253
665.43559,0.00714
663.37542,0.00598
661.31525,0.00418
659.25508,0.00366
657.19491,0.00401
655.13473,0.00461
653.07456,0.00471
651.01439,0.00430
648.95422,0.00386
646.89404,0.00384
644.83387,0.00395
642.77370,0.00409
640.71353,0.00407
638.65336,0.00365
636.59318,0.00293
634.53301,0.00254
632.47284,0.00265
630.41267,0.00248
628.35250,0.00165
626.29232,0.00101
624.23215,0.00143
622.17198,0.00246
620.11181,0.00329
618.05164,0.00336
615.99146,0.00289
613.93129,0.00276
611.87112,0.00293
609.81095,0.00215
607.75077,0.00068
605.69060,0.00000
603.63043,-0.00012
601.57026,-0.00028
599.51009,0.00000
