3996.73391,0.00026
3994.67373,0.00015
3992.61356,0.00019
3990.55339,0.00038
3988.49322,0.00043
3986.43305,0.00031
3984.37287,0.00024
3982.31270,0.00038
3980.25253,0.00069
3978.19236,0.00091
3976.13219,0.00083
3974.07201,0.00063
3972.01184,0.00052
3969.95167,0.00059
3967.89150,0.00086
3965.83133,0.00113
3963.77115,0.00104
3961.71098,0.00070
3959.65081,0.00050
3957.59064,0.00054
3955.53046,0.00080
3953.47029,0.00101
3951.41012,0.00077
3949.34995,0.00022
3947.28978,0.00000
3945.22960,0.00014
3943.16943,0.00029
3941.10926,0.00055
3939.04909,0.00087
3936.98892,0.00099
3934.92874,0.00077
3932.86857,0.00048
3930.80840,0.00061
3928.74823,0.00112
3926.68805,0.00166
3924.62788,0.00203
3922.56771,0.00204
3920.50754,0.00171
3918.44737,0.00123
3916.38719,0.00113
3914.32702,0.00152
3912.26685,0.00191
3910.20668,0.00202
3908.14651,0.00191
3906.08633,0.00159
3904.02616,0.00104
3901.96599,0.00063
3899.90582,0.00078
3897.84565,0.00112
3895.78547,0.00121
3893.72530,0.00102
3891.66513,0.00080
3889.60496,0.00067
3887.54478,0.00052
3885.48461,0.00052
3883.42444,0.00072
3881.36427,0.00103
3879.30410,0.00150
3877.24392,0.00178
3875.18375,0.00154
3873.12358,0.00092
3871.06341,0.00037
3869.00324,0.00039
3866.94306,0.00071
3864.88289,0.00096
3862.82272,0.00108
3860.76255,0.00094
3858.70237,0.00052
3856.64220,0.00000
3854.58203,0.00011
3852.52186,0.00121
3850.46169,0.00213
3848.40151,0.00196
3846.34134,0.00147
3844.28117,0.00128
3842.22100,0.00127
3840.16083,0.00117
3838.10065,0.00105
3836.04048,0.00130
3833.98031,0.00175
3831.92014,0.00206
3829.85997,0.00217
3827.79979,0.00213
3825.73962,0.00206
3823.67945,0.00210
3821.61928,0.00225
3819.55910,0.00218
3817.49893,0.00216
3815.43876,0.00257
3813.37859,0.00296
3811.31842,0.00282
3809.25824,0.00266
3807.19807,0.00283
3805.13790,0.00308
3803.07773,0.00349
3801.01756,0.00403
3798.95738,0.00403
3796.89721,0.00354
3794.83704,0.00334
3792.77687,0.00348
3790.71670,0.00352
3788.65652,0.00347
3786.59635,0.00364
3784.53618,0.00400
3782.47601,0.00431
3780.41583,0.00448
3778.35566,0.00449
3776.29549,0.00432
3774.23532,0.00400
3772.17515,0.00358
3770.11497,0.00329
3768.05480,0.00331
3765.99463,0.00345
3763.93446,0.00342
3761.87429,0.00314
3759.81411,0.00278
3757.75394,0.00235
3755.69377,0.00182
3753.63360,0.00123
3751.57342,0.00075
3749.51325,0.00040
3747.45308,0.00019
3745.39291,0.00000
3743.33274,0.00034
3741.27256,0.00077
3739.21239,0.00056
3737.15222,0.00011
3735.09205,0.00029
3733.03188,0.00145
3730.97170,0.00249
3728.91153,0.00264
3726.85136,0.00236
3724.79119,0.00219
3722.73102,0.00225
3720.67084,0.00286
3718.61067,0.00355
3716.55050,0.00363
3714.49033,0.00327
3712.43015,0.00318
3710.36998,0.00354
3708.30981,0.00383
3706.24964,0.00395
3704.18947,0.00391
3702.12929,0.00379
3700.06912,0.00373
3698.00895,0.00376
3695.94878,0.00378
3693.88861,0.00380
3691.82843,0.00388
3689.76826,0.00365
3687.70809,0.00342
3685.64792,0.00365
3683.58775,0.00398
3681.52757,0.00418
3679.46740,0.00413
3677.40723,0.00371
3675.34706,0.00327
3673.28688,0.00309
3671.22671,0.00309
3669.16654,0.00334
3667.10637,0.00365
3665.04620,0.00378
3662.98602,0.00391
3660.92585,0.00406
3658.86568,0.00410
3656.80551,0.00406
3654.74534,0.00398
3652.68516,0.00388
3650.62499,0.00375
3648.56482,0.00366
3646.50465,0.00408
3644.44447,0.00428
3642.38430,0.00414
3640.32413,0.00406
3638.26396,0.00404
3636.20379,0.00393
3634.14361,0.00376
3632.08344,0.00363
3630.02327,0.00363
3627.96310,0.00397
3625.90293,0.00439
3623.84275,0.00440
3621.78258,0.00404
3619.72241,0.00374
3617.66224,0.00377
3615.60207,0.00383
3613.54189,0.00382
3611.48172,0.00380
3609.42155,0.00409
3607.36138,0.00456
3605.30120,0.00475
3603.24103,0.00473
3601.18086,0.00477
3599.12069,0.00488
3597.06052,0.00483
3595.00034,0.00480
3592.94017,0.00484
3590.88000,0.00468
3588.81983,0.00427
3586.75966,0.00433
3584.69948,0.00502
3582.63931,0.00552
3580.57914,0.00566
3578.51897,0.00575
3576.45879,0.00596
3574.39862,0.00616
3572.33845,0.00614
3570.27828,0.00568
3568.21811,0.00499
3566.15793,0.00498
3564.09776,0.00585
3562.03759,0.00660
3559.97742,0.00694
3557.91725,0.00706
3555.85707,0.00701
3553.79690,0.00696
3551.73673,0.00707
3549.67656,0.00707
3547.61639,0.00678
3545.55621,0.00669
3543.49604,0.00708
3541.43587,0.00758
3539.37570,0.00783
3537.31552,0.00784
3535.25535,0.00790
3533.19518,0.00812
3531.13501,0.00819
3529.07484,0.00796
3527.01466,0.00765
3524.95449,0.00765
3522.89432,0.00806
3520.83415,0.00852
3518.77398,0.00875
3516.71380,0.00889
3514.65363,0.00915
3512.59346,0.00938
3510.53329,0.00934
3508.47312,0.00915
3506.41294,0.00908
3504.35277,0.00895
3502.29260,0.00867
3500.23243,0.00872
3498.17225,0.00920
3496.11208,0.00965
3494.05191,0.00987
3491.99174,0.00994
3489.93157,0.00988
3487.87139,0.00967
3485.81122,0.00949
3483.75105,0.00962
3481.69088,0.01001
3479.63071,0.01038
3477.57053,0.01061
3475.51036,0.01075
3473.45019,0.01075
3471.39002,0.01056
3469.32984,0.01032
3467.26967,0.01028
3465.20950,0.01040
3463.14933,0.01044
3461.08916,0.01041
3459.02898,0.01054
3456.96881,0.01076
3454.90864,0.01091
3452.84847,0.01089
3450.78830,0.01077
3448.72812,0.01077
3446.66795,0.01102
3444.60778,0.01125
3442.54761,0.01120
3440.48744,0.01101
3438.42726,0.01103
3436.36709,0.01127
3434.30692,0.01148
3432.24675,0.01158
3430.18657,0.01169
3428.12640,0.01181
3426.06623,0.01180
3424.00606,0.01171
3421.94589,0.01157
3419.88571,0.01142
3417.82554,0.01156
3415.76537,0.01197
3413.70520,0.01235
3411.64503,0.01251
3409.58485,0.01251
3407.52468,0.01254
3405.46451,0.01256
3403.40434,0.01253
3401.34416,0.01240
3399.28399,0.01151
3397.22382,0.01144
3395.16365,0.01149
3393.10348,0.01131
3391.04330,0.01131
3388.98313,0.01168
3386.92296,0.01202
3384.86279,0.01212
3382.80262,0.01224
3380.74244,0.01253
3378.68227,0.01284
3376.62210,0.01290
3374.56193,0.01284
3372.50176,0.01284
3370.44158,0.01285
3368.38141,0.01276
3366.32124,0.01270
3364.26107,0.01273
3362.20089,0.01267
3360.14072,0.01252
3358.08055,0.01255
3356.02038,0.01269
3353.96021,0.01276
3351.90003,0.01293
3349.83986,0.01316
3347.77969,0.01325
3345.71952,0.01329
3343.65935,0.01341
3341.59917,0.01354
3339.53900,0.01350
3337.47883,0.01326
3335.41866,0.01309
3333.35849,0.01314
3331.29831,0.01317
3329.23814,0.01315
3327.17797,0.01313
3325.11780,0.01321
3323.05762,0.01335
3320.99745,0.01335
3318.93728,0.01332
3316.87711,0.01339
3314.81694,0.01338
3312.75676,0.01321
3310.69659,0.01301
3308.63642,0.01292
3306.57625,0.01305
3304.51608,0.01327
3302.45590,0.01336
3300.39573,0.01328
3298.33556,0.01322
3296.27539,0.01331
3294.21521,0.01334
3292.15504,0.01323
3290.09487,0.01324
3288.03470,0.01338
3285.97453,0.01348
3283.91435,0.01346
3281.85418,0.01338
3279.79401,0.01339
3277.73384,0.01353
3275.67367,0.01354
3273.61349,0.01339
3271.55332,0.01339
3269.49315,0.01359
3267.43298,0.01369
3265.37281,0.01366
3263.31263,0.01368
3261.25246,0.01365
3259.19229,0.01353
3257.13212,0.01344
3255.07194,0.01334
3253.01177,0.01337
3250.95160,0.01349
3248.89143,0.01344
3246.83126,0.01328
3244.77108,0.01321
3242.71091,0.01317
3240.65074,0.01322
3238.59057,0.01337
3236.53040,0.01339
3234.47022,0.01331
3232.41005,0.01322
3230.34988,0.01321
3228.28971,0.01329
3226.22954,0.01337
3224.16936,0.01329
3222.10919,0.01301
3220.04902,0.01273
3217.98885,0.01268
3215.92867,0.01277
3213.86850,0.01285
3211.80833,0.01294
3209.74816,0.01299
3207.68799,0.01294
3205.62781,0.01294
3203.56764,0.01316
3201.50747,0.01338
3199.44730,0.01331
3197.38713,0.01323
3195.32695,0.01333
3193.26678,0.01333
3191.20661,0.01317
3189.14644,0.01302
3187.08626,0.01296
3185.02609,0.01300
3182.96592,0.01300
3180.90575,0.01289
3178.84558,0.01281
3176.78540,0.01276
3174.72523,0.01264
3172.66506,0.01257
3170.60489,0.01259
3168.54472,0.01255
3166.48454,0.01250
3164.42437,0.01251
3162.36420,0.01255
3160.30403,0.01258
3158.24386,0.01261
3156.18368,0.01259
3154.12351,0.01251
3152.06334,0.01246
3150.00317,0.01244
3147.94299,0.01241
3145.88282,0.01241
3143.82265,0.01235
3141.76248,0.01223
3139.70231,0.01216
3137.64213,0.01224
3135.58196,0.01236
3133.52179,0.01245
3131.46162,0.01253
3129.40145,0.01242
3127.34127,0.01216
3125.28110,0.01203
3123.22093,0.01187
3121.16076,0.01161
3119.10058,0.01145
3117.04041,0.01147
3114.98024,0.01161
3112.92007,0.01174
3110.85990,0.01178
3108.79972,0.01180
3106.73955,0.01184
3104.67938,0.01188
3102.61921,0.01179
3100.55904,0.01159
3098.49886,0.01150
3096.43869,0.01164
3094.37852,0.01189
3092.31835,0.01201
3090.25818,0.01198
3088.19800,0.01183
3086.13783,0.01168
3084.07766,0.01157
3082.01749,0.01148
3079.95731,0.01146
3077.89714,0.01155
3075.83697,0.01169
3073.77680,0.01173
3071.71663,0.01167
3069.65645,0.01162
3067.59628,0.01153
3065.53611,0.01141
3063.47594,0.01132
3061.41577,0.01124
3059.35559,0.01118
3057.29542,0.01117
3055.23525,0.01127
3053.17508,0.01135
3051.11491,0.01126
3049.05473,0.01113
3046.99456,0.01110
3044.93439,0.01124
3042.87422,0.01137
3040.81404,0.01133
3038.75387,0.01121
3036.69370,0.01104
3034.63353,0.01077
3032.57336,0.01053
3030.51318,0.01044
3028.45301,0.01043
3026.39284,0.01038
3024.33267,0.01040
3022.27250,0.01049
3020.21232,0.01060
3018.15215,0.01074
3016.09198,0.01068
3014.03181,0.01037
3011.97163,0.01020
3009.91146,0.01030
3007.85129,0.01036
3005.79112,0.01027
3003.73095,0.01011
3001.67077,0.01002
2999.61060,0.01016
2997.55043,0.01032
2995.49026,0.01039
2993.43009,0.01025
2991.36991,0.01003
2989.30974,0.00987
2987.24957,0.00976
2985.18940,0.00976
2983.12923,0.00995
2981.06905,0.01016
2979.00888,0.01023
2976.94871,0.01022
2974.88854,0.01026
2972.82836,0.01029
2970.76819,0.01034
2968.70802,0.01044
2966.64785,0.01049
2964.58768,0.01045
2962.52750,0.01040
2960.46733,0.01040
2958.40716,0.01037
2956.34699,0.01031
2954.28682,0.01041
2952.22664,0.01064
2950.16647,0.01070
2948.10630,0.01057
2946.04613,0.01052
2943.98596,0.01053
2941.92578,0.01045
2939.86561,0.01040
2937.80544,0.01044
2935.74527,0.01044
2933.68509,0.01046
2931.62492,0.01058
2929.56475,0.01063
2927.50458,0.01046
2925.44441,0.01021
2923.38423,0.01004
2921.32406,0.00988
2919.26389,0.00975
2917.20372,0.00981
2915.14355,0.00995
2913.08337,0.01002
2911.02320,0.01010
2908.96303,0.01009
2906.90286,0.00998
2904.84268,0.00999
2902.78251,0.01011
2900.72234,0.01021
2898.66217,0.01020
2896.60200,0.01007
2894.54182,0.00999
2892.48165,0.00996
2890.42148,0.00995
2888.36131,0.01003
2886.30114,0.01018
2884.24096,0.01032
2882.18079,0.01038
2880.12062,0.01042
2878.06045,0.01049
2876.00028,0.01051
2873.94010,0.01047
2871.87993,0.01046
2869.81976,0.01039
2867.75959,0.01018
2865.69941,0.01003
2863.63924,0.01010
2861.57907,0.01013
2859.51890,0.01007
2857.45873,0.01002
2855.39855,0.00984
2853.33838,0.00958
2851.27821,0.00946
2849.21804,0.00944
2847.15787,0.00937
2845.09769,0.00938
2843.03752,0.00950
2840.97735,0.00962
2838.91718,0.00967
2836.85700,0.00964
2834.79683,0.00957
2832.73666,0.00948
2830.67649,0.00942
2828.61632,0.00940
2826.55614,0.00938
2824.49597,0.00930
2822.43580,0.00920
2820.37563,0.00917
2818.31546,0.00918
2816.25528,0.00914
2814.19511,0.00912
2812.13494,0.00921
2810.07477,0.00926
2808.01460,0.00923
2805.95442,0.00919
2803.89425,0.00911
2801.83408,0.00901
2799.77391,0.00893
2797.71373,0.00884
2795.65356,0.00882
2793.59339,0.00893
2791.53322,0.00912
2789.47305,0.00916
2787.41287,0.00894
2785.35270,0.00870
2783.29253,0.00862
2781.23236,0.00855
2779.17219,0.00843
2777.11201,0.00837
2775.05184,0.00843
2772.99167,0.00851
2770.93150,0.00852
2768.87133,0.00844
2766.81115,0.00839
2764.75098,0.00845
2762.69081,0.00844
2760.63064,0.00827
2758.57046,0.00811
2756.51029,0.00807
2754.45012,0.00811
2752.38995,0.00820
2750.32978,0.00827
2748.26960,0.00818
2746.20943,0.00798
2744.14926,0.00784
2742.08909,0.00779
2740.02892,0.00782
2737.96874,0.00783
2735.90857,0.00776
2733.84840,0.00770
2731.78823,0.00766
2729.72805,0.00770
2727.66788,0.00777
2725.60771,0.00783
2723.54754,0.00791
2721.48737,0.00802
2719.42719,0.00803
2717.36702,0.00787
2715.30685,0.00772
2713.24668,0.00764
2711.18651,0.00753
2709.12633,0.00739
2707.06616,0.00742
2705.00599,0.00763
2702.94582,0.00779
2700.88565,0.00779
2698.82547,0.00765
2696.76530,0.00758
2694.70513,0.00768
2692.64496,0.00773
2690.58478,0.00758
2688.52461,0.00735
2686.46444,0.00726
2684.40427,0.00731
2682.34410,0.00735
2680.28392,0.00738
2678.22375,0.00745
2676.16358,0.00745
2674.10341,0.00734
2672.04324,0.00723
2669.98306,0.00726
2667.92289,0.00733
2665.86272,0.00734
2663.80255,0.00744
2661.74238,0.00752
2659.68220,0.00740
2657.62203,0.00727
2655.56186,0.00731
2653.50169,0.00746
2651.44151,0.00757
2649.38134,0.00753
2647.32117,0.00740
2645.26100,0.00730
2643.20083,0.00729
2641.14065,0.00738
2639.08048,0.00741
2637.02031,0.00726
2634.96014,0.00712
2632.89997,0.00707
2630.83979,0.00709
2628.77962,0.00711
2626.71945,0.00711
2624.65928,0.00716
2622.59910,0.00721
2620.53893,0.00719
2618.47876,0.00712
2616.41859,0.00710
2614.35842,0.00709
2612.29824,0.00698
2610.23807,0.00696
2608.17790,0.00704
2606.11773,0.00694
2604.05756,0.00679
2601.99738,0.00683
2599.93721,0.00693
2597.87704,0.00706
2595.81687,0.00713
2593.75670,0.00704
2591.69652,0.00692
2589.63635,0.00689
2587.57618,0.00681
2585.51601,0.00663
2583.45583,0.00658
2581.39566,0.00672
2579.33549,0.00679
2577.27532,0.00677
2575.21515,0.00679
2573.15497,0.00679
2571.09480,0.00677
2569.03463,0.00687
2566.97446,0.00700
2564.91429,0.00703
2562.85411,0.00698
2560.79394,0.00681
2558.73377,0.00663
2556.67360,0.00674
2554.61342,0.00696
2552.55325,0.00701
2550.49308,0.00700
2548.43291,0.00705
2546.37274,0.00693
2544.31256,0.00664
2542.25239,0.00651
2540.19222,0.00679
2538.13205,0.00711
2536.07188,0.00695
2534.01170,0.00664
2531.95153,0.00659
2529.89136,0.00665
2527.83119,0.00668
2525.77102,0.00652
2523.71084,0.00631
2521.65067,0.00648
2519.59050,0.00688
2517.53033,0.00704
2515.47015,0.00688
2513.40998,0.00678
2511.34981,0.00688
2509.28964,0.00693
2507.22947,0.00684
2505.16929,0.00669
2503.10912,0.00653
2501.04895,0.00650
2498.98878,0.00664
2496.92861,0.00676
2494.86843,0.00688
2492.80826,0.00709
2490.74809,0.00717
2488.68792,0.00702
2486.62775,0.00687
2484.56757,0.00683
2482.50740,0.00698
2480.44723,0.00725
2478.38706,0.00744
2476.32688,0.00751
2474.26671,0.00737
2472.20654,0.00716
2470.14637,0.00724
2468.08620,0.00734
2466.02602,0.00717
2463.96585,0.00708
2461.90568,0.00729
2459.84551,0.00740
2457.78534,0.00733
2455.72516,0.00738
2453.66499,0.00741
2451.60482,0.00730
2449.54465,0.00719
2447.48447,0.00718
2445.42430,0.00722
2443.36413,0.00725
2441.30396,0.00720
2439.24379,0.00706
2437.18361,0.00702
2435.12344,0.00718
2433.06327,0.00724
2431.00310,0.00708
2428.94293,0.00702
2426.88275,0.00721
2424.82258,0.00745
2422.76241,0.00757
2420.70224,0.00759
2418.64207,0.00736
2416.58189,0.00704
2414.52172,0.00699
2412.46155,0.00711
2410.40138,0.00714
2408.34120,0.00703
2406.28103,0.00685
2404.22086,0.00679
2402.16069,0.00681
2400.10052,0.00681
2398.04034,0.00671
2395.98017,0.00657
2393.92000,0.00655
2391.85983,0.00664
2389.79966,0.00666
2387.73948,0.00659
2385.67931,0.00656
2383.61914,0.00645
2381.55897,0.00614
2379.49880,0.00582
2377.43862,0.00564
2375.37845,0.00519
2373.31828,0.00530
2371.25811,0.00586
2369.19793,0.00620
2367.13776,0.00697
2365.07759,0.00830
2363.01742,0.00822
2360.95725,0.00948
2358.89707,0.00909
2356.83690,0.00780
2354.77673,0.00594
2352.71656,0.00585
2350.65639,0.00922
2348.59621,0.01114
2346.53604,0.00601
2344.47587,0.00529
2342.41570,0.00683
2340.35552,0.00792
2338.29535,0.00846
2336.23518,0.00831
2334.17501,0.00779
2332.11484,0.00717
2330.05466,0.00706
2327.99449,0.00637
2325.93432,0.00689
2323.87415,0.00627
2321.81398,0.00600
2319.75380,0.00519
2317.69363,0.00568
2315.63346,0.00573
2313.57329,0.00532
2311.51312,0.00532
2309.45294,0.00544
2307.39277,0.00563
2305.33260,0.00574
2303.27243,0.00580
2301.21225,0.00578
2299.15208,0.00617
2297.09191,0.00653
2295.03174,0.00634
2292.97157,0.00616
2290.91139,0.00643
2288.85122,0.00681
2286.79105,0.00683
2284.73088,0.00656
2282.67071,0.00643
2280.61053,0.00654
2278.55036,0.00664
2276.49019,0.00663
2274.43002,0.00658
2272.36984,0.00640
2270.30967,0.00634
2268.24950,0.00659
2266.18933,0.00697
2264.12916,0.00719
2262.06898,0.00717
2260.00881,0.00680
2257.94864,0.00636
2255.88847,0.00604
2253.82830,0.00589
2251.76812,0.00608
2249.70795,0.00627
2247.64778,0.00608
2245.58761,0.00586
2243.52744,0.00578
2241.46726,0.00577
2239.40709,0.00565
2237.34692,0.00537
2235.28675,0.00530
2233.22657,0.00531
2231.16640,0.00496
2229.10623,0.00453
2227.04606,0.00470
2224.98589,0.00536
2222.92571,0.00553
2220.86554,0.00494
2218.80537,0.00432
2216.74520,0.00429
2214.68503,0.00470
2212.62485,0.00497
2210.56468,0.00494
2208.50451,0.00494
2206.44434,0.00500
2204.38417,0.00494
2202.32399,0.00478
2200.26382,0.00481
2198.20365,0.00513
2196.14348,0.00547
2194.08330,0.00537
2192.02313,0.00483
2189.96296,0.00434
2187.90279,0.00387
2185.84262,0.00339
2183.78244,0.00369
2181.72227,0.00468
2179.66210,0.00515
2177.60193,0.00481
2175.54176,0.00446
2173.48158,0.00473
2171.42141,0.00517
2169.36124,0.00491
2167.30107,0.00427
2165.24089,0.00410
2163.18072,0.00436
2161.12055,0.00444
2159.06038,0.00379
2157.00021,0.00238
2154.94003,0.00157
2152.87986,0.00184
2150.81969,0.00157
2148.75952,0.00110
2146.69935,0.00207
2144.63917,0.00316
2142.57900,0.00299
2140.51883,0.00261
2138.45866,0.00268
2136.39849,0.00294
2134.33831,0.00298
2132.27814,0.00265
2130.21797,0.00254
2128.15780,0.00286
2126.09762,0.00348
2124.03745,0.00400
2121.97728,0.00407
2119.91711,0.00414
2117.85694,0.00450
2115.79676,0.00498
2113.73659,0.00532
2111.67642,0.00513
2109.61625,0.00446
2107.55608,0.00394
2105.49590,0.00398
2103.43573,0.00418
2101.37556,0.00397
2099.31539,0.00377
2097.25521,0.00366
2095.19504,0.00367
2093.13487,0.00366
2091.07470,0.00368
2089.01453,0.00388
2086.95435,0.00410
2084.89418,0.00430
2082.83401,0.00460
2080.77384,0.00480
2078.71367,0.00472
2076.65349,0.00458
2074.59332,0.00465
2072.53315,0.00487
2070.47298,0.00474
2068.41281,0.00429
2066.35263,0.00396
2064.29246,0.00350
2062.23229,0.00319
2060.17212,0.00322
2058.11194,0.00318
2056.05177,0.00332
2053.99160,0.00381
2051.93143,0.00428
2049.87126,0.00489
2047.81108,0.00585
2045.75091,0.00630
2043.69074,0.00562
2041.63057,0.00480
2039.57040,0.00484
2037.51022,0.00530
2035.45005,0.00533
2033.38988,0.00486
2031.32971,0.00460
2029.26954,0.00469
2027.20936,0.00419
2025.14919,0.00304
2023.08902,0.00216
2021.02885,0.00180
2018.96867,0.00189
2016.90850,0.00274
2014.84833,0.00428
2012.78816,0.00558
2010.72799,0.00605
2008.66781,0.00571
2006.60764,0.00512
2004.54747,0.00464
2002.48730,0.00413
2000.42713,0.00386
1998.36695,0.00369
1996.30678,0.00313
1994.24661,0.00283
1992.18644,0.00349
1990.12626,0.00435
1988.06609,0.00464
1986.00592,0.00483
1983.94575,0.00518
1981.88558,0.00544
1979.82540,0.00547
1977.76523,0.00531
1975.70506,0.00496
1973.64489,0.00434
1971.58472,0.00369
1969.52454,0.00356
1967.46437,0.00384
1965.40420,0.00381
1963.34403,0.00335
1961.28386,0.00289
1959.22368,0.00272
1957.16351,0.00270
1955.10334,0.00261
1953.04317,0.00280
1950.98299,0.00361
1948.92282,0.00428
1946.86265,0.00423
1944.80248,0.00397
1942.74231,0.00374
1940.68213,0.00338
1938.62196,0.00317
1936.56179,0.00351
1934.50162,0.00415
1932.44145,0.00430
1930.38127,0.00383
1928.32110,0.00344
1926.26093,0.00353
1924.20076,0.00381
1922.14059,0.00401
1920.08041,0.00419
1918.02024,0.00440
1915.96007,0.00459
1913.89990,0.00472
1911.83972,0.00457
1909.77955,0.00419
1907.71938,0.00402
1905.65921,0.00418
1903.59904,0.00438
1901.53886,0.00443
1899.47869,0.00441
1897.41852,0.00445
1895.35835,0.00456
1893.29818,0.00462
1891.23800,0.00461
1889.17783,0.00457
1887.11766,0.00455
1885.05749,0.00469
1882.99731,0.00491
1880.93714,0.00496
1878.87697,0.00478
1876.81680,0.00447
1874.75663,0.00414
1872.69645,0.00391
1870.63628,0.00392
1868.57611,0.00412
1866.51594,0.00420
1864.45577,0.00413
1862.39559,0.00420
1860.33542,0.00445
1858.27525,0.00467
1856.21508,0.00472
1854.15491,0.00465
1852.09473,0.00461
1850.03456,0.00455
1847.97439,0.00439
1845.91422,0.00422
1843.85404,0.00415
1841.79387,0.00421
1839.73370,0.00436
1837.67353,0.00451
1835.61336,0.00451
1833.55318,0.00456
1831.49301,0.00481
1829.43284,0.00501
1827.37267,0.00503
1825.31250,0.00497
1823.25232,0.00491
1821.19215,0.00488
1819.13198,0.00485
1817.07181,0.00481
1815.01163,0.00478
1812.95146,0.00476
1810.89129,0.00473
1808.83112,0.00473
1806.77095,0.00474
1804.71077,0.00457
1802.65060,0.00428
1800.59043,0.00420
1798.53026,0.00426
1796.47009,0.00423
1794.40991,0.00427
1792.34974,0.00445
1790.28957,0.00447
1788.22940,0.00432
1786.16923,0.00414
1784.10905,0.00414
1782.04888,0.00434
1779.98871,0.00451
1777.92854,0.00444
1775.86836,0.00438
1773.80819,0.00453
1771.74802,0.00461
1769.68785,0.00434
1767.62768,0.00415
1765.56750,0.00424
1763.50733,0.00438
1761.44716,0.00437
1759.38699,0.00422
1757.32682,0.00405
1755.26664,0.00391
1753.20647,0.00383
1751.14630,0.00391
1749.08613,0.00407
1747.02596,0.00408
1744.96578,0.00401
1742.90561,0.00405
1740.84544,0.00411
1738.78527,0.00404
1736.72509,0.00396
1734.66492,0.00399
1732.60475,0.00408
1730.54458,0.00419
1728.48441,0.00414
1726.42423,0.00399
1724.36406,0.00384
1722.30389,0.00383
1720.24372,0.00403
1718.18355,0.00412
1716.12337,0.00357
1714.06320,0.00306
1712.00303,0.00295
1709.94286,0.00319
1707.88268,0.00344
1705.82251,0.00328
1703.76234,0.00290
1701.70217,0.00305
1699.64200,0.00364
1697.58182,0.00392
1695.52165,0.00388
1693.46148,0.00378
1691.40131,0.00370
1689.34114,0.00381
1687.28096,0.00423
1685.22079,0.00504
1683.16062,0.00560
1681.10045,0.00566
1679.04028,0.00573
1676.98010,0.00609
1674.91993,0.00661
1672.85976,0.00715
1670.79959,0.00771
1668.73941,0.00806
1666.67924,0.00803
1664.61907,0.00803
1662.55890,0.00812
1660.49873,0.00787
1658.43855,0.00750
1656.37838,0.00758
1654.31821,0.00822
1652.25804,0.00858
1650.19787,0.00838
1648.13769,0.00823
1646.07752,0.00830
1644.01735,0.00802
1641.95718,0.00764
1639.89701,0.00768
1637.83683,0.00812
1635.77666,0.00843
1633.71649,0.00819
1631.65632,0.00777
1629.59614,0.00766
1627.53597,0.00781
1625.47580,0.00790
1623.41563,0.00782
1621.35546,0.00760
1619.29528,0.00763
1617.23511,0.00796
1615.17494,0.00797
1613.11477,0.00769
1611.05460,0.00762
1608.99442,0.00781
1606.93425,0.00791
1604.87408,0.00787
1602.81391,0.00781
1600.75373,0.00770
1598.69356,0.00758
1596.63339,0.00749
1594.57322,0.00740
1592.51305,0.00723
1590.45287,0.00704
1588.39270,0.00692
1586.33253,0.00683
1584.27236,0.00661
1582.21219,0.00627
1580.15201,0.00605
1578.09184,0.00611
1576.03167,0.00609
1573.97150,0.00562
1571.91133,0.00525
1569.85115,0.00525
1567.79098,0.00503
1565.73081,0.00445
1563.67064,0.00404
1561.61046,0.00432
1559.55029,0.00484
1557.49012,0.00431
1555.42995,0.00334
1553.36978,0.00276
1551.30960,0.00261
1549.24943,0.00256
1547.18926,0.00242
1545.12909,0.00236
1543.06892,0.00270
1541.00874,0.00350
1538.94857,0.00368
1536.88840,0.00288
1534.82823,0.00230
1532.76805,0.00239
1530.70788,0.00244
1528.64771,0.00223
1526.58754,0.00192
1524.52737,0.00172
1522.46719,0.00170
1520.40702,0.00156
1518.34685,0.00139
1516.28668,0.00138
1514.22651,0.00129
1512.16633,0.00104
1510.10616,0.00098
1508.04599,0.00151
1505.98582,0.00235
1503.92565,0.00245
1501.86547,0.00205
1499.80530,0.00207
1497.74513,0.00247
1495.68496,0.00272
1493.62478,0.00279
1491.56461,0.00290
1489.50444,0.00302
1487.44427,0.00313
1485.38410,0.00325
1483.32392,0.00336
1481.26375,0.00341
1479.20358,0.00333
1477.14341,0.00325
1475.08324,0.00336
1473.02306,0.00364
1470.96289,0.00381
1468.90272,0.00373
1466.84255,0.00374
1464.78238,0.00386
1462.72220,0.00385
1460.66203,0.00394
1458.60186,0.00419
1456.54169,0.00423
1454.48151,0.00416
1452.42134,0.00412
1450.36117,0.00432
1448.30100,0.00471
1446.24083,0.00508
1444.18065,0.00530
1442.12048,0.00536
1440.06031,0.00528
1438.00014,0.00517
1435.93997,0.00512
1433.87979,0.00520
1431.81962,0.00531
1429.75945,0.00543
1427.69928,0.00550
1425.63910,0.00558
1423.57893,0.00565
1421.51876,0.00554
1419.45859,0.00540
1417.39842,0.00551
1415.33824,0.00586
1413.27807,0.00622
1411.21790,0.00650
1409.15773,0.00674
1407.09756,0.00696
1405.03738,0.00710
1402.97721,0.00713
1400.91704,0.00698
1398.85687,0.00660
1396.79670,0.00632
1394.73652,0.00647
1392.67635,0.00673
1390.61618,0.00681
1388.55601,0.00690
1386.49583,0.00719
1384.43566,0.00750
1382.37549,0.00762
1380.31532,0.00755
1378.25515,0.00753
1376.19497,0.00761
1374.13480,0.00761
1372.07463,0.00759
1370.01446,0.00775
1367.95429,0.00795
1365.89411,0.00796
1363.83394,0.00778
1361.77377,0.00763
1359.71360,0.00768
1357.65343,0.00781
1355.59325,0.00791
1353.53308,0.00799
1351.47291,0.00798
1349.41274,0.00782
1347.35256,0.00758
1345.29239,0.00735
1343.23222,0.00702
1341.17205,0.00648
1339.11188,0.00594
1337.05170,0.00586
1334.99153,0.00618
1332.93136,0.00645
1330.87119,0.00645
1328.81102,0.00636
1326.75084,0.00632
1324.69067,0.00629
1322.63050,0.00625
1320.57033,0.00618
1318.51015,0.00599
1316.44998,0.00581
1314.38981,0.00581
1312.32964,0.00596
1310.26947,0.00612
1308.20929,0.00624
1306.14912,0.00629
1304.08895,0.00629
1302.02878,0.00619
1299.96861,0.00601
1297.90843,0.00590
1295.84826,0.00596
1293.78809,0.00606
1291.72792,0.00599
1289.66775,0.00576
1287.60757,0.00558
1285.54740,0.00558
1283.48723,0.00569
1281.42706,0.00577
1279.36688,0.00575
1277.30671,0.00569
1275.24654,0.00567
1273.18637,0.00567
1271.12620,0.00558
1269.06602,0.00546
1267.00585,0.00546
1264.94568,0.00556
1262.88551,0.00567
1260.82534,0.00572
1258.76516,0.00575
1256.70499,0.00578
1254.64482,0.00586
1252.58465,0.00596
1250.52447,0.00595
1248.46430,0.00583
1246.40413,0.00566
1244.34396,0.00558
1242.28379,0.00569
1240.22361,0.00584
1238.16344,0.00587
1236.10327,0.00583
1234.04310,0.00580
1231.98293,0.00576
1229.92275,0.00563
1227.86258,0.00552
1225.80241,0.00549
1223.74224,0.00547
1221.68207,0.00542
1219.62189,0.00539
1217.56172,0.00544
1215.50155,0.00550
1213.44138,0.00542
1211.38120,0.00533
1209.32103,0.00544
1207.26086,0.00562
1205.20069,0.00573
1203.14052,0.00584
1201.08034,0.00604
1199.02017,0.00626
1196.96000,0.00659
1194.89983,0.00700
1192.83966,0.00749
1190.77948,0.00808
1188.71931,0.00869
1186.65914,0.00936
1184.59897,0.01018
1182.53880,0.01100
1180.47862,0.01173
1178.41845,0.01243
1176.35828,0.01322
1174.29811,0.01408
1172.23793,0.01478
1170.17776,0.01532
1168.11759,0.01587
1166.05742,0.01644
1163.99725,0.01707
1161.93707,0.01773
1159.87690,0.01824
1157.81673,0.01863
1155.75656,0.01904
1153.69639,0.01938
1151.63621,0.01971
1149.57604,0.02009
1147.51587,0.02032
1145.45570,0.02029
1143.39552,0.02020
1141.33535,0.02013
1139.27518,0.02000
1137.21501,0.01977
1135.15484,0.01955
1133.09466,0.01948
1131.03449,0.01947
1128.97432,0.01944
1126.91415,0.01946
1124.85398,0.01955
1122.79380,0.01961
1120.73363,0.01972
1118.67346,0.02003
1116.61329,0.02041
1114.55312,0.02073
1112.49294,0.02119
1110.43277,0.02175
1108.37260,0.02212
1106.31243,0.02244
1104.25225,0.02288
1102.19208,0.02342
1100.13191,0.02392
1098.07174,0.02434
1096.01157,0.02474
1093.95139,0.02520
1091.89122,0.02572
1089.83105,0.02624
1087.77088,0.02677
1085.71071,0.02734
1083.65053,0.02783
1081.59036,0.02825
1079.53019,0.02870
1077.47002,0.02908
1075.40985,0.02931
1073.34967,0.02943
1071.28950,0.02946
1069.22933,0.02939
1067.16916,0.02923
1065.10898,0.02902
1063.04881,0.02881
1060.98864,0.02851
1058.92847,0.02808
1056.86830,0.02751
1054.80812,0.02695
1052.74795,0.02646
1050.68778,0.02593
1048.62761,0.02521
1046.56744,0.02428
1044.50726,0.02342
1042.44709,0.02281
1040.38692,0.02220
1038.32675,0.02140
1036.26657,0.02053
1034.20640,0.01968
1032.14623,0.01902
1030.08606,0.01856
1028.02589,0.01804
1025.96571,0.01740
1023.90554,0.01687
1021.84537,0.01648
1019.78520,0.01598
1017.72503,0.01540
1015.66485,0.01511
1013.60468,0.01520
1011.54451,0.01541
1009.48434,0.01550
1007.42417,0.01542
1005.36399,0.01539
1003.30382,0.01559
1001.24365,0.01593
999.18348,0.01630
997.12330,0.01664
995.06313,0.01696
993.00296,0.01722
990.94279,0.01738
988.88262,0.01751
986.82244,0.01767
984.76227,0.01789
982.70210,0.01809
980.64193,0.01821
978.58176,0.01830
976.52158,0.01834
974.46141,0.01832
972.40124,0.01832
970.34107,0.01831
968.28089,0.01827
966.22072,0.01832
964.16055,0.01841
962.10038,0.01841
960.04021,0.01840
957.98003,0.01842
955.91986,0.01842
953.85969,0.01847
951.79952,0.01863
949.73935,0.01870
947.67917,0.01856
945.61900,0.01836
943.55883,0.01820
941.49866,0.01796
939.43849,0.01763
937.37831,0.01739
935.31814,0.01709
933.25797,0.01639
931.19780,0.01555
929.13762,0.01498
927.07745,0.01467
925.01728,0.01430
922.95711,0.01358
920.89694,0.01286
918.83676,0.01251
916.77659,0.01230
914.71642,0.01193
912.65625,0.01152
910.59608,0.01122
908.53590,0.01091
906.47573,0.01059
904.41556,0.01031
902.35539,0.01007
900.29522,0.00994
898.23504,0.01004
896.17487,0.01027
894.11470,0.01045
892.05453,0.01060
889.99435,0.01076
887.93418,0.01106
885.87401,0.01161
883.81384,0.01219
881.75367,0.01269
879.69349,0.01317
877.63332,0.01364
875.57315,0.01434
873.51298,0.01535
871.45281,0.01642
869.39263,0.01726
867.33246,0.01787
865.27229,0.01861
863.21212,0.01946
861.15194,0.02015
859.09177,0.02066
857.03160,0.02083
854.97143,0.02056
852.91126,0.02014
850.85108,0.01975
848.79091,0.01938
846.73074,0.01892
844.67057,0.01822
842.61040,0.01739
840.55022,0.01662
838.49005,0.01595
836.42988,0.01531
834.36971,0.01475
832.30954,0.01442
830.24936,0.01418
828.18919,0.01373
826.12902,0.01312
824.06885,0.01264
822.00867,0.01227
819.94850,0.01180
817.88833,0.01134
815.82816,0.01094
813.76799,0.01044
811.70781,0.01004
809.64764,0.00995
807.58747,0.00995
805.52730,0.00986
803.46713,0.00968
801.40695,0.00935
799.34678,0.00899
797.28661,0.00879
795.22644,0.00861
793.16627,0.00841
791.10609,0.00828
789.04592,0.00829
786.98575,0.00834
784.92558,0.00838
782.86540,0.00838
780.80523,0.00811
778.74506,0.00778
776.68489,0.00772
774.62472,0.00779
772.56454,0.00784
770.50437,0.00781
768.44420,0.00757
766.38403,0.00727
764.32386,0.00706
762.26368,0.00687
760.20351,0.00683
758.14334,0.00696
756.08317,0.00683
754.02299,0.00640
751.96282,0.00622
749.90265,0.00632
747.84248,0.00629
745.78231,0.00618
743.72213,0.00627
741.66196,0.00632
739.60179,0.00633
737.54162,0.00633
735.48145,0.00604
733.42127,0.00581
731.36110,0.00586
729.30093,0.00577
727.24076,0.00560
725.18059,0.00555
723.12041,0.00578
721.06024,0.00558
719.00007,0.00634
716.93990,0.00650
714.87972,0.00622
712.81955,0.00604
710.75938,0.00586
708.69921,0.00558
706.63904,0.00532
704.57886,0.00533
702.51869,0.00547
700.45852,0.00536
698.39835,0.00489
696.33818,0.00458
694.27800,0.00489
692.21783,0.00549
690.15766,0.00585
688.09749,0.00616
686.03731,0.00669
683.97714,0.00711
681.91697,0.00727
679.85680,0.00737
677.79663,0.00728
675.73645,0.00667
673.67628,0.00706
671.61611,0.01058
669.55594,0.00869
667.49577,0.00000
665.43559,0.01092
663.37542,0.00866
661.31525,0.00548
659.25508,0.00524
657.19491,0.00564
655.13473,0.00556
653.07456,0.00509
651.01439,0.00496
648.95422,0.00517
646.89404,0.00544
644.83387,0.00478
642.77370,0.00438
640.71353,0.00480
638.65336,0.00472
636.59318,0.00349
634.53301,0.00255
632.47284,0.00282
630.41267,0.00331
628.35250,0.00318
626.29232,0.00277
624.23215,0.00217
622.17198,0.00230
620.11181,0.00303
618.05164,0.00275
615.99146,0.00175
613.93129,0.00099
611.87112,0.00080
609.81095,0.00079
607.75077,0.00034
605.69060,0.00038
603.63043,0.00111
601.57026,0.00079
599.51009,0.00000
