3996.73391,0.00000
3994.67374,0.00050
3992.61357,0.00094
3990.55339,0.00110
3988.49322,0.00091
3986.43305,0.00060
3984.37288,0.00032
3982.31271,0.00012
3980.25253,0.00007
3978.19236,0.00007
3976.13219,0.00007
3974.07202,0.00011
3972.01184,0.00014
3969.95167,0.00016
3967.89150,0.00013
3965.83133,0.00005
3963.77116,0.00004
3961.71098,0.00003
3959.65081,0.00000
3957.59064,0.00008
3955.53047,0.00031
3953.47030,0.00060
3951.41012,0.00068
3949.34995,0.00049
3947.28978,0.00036
3945.22961,0.00064
3943.16943,0.00105
3941.10926,0.00110
3939.04909,0.00086
3936.98892,0.00059
3934.92875,0.00034
3932.86857,0.00015
3930.80840,0.00022
3928.74823,0.00050
3926.68806,0.00068
3924.62789,0.00062
3922.56771,0.00058
3920.50754,0.00066
3918.44737,0.00059
3916.38720,0.00044
3914.32703,0.00052
3912.26685,0.00069
3910.20668,0.00076
3908.14651,0.00084
3906.08634,0.00087
3904.02616,0.00062
3901.96599,0.00039
3899.90582,0.00043
3897.84565,0.00042
3895.78548,0.00045
3893.72530,0.00082
3891.66513,0.00124
3889.60496,0.00131
3887.54479,0.00108
3885.48462,0.00079
3883.42444,0.00071
3881.36427,0.00081
3879.30410,0.00080
3877.24393,0.00075
3875.18376,0.00084
3873.12358,0.00106
3871.06341,0.00130
3869.00324,0.00134
3866.94307,0.00130
3864.88289,0.00118
3862.82272,0.00080
3860.76255,0.00052
3858.70238,0.00064
3856.64221,0.00096
3854.58203,0.00112
3852.52186,0.00086
3850.46169,0.00058
3848.40152,0.00064
3846.34135,0.00098
3844.28117,0.00116
3842.22100,0.00092
3840.16083,0.00056
3838.10066,0.00025
3836.04048,0.00002
3833.98031,0.00007
3831.92014,0.00040
3829.85997,0.00071
3827.79980,0.00078
3825.73962,0.00084
3823.67945,0.00110
3821.61928,0.00128
3819.55911,0.00116
3817.49894,0.00104
3815.43876,0.00093
3813.37859,0.00081
3811.31842,0.00081
3809.25825,0.00108
3807.19808,0.00136
3805.13790,0.00137
3803.07773,0.00130
3801.01756,0.00124
3798.95739,0.00115
3796.89721,0.00107
3794.83704,0.00109
3792.77687,0.00119
3790.71670,0.00126
3788.65653,0.00130
3786.59635,0.00144
3784.53618,0.00175
3782.47601,0.00206
3780.41584,0.00214
3778.35567,0.00190
3776.29549,0.00159
3774.23532,0.00150
3772.17515,0.00168
3770.11498,0.00183
3768.05481,0.00169
3765.99463,0.00138
3763.93446,0.00114
3761.87429,0.00102
3759.81412,0.00095
3757.75394,0.00096
3755.69377,0.00121
3753.63360,0.00165
3751.57343,0.00187
3749.51326,0.00140
3747.45308,0.00087
3745.39291,0.00066
3743.33274,0.00060
3741.27257,0.00073
3739.21240,0.00116
3737.15222,0.00157
3735.09205,0.00151
3733.03188,0.00120
3730.97171,0.00127
3728.91153,0.00150
3726.85136,0.00158
3724.79119,0.00144
3722.73102,0.00118
3720.67085,0.00135
3718.61067,0.00165
3716.55050,0.00185
3714.49033,0.00182
3712.43016,0.00145
3710.36999,0.00135
3708.30981,0.00147
3706.24964,0.00181
3704.18947,0.00216
3702.12930,0.00224
3700.06913,0.00208
3698.00895,0.00200
3695.94878,0.00216
3693.88861,0.00235
3691.82844,0.00242
3689.76826,0.00191
3687.70809,0.00127
3685.64792,0.00113
3683.58775,0.00146
3681.52758,0.00190
3679.46740,0.00249
3677.40723,0.00311
3675.34706,0.00318
3673.28689,0.00262
3671.22672,0.00231
3669.16654,0.00246
3667.10637,0.00278
3665.04620,0.00302
3662.98603,0.00306
3660.92586,0.00285
3658.86568,0.00254
3656.80551,0.00248
3654.74534,0.00299
3652.68517,0.00404
3650.62499,0.00494
3648.56482,0.00484
3646.50465,0.00426
3644.44448,0.00389
3642.38431,0.00384
3640.32413,0.00397
3638.26396,0.00418
3636.20379,0.00453
3634.14362,0.00503
3632.08345,0.00571
3630.02327,0.00624
3627.96310,0.00632
3625.90293,0.00620
3623.84276,0.00650
3621.78258,0.00685
3619.72241,0.00674
3617.66224,0.00634
3615.60207,0.00615
3613.54190,0.00639
3611.48172,0.00672
3609.42155,0.00720
3607.36138,0.00782
3605.30121,0.00817
3603.24104,0.00839
3601.18086,0.00869
3599.12069,0.00929
3597.06052,0.00983
3595.00035,0.01016
3592.94018,0.01030
3590.88000,0.01061
3588.81983,0.01078
3586.75966,0.01069
3584.69949,0.01060
3582.63931,0.01082
3580.57914,0.01130
3578.51897,0.01165
3576.45880,0.01176
3574.39863,0.01184
3572.33845,0.01210
3570.27828,0.01254
3568.21811,0.01297
3566.15794,0.01319
3564.09777,0.01328
3562.03759,0.01348
3559.97742,0.01383
3557.91725,0.01411
3555.85708,0.01425
3553.79690,0.01443
3551.73673,0.01469
3549.67656,0.01480
3547.61639,0.01479
3545.55622,0.01502
3543.49604,0.01548
3541.43587,0.01588
3539.37570,0.01613
3537.31553,0.01633
3535.25536,0.01657
3533.19518,0.01687
3531.13501,0.01716
3529.07484,0.01734
3527.01467,0.01751
3524.95450,0.01780
3522.89432,0.01801
3520.83415,0.01797
3518.77398,0.01801
3516.71381,0.01827
3514.65363,0.01861
3512.59346,0.01892
3510.53329,0.01923
3508.47312,0.01952
3506.41295,0.01976
3504.35277,0.01996
3502.29260,0.02016
3500.23243,0.02041
3498.17226,0.02082
3496.11209,0.02122
3494.05191,0.02136
3491.99174,0.02136
3489.93157,0.02142
3487.87140,0.02156
3485.81123,0.02189
3483.75105,0.02239
3481.69088,0.02276
3479.63071,0.02278
3477.57054,0.02267
3475.51036,0.02275
3473.45019,0.02309
3471.39002,0.02355
3469.32985,0.02401
3467.26968,0.02439
3465.20950,0.02448
3463.14933,0.02437
3461.08916,0.02436
3459.02899,0.02440
3456.96882,0.02451
3454.90864,0.02471
3452.84847,0.02491
3450.78830,0.02518
3448.72813,0.02560
3446.66795,0.02595
3444.60778,0.02609
3442.54761,0.02626
3440.48744,0.02649
3438.42727,0.02668
3436.36709,0.02697
3434.30692,0.02718
3432.24675,0.02720
3430.18658,0.02726
3428.12641,0.02725
3426.06623,0.02721
3424.00606,0.02742
3421.94589,0.02777
3419.88572,0.02799
3417.82555,0.02801
3415.76537,0.02808
3413.70520,0.02839
3411.64503,0.02874
3409.58486,0.02879
3407.52468,0.02858
3405.46451,0.02864
3403.40434,0.02907
3401.34417,0.02933
3399.28400,0.02916
3397.22382,0.02920
3395.16365,0.02937
3393.10348,0.02962
3391.04331,0.02979
3388.98314,0.02994
3386.92296,0.03022
3384.86279,0.03030
3382.80262,0.03025
3380.74245,0.03044
3378.68228,0.03069
3376.62210,0.03071
3374.56193,0.03064
3372.50176,0.03060
3370.44159,0.03056
3368.38141,0.03063
3366.32124,0.03090
3364.26107,0.03110
3362.20090,0.03113
3360.14073,0.03119
3358.08055,0.03133
3356.02038,0.03153
3353.96021,0.03178
3351.90004,0.03191
3349.83987,0.03185
3347.77969,0.03184
3345.71952,0.03204
3343.65935,0.03230
3341.59918,0.03232
3339.53900,0.03215
3337.47883,0.03213
3335.41866,0.03226
3333.35849,0.03229
3331.29832,0.03225
3329.23814,0.03239
3327.17797,0.03271
3325.11780,0.03292
3323.05763,0.03288
3320.99746,0.03279
3318.93728,0.03284
3316.87711,0.03279
3314.81694,0.03252
3312.75677,0.03237
3310.69660,0.03251
3308.63642,0.03276
3306.57625,0.03304
3304.51608,0.03327
3302.45591,0.03340
3300.39573,0.03337
3298.33556,0.03332
3296.27539,0.03343
3294.21522,0.03357
3292.15505,0.03359
3290.09487,0.03363
3288.03470,0.03387
3285.97453,0.03396
3283.91436,0.03371
3281.85419,0.03346
3279.79401,0.03344
3277.73384,0.03347
3275.67367,0.03354
3273.61350,0.03376
3271.55333,0.03396
3269.49315,0.03397
3267.43298,0.03395
3265.37281,0.03401
3263.31264,0.03398
3261.25246,0.03370
3259.19229,0.03339
3257.13212,0.03342
3255.07195,0.03374
3253.01178,0.03404
3250.95160,0.03413
3248.89143,0.03404
3246.83126,0.03392
3244.77109,0.03392
3242.71092,0.03400
3240.65074,0.03401
3238.59057,0.03396
3236.53040,0.03395
3234.47023,0.03402
3232.41005,0.03398
3230.34988,0.03376
3228.28971,0.03356
3226.22954,0.03352
3224.16937,0.03357
3222.10919,0.03368
3220.04902,0.03379
3217.98885,0.03375
3215.92868,0.03362
3213.86851,0.03356
3211.80833,0.03354
3209.74816,0.03351
3207.68799,0.03349
3205.62782,0.03349
3203.56765,0.03344
3201.50747,0.03324
3199.44730,0.03296
3197.38713,0.03294
3195.32696,0.03319
3193.26678,0.03342
3191.20661,0.03353
3189.14644,0.03359
3187.08627,0.03353
3185.02610,0.03335
3182.96592,0.03317
3180.90575,0.03307
3178.84558,0.03301
3176.78541,0.03291
3174.72524,0.03283
3172.66506,0.03279
3170.60489,0.03275
3168.54472,0.03272
3166.48455,0.03265
3164.42437,0.03242
3162.36420,0.03218
3160.30403,0.03207
3158.24386,0.03192
3156.18369,0.03181
3154.12351,0.03196
3152.06334,0.03207
3150.00317,0.03196
3147.94300,0.03180
3145.88283,0.03166
3143.82265,0.03162
3141.76248,0.03165
3139.70231,0.03159
3137.64214,0.03144
3135.58197,0.03138
3133.52179,0.03145
3131.46162,0.03142
3129.40145,0.03115
3127.34128,0.03088
3125.28110,0.03074
3123.22093,0.03057
3121.16076,0.03037
3119.10059,0.03031
3117.04042,0.03034
3114.98024,0.03026
3112.92007,0.03007
3110.85990,0.02995
3108.79973,0.02991
3106.73956,0.02987
3104.67938,0.02978
3102.61921,0.02965
3100.55904,0.02951
3098.49887,0.02934
3096.43870,0.02922
3094.37852,0.02924
3092.31835,0.02928
3090.25818,0.02911
3088.19801,0.02876
3086.13783,0.02848
3084.07766,0.02844
3082.01749,0.02857
3079.95732,0.02864
3077.89715,0.02857
3075.83697,0.02842
3073.77680,0.02822
3071.71663,0.02799
3069.65646,0.02780
3067.59629,0.02763
3065.53611,0.02753
3063.47594,0.02752
3061.41577,0.02746
3059.35560,0.02739
3057.29542,0.02738
3055.23525,0.02733
3053.17508,0.02721
3051.11491,0.02706
3049.05474,0.02687
3046.99456,0.02668
3044.93439,0.02654
3042.87422,0.02637
3040.81405,0.02622
3038.75388,0.02612
3036.69370,0.02592
3034.63353,0.02559
3032.57336,0.02536
3030.51319,0.02532
3028.45302,0.02534
3026.39284,0.02533
3024.33267,0.02518
3022.27250,0.02497
3020.21233,0.02480
3018.15215,0.02465
3016.09198,0.02451
3014.03181,0.02439
3011.97164,0.02428
3009.91147,0.02417
3007.85129,0.02396
3005.79112,0.02379
3003.73095,0.02370
3001.67078,0.02353
2999.61061,0.02346
2997.55043,0.02346
2995.49026,0.02327
2993.43009,0.02299
2991.36992,0.02294
2989.30975,0.02302
2987.24957,0.02315
2985.18940,0.02328
2983.12923,0.02334
2981.06906,0.02334
2979.00888,0.02320
2976.94871,0.02298
2974.88854,0.02288
2972.82837,0.02285
2970.76820,0.02281
2968.70802,0.02283
2966.64785,0.02287
2964.58768,0.02287
2962.52751,0.02279
2960.46734,0.02267
2958.40716,0.02262
2956.34699,0.02271
2954.28682,0.02293
2952.22665,0.02304
2950.16647,0.02292
2948.10630,0.02278
2946.04613,0.02273
2943.98596,0.02271
2941.92579,0.02278
2939.86561,0.02285
2937.80544,0.02284
2935.74527,0.02276
2933.68510,0.02259
2931.62493,0.02241
2929.56475,0.02228
2927.50458,0.02221
2925.44441,0.02209
2923.38424,0.02198
2921.32407,0.02192
2919.26389,0.02184
2917.20372,0.02175
2915.14355,0.02159
2913.08338,0.02132
2911.02320,0.02104
2908.96303,0.02091
2906.90286,0.02088
2904.84269,0.02085
2902.78252,0.02077
2900.72234,0.02072
2898.66217,0.02068
2896.60200,0.02050
2894.54183,0.02030
2892.48166,0.02018
2890.42148,0.02011
2888.36131,0.02012
2886.30114,0.02021
2884.24097,0.02026
2882.18080,0.02010
2880.12062,0.01977
2878.06045,0.01960
2876.00028,0.01968
2873.94011,0.01971
2871.87993,0.01956
2869.81976,0.01941
2867.75959,0.01922
2865.69942,0.01893
2863.63925,0.01875
2861.57907,0.01879
2859.51890,0.01883
2857.45873,0.01860
2855.39856,0.01823
2853.33839,0.01801
2851.27821,0.01791
2849.21804,0.01784
2847.15787,0.01781
2845.09770,0.01776
2843.03752,0.01762
2840.97735,0.01739
2838.91718,0.01721
2836.85701,0.01722
2834.79684,0.01724
2832.73666,0.01703
2830.67649,0.01670
2828.61632,0.01650
2826.55615,0.01651
2824.49598,0.01656
2822.43580,0.01652
2820.37563,0.01641
2818.31546,0.01627
2816.25529,0.01610
2814.19512,0.01597
2812.13494,0.01596
2810.07477,0.01597
2808.01460,0.01593
2805.95443,0.01585
2803.89425,0.01568
2801.83408,0.01548
2799.77391,0.01526
2797.71374,0.01506
2795.65357,0.01502
2793.59339,0.01508
2791.53322,0.01512
2789.47305,0.01508
2787.41288,0.01489
2785.35271,0.01461
2783.29253,0.01439
2781.23236,0.01427
2779.17219,0.01425
2777.11202,0.01426
2775.05184,0.01416
2772.99167,0.01397
2770.93150,0.01384
2768.87133,0.01380
2766.81116,0.01388
2764.75098,0.01394
2762.69081,0.01376
2760.63064,0.01356
2758.57047,0.01358
2756.51030,0.01363
2754.45012,0.01366
2752.38995,0.01363
2750.32978,0.01351
2748.26961,0.01343
2746.20944,0.01338
2744.14926,0.01327
2742.08909,0.01311
2740.02892,0.01300
2737.96875,0.01294
2735.90857,0.01290
2733.84840,0.01281
2731.78823,0.01269
2729.72806,0.01263
2727.66789,0.01260
2725.60771,0.01256
2723.54754,0.01245
2721.48737,0.01227
2719.42720,0.01223
2717.36703,0.01224
2715.30685,0.01211
2713.24668,0.01195
2711.18651,0.01188
2709.12634,0.01188
2707.06617,0.01195
2705.00599,0.01196
2702.94582,0.01181
2700.88565,0.01162
2698.82548,0.01144
2696.76530,0.01129
2694.70513,0.01127
2692.64496,0.01130
2690.58479,0.01127
2688.52462,0.01122
2686.46444,0.01113
2684.40427,0.01102
2682.34410,0.01104
2680.28393,0.01111
2678.22376,0.01110
2676.16358,0.01102
2674.10341,0.01089
2672.04324,0.01069
2669.98307,0.01059
2667.92289,0.01073
2665.86272,0.01086
2663.80255,0.01074
2661.74238,0.01054
2659.68221,0.01043
2657.62203,0.01048
2655.56186,0.01065
2653.50169,0.01067
2651.44152,0.01040
2649.38135,0.01012
2647.32117,0.01001
2645.26100,0.01007
2643.20083,0.01011
2641.14066,0.01005
2639.08049,0.00996
2637.02031,0.00983
2634.96014,0.00962
2632.89997,0.00948
2630.83980,0.00953
2628.77962,0.00959
2626.71945,0.00951
2624.65928,0.00942
2622.59911,0.00924
2620.53894,0.00881
2618.47876,0.00856
2616.41859,0.00878
2614.35842,0.00906
2612.29825,0.00904
2610.23808,0.00890
2608.17790,0.00884
2606.11773,0.00887
2604.05756,0.00879
2601.99739,0.00856
2599.93722,0.00841
2597.87704,0.00848
2595.81687,0.00871
2593.75670,0.00875
2591.69653,0.00845
2589.63635,0.00816
2587.57618,0.00808
2585.51601,0.00800
2583.45584,0.00795
2581.39567,0.00813
2579.33549,0.00842
2577.27532,0.00861
2575.21515,0.00864
2573.15498,0.00841
2571.09481,0.00796
2569.03463,0.00769
2566.97446,0.00768
2564.91429,0.00767
2562.85412,0.00778
2560.79394,0.00800
2558.73377,0.00818
2556.67360,0.00829
2554.61343,0.00823
2552.55326,0.00804
2550.49308,0.00796
2548.43291,0.00785
2546.37274,0.00775
2544.31257,0.00773
2542.25240,0.00753
2540.19222,0.00737
2538.13205,0.00752
2536.07188,0.00773
2534.01171,0.00776
2531.95154,0.00768
2529.89136,0.00754
2527.83119,0.00744
2525.77102,0.00764
2523.71085,0.00797
2521.65067,0.00807
2519.59050,0.00800
2517.53033,0.00795
2515.47016,0.00810
2513.40999,0.00836
2511.34981,0.00832
2509.28964,0.00808
2507.22947,0.00808
2505.16930,0.00817
2503.10913,0.00795
2501.04895,0.00763
2498.98878,0.00757
2496.92861,0.00778
2494.86844,0.00795
2492.80827,0.00795
2490.74809,0.00800
2488.68792,0.00807
2486.62775,0.00810
2484.56758,0.00821
2482.50740,0.00835
2480.44723,0.00838
2478.38706,0.00822
2476.32689,0.00805
2474.26672,0.00809
2472.20654,0.00828
2470.14637,0.00859
2468.08620,0.00889
2466.02603,0.00894
2463.96586,0.00890
2461.90568,0.00890
2459.84551,0.00876
2457.78534,0.00851
2455.72517,0.00834
2453.66499,0.00831
2451.60482,0.00832
2449.54465,0.00811
2447.48448,0.00777
2445.42431,0.00775
2443.36413,0.00813
2441.30396,0.00849
2439.24379,0.00847
2437.18362,0.00831
2435.12345,0.00838
2433.06327,0.00848
2431.00310,0.00836
2428.94293,0.00816
2426.88276,0.00807
2424.82259,0.00815
2422.76241,0.00818
2420.70224,0.00812
2418.64207,0.00816
2416.58190,0.00831
2414.52172,0.00837
2412.46155,0.00830
2410.40138,0.00830
2408.34121,0.00831
2406.28104,0.00817
2404.22086,0.00812
2402.16069,0.00826
2400.10052,0.00841
2398.04035,0.00799
2395.98018,0.00787
2393.92000,0.00800
2391.85983,0.00833
2389.79966,0.00881
2387.73949,0.00934
2385.67931,0.00994
2383.61914,0.01024
2381.55897,0.00988
2379.49880,0.00923
2377.43863,0.00894
2375.37845,0.00837
2373.31828,0.00872
2371.25811,0.00962
2369.19794,0.00965
2367.13777,0.01037
2365.07759,0.01247
2363.01742,0.01216
2360.95725,0.01429
2358.89708,0.01377
2356.83691,0.01262
2354.77673,0.01143
2352.71656,0.01123
2350.65639,0.01654
2348.59622,0.01979
2346.53604,0.01009
2344.47587,0.00845
2342.41570,0.01120
2340.35553,0.01347
2338.29536,0.01490
2336.23518,0.01504
2334.17501,0.01474
2332.11484,0.01337
2330.05467,0.01281
2327.99450,0.01228
2325.93432,0.01395
2323.87415,0.01286
2321.81398,0.01159
2319.75381,0.00988
2317.69364,0.01095
2315.63346,0.01095
2313.57329,0.00974
2311.51312,0.00945
2309.45295,0.00975
2307.39277,0.00987
2305.33260,0.00950
2303.27243,0.00914
2301.21226,0.00867
2299.15209,0.00885
2297.09191,0.00920
2295.03174,0.00936
2292.97157,0.00964
2290.91140,0.00976
2288.85123,0.00951
2286.79105,0.00900
2284.73088,0.00845
2282.67071,0.00798
2280.61054,0.00756
2278.55036,0.00732
2276.49019,0.00728
2274.43002,0.00723
2272.36985,0.00693
2270.30968,0.00689
2268.24950,0.00709
2266.18933,0.00701
2264.12916,0.00695
2262.06899,0.00733
2260.00882,0.00732
2257.94864,0.00677
2255.88847,0.00635
2253.82830,0.00634
2251.76813,0.00634
2249.70796,0.00621
2247.64778,0.00654
2245.58761,0.00663
2243.52744,0.00648
2241.46727,0.00661
2239.40709,0.00669
2237.34692,0.00656
2235.28675,0.00658
2233.22658,0.00641
2231.16641,0.00600
2229.10623,0.00612
2227.04606,0.00659
2224.98589,0.00663
2222.92572,0.00640
2220.86555,0.00618
2218.80537,0.00589
2216.74520,0.00581
2214.68503,0.00621
2212.62486,0.00634
2210.56469,0.00564
2208.50451,0.00482
2206.44434,0.00455
2204.38417,0.00481
2202.32400,0.00549
2200.26382,0.00597
2198.20365,0.00565
2196.14348,0.00469
2194.08331,0.00421
2192.02314,0.00473
2189.96296,0.00517
2187.90279,0.00523
2185.84262,0.00543
2183.78245,0.00540
2181.72228,0.00510
2179.66210,0.00493
2177.60193,0.00412
2175.54176,0.00296
2173.48159,0.00312
2171.42141,0.00444
2169.36124,0.00562
2167.30107,0.00579
2165.24090,0.00525
2163.18073,0.00445
2161.12055,0.00242
2159.06038,0.00022
2157.00021,0.00054
2154.94004,0.00201
2152.87987,0.00233
2150.81969,0.00174
2148.75952,0.00174
2146.69935,0.00278
2144.63918,0.00347
2142.57901,0.00319
2140.51883,0.00275
2138.45866,0.00261
2136.39849,0.00277
2134.33832,0.00312
2132.27814,0.00336
2130.21797,0.00340
2128.15780,0.00327
2126.09763,0.00324
2124.03746,0.00326
2121.97728,0.00315
2119.91711,0.00333
2117.85694,0.00397
2115.79677,0.00450
2113.73660,0.00475
2111.67642,0.00475
2109.61625,0.00441
2107.55608,0.00401
2105.49591,0.00382
2103.43573,0.00386
2101.37556,0.00407
2099.31539,0.00419
2097.25522,0.00359
2095.19505,0.00295
2093.13487,0.00274
2091.07470,0.00266
2089.01453,0.00278
2086.95436,0.00332
2084.89419,0.00381
2082.83401,0.00385
2080.77384,0.00388
2078.71367,0.00417
2076.65350,0.00443
2074.59333,0.00417
2072.53315,0.00340
2070.47298,0.00288
2068.41281,0.00306
2066.35264,0.00354
2064.29246,0.00383
2062.23229,0.00385
2060.17212,0.00382
2058.11195,0.00380
2056.05178,0.00371
2053.99160,0.00367
2051.93143,0.00403
2049.87126,0.00436
2047.81109,0.00409
2045.75092,0.00368
2043.69074,0.00304
2041.63057,0.00191
2039.57040,0.00118
2037.51023,0.00117
2035.45006,0.00155
2033.38988,0.00204
2031.32971,0.00243
2029.26954,0.00284
2027.20937,0.00288
2025.14919,0.00216
2023.08902,0.00128
2021.02885,0.00101
2018.96868,0.00138
2016.90851,0.00160
2014.84833,0.00140
2012.78816,0.00143
2010.72799,0.00156
2008.66782,0.00172
2006.60765,0.00231
2004.54747,0.00297
2002.48730,0.00263
2000.42713,0.00139
1998.36696,0.00068
1996.30678,0.00092
1994.24661,0.00111
1992.18644,0.00101
1990.12627,0.00142
1988.06610,0.00208
1986.00592,0.00243
1983.94575,0.00266
1981.88558,0.00306
1979.82541,0.00348
1977.76524,0.00354
1975.70506,0.00355
1973.64489,0.00340
1971.58472,0.00217
1969.52455,0.00073
1967.46438,0.00062
1965.40420,0.00111
1963.34403,0.00114
1961.28386,0.00090
1959.22369,0.00050
1957.16351,0.00025
1955.10334,0.00067
1953.04317,0.00126
1950.98300,0.00116
1948.92283,0.00066
1946.86265,0.00037
1944.80248,0.00029
1942.74231,0.00046
1940.68214,0.00102
1938.62197,0.00170
1936.56179,0.00201
1934.50162,0.00186
1932.44145,0.00152
1930.38128,0.00123
1928.32111,0.00120
1926.26093,0.00144
1924.20076,0.00154
1922.14059,0.00127
1920.08042,0.00095
1918.02024,0.00086
1915.96007,0.00106
1913.89990,0.00129
1911.83973,0.00122
1909.77956,0.00090
1907.71938,0.00069
1905.65921,0.00073
1903.59904,0.00087
1901.53887,0.00107
1899.47870,0.00139
1897.41852,0.00182
1895.35835,0.00202
1893.29818,0.00184
1891.23801,0.00172
1889.17783,0.00194
1887.11766,0.00217
1885.05749,0.00209
1882.99732,0.00178
1880.93715,0.00157
1878.87697,0.00167
1876.81680,0.00189
1874.75663,0.00200
1872.69646,0.00202
1870.63629,0.00197
1868.57611,0.00177
1866.51594,0.00145
1864.45577,0.00131
1862.39560,0.00146
1860.33543,0.00159
1858.27525,0.00144
1856.21508,0.00130
1854.15491,0.00144
1852.09474,0.00165
1850.03456,0.00171
1847.97439,0.00177
1845.91422,0.00185
1843.85405,0.00181
1841.79388,0.00169
1839.73370,0.00162
1837.67353,0.00164
1835.61336,0.00165
1833.55319,0.00166
1831.49302,0.00179
1829.43284,0.00200
1827.37267,0.00211
1825.31250,0.00213
1823.25233,0.00214
1821.19216,0.00204
1819.13198,0.00176
1817.07181,0.00154
1815.01164,0.00153
1812.95147,0.00159
1810.89129,0.00159
1808.83112,0.00161
1806.77095,0.00168
1804.71078,0.00171
1802.65061,0.00173
1800.59043,0.00180
1798.53026,0.00189
1796.47009,0.00189
1794.40992,0.00181
1792.34975,0.00173
1790.28957,0.00173
1788.22940,0.00185
1786.16923,0.00201
1784.10906,0.00223
1782.04888,0.00245
1779.98871,0.00246
1777.92854,0.00236
1775.86837,0.00244
1773.80820,0.00270
1771.74802,0.00273
1769.68785,0.00240
1767.62768,0.00217
1765.56751,0.00219
1763.50734,0.00239
1761.44716,0.00269
1759.38699,0.00293
1757.32682,0.00314
1755.26665,0.00341
1753.20648,0.00376
1751.14630,0.00417
1749.08613,0.00447
1747.02596,0.00456
1744.96579,0.00462
1742.90561,0.00468
1740.84544,0.00470
1738.78527,0.00472
1736.72510,0.00472
1734.66493,0.00482
1732.60475,0.00499
1730.54458,0.00500
1728.48441,0.00484
1726.42424,0.00476
1724.36407,0.00477
1722.30389,0.00470
1720.24372,0.00473
1718.18355,0.00513
1716.12338,0.00553
1714.06320,0.00549
1712.00303,0.00532
1709.94286,0.00545
1707.88269,0.00581
1705.82252,0.00607
1703.76234,0.00614
1701.70217,0.00631
1699.64200,0.00673
1697.58183,0.00712
1695.52166,0.00751
1693.46148,0.00795
1691.40131,0.00841
1689.34114,0.00895
1687.28097,0.00960
1685.22080,0.01064
1683.16062,0.01188
1681.10045,0.01257
1679.04028,0.01287
1676.98011,0.01338
1674.91993,0.01432
1672.85976,0.01534
1670.79959,0.01621
1668.73942,0.01686
1666.67925,0.01707
1664.61907,0.01717
1662.55890,0.01746
1660.49873,0.01768
1658.43856,0.01771
1656.37839,0.01778
1654.31821,0.01831
1652.25804,0.01901
1650.19787,0.01905
1648.13770,0.01878
1646.07753,0.01876
1644.01735,0.01864
1641.95718,0.01827
1639.89701,0.01789
1637.83684,0.01776
1635.77666,0.01784
1633.71649,0.01767
1631.65632,0.01717
1629.59615,0.01679
1627.53598,0.01671
1625.47580,0.01666
1623.41563,0.01643
1621.35546,0.01596
1619.29529,0.01557
1617.23512,0.01554
1615.17494,0.01555
1613.11477,0.01532
1611.05460,0.01512
1608.99443,0.01510
1606.93425,0.01509
1604.87408,0.01493
1602.81391,0.01462
1600.75374,0.01423
1598.69357,0.01395
1596.63339,0.01380
1594.57322,0.01364
1592.51305,0.01333
1590.45288,0.01296
1588.39271,0.01267
1586.33253,0.01241
1584.27236,0.01207
1582.21219,0.01173
1580.15202,0.01149
1578.09185,0.01140
1576.03167,0.01130
1573.97150,0.01089
1571.91133,0.01042
1569.85116,0.01019
1567.79098,0.01002
1565.73081,0.00972
1563.67064,0.00947
1561.61047,0.00964
1559.55030,0.01016
1557.49012,0.00998
1555.42995,0.00916
1553.36978,0.00861
1551.30961,0.00845
1549.24944,0.00831
1547.18926,0.00803
1545.12909,0.00784
1543.06892,0.00784
1541.00875,0.00793
1538.94858,0.00778
1536.88840,0.00740
1534.82823,0.00714
1532.76806,0.00707
1530.70789,0.00692
1528.64771,0.00671
1526.58754,0.00643
1524.52737,0.00617
1522.46720,0.00600
1520.40703,0.00586
1518.34685,0.00585
1516.28668,0.00583
1514.22651,0.00556
1512.16634,0.00518
1510.10617,0.00496
1508.04599,0.00491
1505.98582,0.00472
1503.92565,0.00436
1501.86548,0.00409
1499.80530,0.00410
1497.74513,0.00424
1495.68496,0.00422
1493.62479,0.00405
1491.56462,0.00401
1489.50444,0.00411
1487.44427,0.00410
1485.38410,0.00387
1483.32393,0.00368
1481.26376,0.00369
1479.20358,0.00378
1477.14341,0.00391
1475.08324,0.00422
1473.02307,0.00460
1470.96290,0.00474
1468.90272,0.00473
1466.84255,0.00492
1464.78238,0.00526
1462.72221,0.00536
1460.66203,0.00537
1458.60186,0.00558
1456.54169,0.00572
1454.48152,0.00556
1452.42135,0.00539
1450.36117,0.00547
1448.30100,0.00563
1446.24083,0.00563
1444.18066,0.00555
1442.12049,0.00552
1440.06031,0.00554
1438.00014,0.00564
1435.93997,0.00578
1433.87980,0.00586
1431.81963,0.00593
1429.75945,0.00609
1427.69928,0.00629
1425.63911,0.00648
1423.57894,0.00666
1421.51876,0.00678
1419.45859,0.00692
1417.39842,0.00711
1415.33825,0.00725
1413.27808,0.00732
1411.21790,0.00731
1409.15773,0.00724
1407.09756,0.00720
1405.03739,0.00711
1402.97722,0.00693
1400.91704,0.00682
1398.85687,0.00677
1396.79670,0.00670
1394.73653,0.00662
1392.67635,0.00643
1390.61618,0.00616
1388.55601,0.00607
1386.49584,0.00614
1384.43567,0.00611
1382.37549,0.00599
1380.31532,0.00593
1378.25515,0.00594
1376.19498,0.00603
1374.13481,0.00607
1372.07463,0.00594
1370.01446,0.00577
1367.95429,0.00564
1365.89412,0.00557
1363.83395,0.00555
1361.77377,0.00554
1359.71360,0.00548
1357.65343,0.00540
1355.59326,0.00533
1353.53308,0.00528
1351.47291,0.00524
1349.41274,0.00517
1347.35257,0.00503
1345.29240,0.00487
1343.23222,0.00474
1341.17205,0.00467
1339.11188,0.00465
1337.05171,0.00466
1334.99154,0.00467
1332.93136,0.00465
1330.87119,0.00465
1328.81102,0.00466
1326.75085,0.00464
1324.69067,0.00458
1322.63050,0.00461
1320.57033,0.00474
1318.51016,0.00483
1316.44999,0.00491
1314.38981,0.00501
1312.32964,0.00503
1310.26947,0.00500
1308.20930,0.00501
1306.14913,0.00507
1304.08895,0.00513
1302.02878,0.00523
1299.96861,0.00537
1297.90844,0.00560
1295.84827,0.00588
1293.78809,0.00601
1291.72792,0.00591
1289.66775,0.00581
1287.60758,0.00577
1285.54740,0.00572
1283.48723,0.00565
1281.42706,0.00563
1279.36689,0.00564
1277.30672,0.00576
1275.24654,0.00601
1273.18637,0.00614
1271.12620,0.00604
1269.06603,0.00586
1267.00586,0.00574
1264.94568,0.00578
1262.88551,0.00598
1260.82534,0.00613
1258.76517,0.00615
1256.70500,0.00614
1254.64482,0.00619
1252.58465,0.00628
1250.52448,0.00631
1248.46431,0.00622
1246.40413,0.00611
1244.34396,0.00605
1242.28379,0.00592
1240.22362,0.00575
1238.16345,0.00561
1236.10327,0.00543
1234.04310,0.00521
1231.98293,0.00502
1229.92276,0.00484
1227.86259,0.00466
1225.80241,0.00449
1223.74224,0.00430
1221.68207,0.00405
1219.62190,0.00381
1217.56172,0.00354
1215.50155,0.00328
1213.44138,0.00311
1211.38121,0.00290
1209.32104,0.00262
1207.26086,0.00237
1205.20069,0.00216
1203.14052,0.00199
1201.08035,0.00185
1199.02018,0.00176
1196.96000,0.00176
1194.89983,0.00184
1192.83966,0.00188
1190.77949,0.00192
1188.71932,0.00202
1186.65914,0.00217
1184.59897,0.00239
1182.53880,0.00268
1180.47863,0.00299
1178.41845,0.00340
1176.35828,0.00394
1174.29811,0.00454
1172.23794,0.00497
1170.17777,0.00526
1168.11759,0.00570
1166.05742,0.00632
1163.99725,0.00701
1161.93708,0.00768
1159.87691,0.00833
1157.81673,0.00906
1155.75656,0.00989
1153.69639,0.01074
1151.63622,0.01161
1149.57605,0.01248
1147.51587,0.01343
1145.45570,0.01443
1143.39553,0.01541
1141.33536,0.01647
1139.27518,0.01762
1137.21501,0.01877
1135.15484,0.01992
1133.09467,0.02112
1131.03450,0.02242
1128.97432,0.02376
1126.91415,0.02512
1124.85398,0.02661
1122.79381,0.02815
1120.73364,0.02954
1118.67346,0.03080
1116.61329,0.03212
1114.55312,0.03348
1112.49295,0.03477
1110.43277,0.03592
1108.37260,0.03706
1106.31243,0.03819
1104.25226,0.03917
1102.19209,0.04014
1100.13191,0.04119
1098.07174,0.04221
1096.01157,0.04307
1093.95140,0.04375
1091.89123,0.04430
1089.83105,0.04494
1087.77088,0.04559
1085.71071,0.04607
1083.65054,0.04661
1081.59037,0.04738
1079.53019,0.04818
1077.47002,0.04881
1075.40985,0.04925
1073.34968,0.04959
1071.28950,0.04988
1069.22933,0.05014
1067.16916,0.05026
1065.10899,0.05012
1063.04882,0.04970
1060.98864,0.04914
1058.92847,0.04843
1056.86830,0.04773
1054.80813,0.04710
1052.74796,0.04630
1050.68778,0.04520
1048.62761,0.04382
1046.56744,0.04226
1044.50727,0.04073
1042.44710,0.03924
1040.38692,0.03768
1038.32675,0.03609
1036.26658,0.03459
1034.20641,0.03314
1032.14623,0.03152
1030.08606,0.02981
1028.02589,0.02838
1025.96572,0.02729
1023.90555,0.02635
1021.84537,0.02544
1019.78520,0.02459
1017.72503,0.02399
1015.66486,0.02355
1013.60469,0.02310
1011.54451,0.02279
1009.48434,0.02278
1007.42417,0.02317
1005.36400,0.02393
1003.30382,0.02481
1001.24365,0.02569
999.18348,0.02659
997.12331,0.02753
995.06314,0.02849
993.00296,0.02941
990.94279,0.03031
988.88262,0.03116
986.82245,0.03183
984.76228,0.03234
982.70210,0.03279
980.64193,0.03295
978.58176,0.03279
976.52159,0.03257
974.46142,0.03219
972.40124,0.03144
970.34107,0.03055
968.28090,0.02976
966.22073,0.02891
964.16055,0.02782
962.10038,0.02668
960.04021,0.02559
957.98004,0.02442
955.91987,0.02324
953.85969,0.02209
951.79952,0.02102
949.73935,0.02011
947.67918,0.01912
945.61901,0.01796
943.55883,0.01686
941.49866,0.01603
939.43849,0.01530
937.37832,0.01455
935.31814,0.01397
933.25797,0.01342
931.19780,0.01272
929.13763,0.01216
927.07746,0.01190
925.01728,0.01166
922.95711,0.01118
920.89694,0.01059
918.83677,0.01018
916.77660,0.01001
914.71642,0.00991
912.65625,0.00979
910.59608,0.00962
908.53591,0.00944
906.47574,0.00948
904.41556,0.00969
902.35539,0.00982
900.29522,0.00992
898.23505,0.01000
896.17487,0.01021
894.11470,0.01074
892.05453,0.01136
889.99436,0.01169
887.93419,0.01199
885.87401,0.01259
883.81384,0.01324
881.75367,0.01376
879.69350,0.01435
877.63333,0.01500
875.57315,0.01557
873.51298,0.01622
871.45281,0.01687
869.39264,0.01723
867.33247,0.01752
865.27229,0.01791
863.21212,0.01817
861.15195,0.01833
859.09178,0.01836
857.03160,0.01814
854.97143,0.01793
852.91126,0.01804
850.85109,0.01810
848.79092,0.01788
846.73074,0.01776
844.67057,0.01759
842.61040,0.01693
840.55023,0.01617
838.49006,0.01572
836.42988,0.01533
834.36971,0.01465
832.30954,0.01403
830.24937,0.01365
828.18919,0.01332
826.12902,0.01311
824.06885,0.01293
822.00868,0.01262
819.94851,0.01217
817.88833,0.01161
815.82816,0.01115
813.76799,0.01096
811.70782,0.01090
809.64765,0.01087
807.58747,0.01083
805.52730,0.01058
803.46713,0.01010
801.40696,0.00981
799.34679,0.00972
797.28661,0.00954
795.22644,0.00944
793.16627,0.00947
791.10610,0.00943
789.04592,0.00937
786.98575,0.00932
784.92558,0.00944
782.86541,0.00968
780.80524,0.00956
778.74506,0.00899
776.68489,0.00863
774.62472,0.00882
772.56455,0.00909
770.50438,0.00915
768.44420,0.00919
766.38403,0.00911
764.32386,0.00872
762.26369,0.00847
760.20352,0.00869
758.14334,0.00892
756.08317,0.00885
754.02300,0.00867
751.96283,0.00851
749.90265,0.00823
747.84248,0.00787
745.78231,0.00778
743.72214,0.00805
741.66197,0.00843
739.60179,0.00863
737.54162,0.00864
735.48145,0.00862
733.42128,0.00836
731.36111,0.00806
729.30093,0.00818
727.24076,0.00843
725.18059,0.00872
723.12042,0.00974
721.06024,0.00861
719.00007,0.00879
716.93990,0.00902
714.87973,0.00887
712.81956,0.00872
710.75938,0.00862
708.69921,0.00875
706.63904,0.00913
704.57887,0.00973
702.51870,0.01040
700.45852,0.01110
698.39835,0.01165
696.33818,0.01182
694.27801,0.01182
692.21784,0.01189
690.15766,0.01185
688.09749,0.01182
686.03732,0.01232
683.97715,0.01355
681.91697,0.01487
679.85680,0.01528
677.79663,0.01445
675.73646,0.01334
673.67629,0.01502
671.61611,0.02025
669.55594,0.01325
667.49577,0.00040
665.43560,0.01936
663.37543,0.01673
661.31525,0.01150
659.25508,0.01087
657.19491,0.01183
655.13474,0.01256
653.07457,0.01291
651.01439,0.01299
648.95422,0.01218
646.89405,0.01153
644.83388,0.00990
642.77370,0.00828
640.71353,0.00749
638.65336,0.00666
636.59319,0.00507
634.53302,0.00390
632.47284,0.00372
630.41267,0.00369
628.35250,0.00320
626.29233,0.00269
624.23216,0.00287
622.17198,0.00346
620.11181,0.00337
618.05164,0.00298
615.99147,0.00356
613.93129,0.00424
611.87112,0.00320
609.81095,0.00160
607.75078,0.00086
605.69061,0.00034
603.63043,0.00000
601.57026,0.00005
599.51009,0.00000
