3996.73391,0.00012
3994.67374,0.00035
3992.61357,0.00055
3990.55339,0.00075
3988.49322,0.00082
3986.43305,0.00069
3984.37288,0.00041
3982.31271,0.00019
3980.25253,0.00025
3978.19236,0.00041
3976.13219,0.00046
3974.07202,0.00044
3972.01184,0.00037
3969.95167,0.00033
3967.89150,0.00042
3965.83133,0.00054
3963.77116,0.00051
3961.71098,0.00026
3959.65081,0.00000
3957.59064,0.00004
3955.53047,0.00035
3953.47030,0.00059
3951.41012,0.00052
3949.34995,0.00031
3947.28978,0.00039
3945.22961,0.00085
3943.16943,0.00119
3941.10926,0.00109
3939.04909,0.00082
3936.98892,0.00063
3934.92875,0.00052
3932.86857,0.00045
3930.80840,0.00050
3928.74823,0.00063
3926.68806,0.00066
3924.62789,0.00059
3922.56771,0.00058
3920.50754,0.00058
3918.44737,0.00038
3916.38720,0.00024
3914.32703,0.00040
3912.26685,0.00069
3910.20668,0.00089
3908.14651,0.00101
3906.08634,0.00108
3904.02616,0.00086
3901.96599,0.00042
3899.90582,0.00011
3897.84565,0.00000
3895.78548,0.00021
3893.72530,0.00062
3891.66513,0.00084
3889.60496,0.00071
3887.54479,0.00051
3885.48462,0.00041
3883.42444,0.00045
3881.36427,0.00054
3879.30410,0.00051
3877.24393,0.00056
3875.18376,0.00074
3873.12358,0.00087
3871.06341,0.00093
3869.00324,0.00084
3866.94307,0.00073
3864.88289,0.00061
3862.82272,0.00040
3860.76255,0.00031
3858.70238,0.00041
3856.64221,0.00055
3854.58203,0.00063
3852.52186,0.00034
3850.46169,0.00000
3848.40152,0.00013
3846.34135,0.00067
3844.28117,0.00104
3842.22100,0.00090
3840.16083,0.00056
3838.10066,0.00029
3836.04048,0.00021
3833.98031,0.00036
3831.92014,0.00052
3829.85997,0.00064
3827.79980,0.00073
3825.73962,0.00077
3823.67945,0.00071
3821.61928,0.00050
3819.55911,0.00030
3817.49894,0.00033
3815.43876,0.00040
3813.37859,0.00052
3811.31842,0.00079
3809.25825,0.00119
3807.19808,0.00133
3805.13790,0.00114
3803.07773,0.00109
3801.01756,0.00122
3798.95739,0.00127
3796.89721,0.00127
3794.83704,0.00138
3792.77687,0.00157
3790.71670,0.00165
3788.65653,0.00166
3786.59635,0.00183
3784.53618,0.00220
3782.47601,0.00250
3780.41584,0.00237
3778.35567,0.00193
3776.29549,0.00178
3774.23532,0.00194
3772.17515,0.00205
3770.11498,0.00205
3768.05481,0.00194
3765.99463,0.00170
3763.93446,0.00155
3761.87429,0.00161
3759.81412,0.00156
3757.75394,0.00132
3755.69377,0.00131
3753.63360,0.00150
3751.57343,0.00129
3749.51326,0.00057
3747.45308,0.00016
3745.39291,0.00005
3743.33274,0.00000
3741.27257,0.00020
3739.21240,0.00067
3737.15222,0.00124
3735.09205,0.00149
3733.03188,0.00122
3730.97171,0.00102
3728.91153,0.00130
3726.85136,0.00154
3724.79119,0.00132
3722.73102,0.00111
3720.67085,0.00128
3718.61067,0.00162
3716.55050,0.00178
3714.49033,0.00177
3712.43016,0.00176
3710.36999,0.00157
3708.30981,0.00134
3706.24964,0.00149
3704.18947,0.00187
3702.12930,0.00204
3700.06913,0.00195
3698.00895,0.00197
3695.94878,0.00218
3693.88861,0.00245
3691.82844,0.00244
3689.76826,0.00188
3687.70809,0.00133
3685.64792,0.00148
3683.58775,0.00189
3681.52758,0.00211
3679.46740,0.00224
3677.40723,0.00240
3675.34706,0.00231
3673.28689,0.00206
3671.22672,0.00213
3669.16654,0.00239
3667.10637,0.00264
3665.04620,0.00277
3662.98603,0.00277
3660.92586,0.00264
3658.86568,0.00250
3656.80551,0.00257
3654.74534,0.00293
3652.68517,0.00352
3650.62499,0.00389
3648.56482,0.00365
3646.50465,0.00342
3644.44448,0.00351
3642.38431,0.00367
3640.32413,0.00385
3638.26396,0.00415
3636.20379,0.00453
3634.14362,0.00484
3632.08345,0.00500
3630.02327,0.00498
3627.96310,0.00473
3625.90293,0.00479
3623.84276,0.00534
3621.78258,0.00588
3619.72241,0.00594
3617.66224,0.00557
3615.60207,0.00532
3613.54190,0.00532
3611.48172,0.00544
3609.42155,0.00568
3607.36138,0.00609
3605.30121,0.00663
3603.24104,0.00711
3601.18086,0.00739
3599.12069,0.00751
3597.06052,0.00767
3595.00035,0.00795
3592.94018,0.00840
3590.88000,0.00879
3588.81983,0.00884
3586.75966,0.00869
3584.69949,0.00875
3582.63931,0.00907
3580.57914,0.00938
3578.51897,0.00949
3576.45880,0.00951
3574.39863,0.00970
3572.33845,0.01007
3570.27828,0.01045
3568.21811,0.01058
3566.15794,0.01042
3564.09777,0.01046
3562.03759,0.01079
3559.97742,0.01099
3557.91725,0.01097
3555.85708,0.01105
3553.79690,0.01135
3551.73673,0.01167
3549.67656,0.01178
3547.61639,0.01168
3545.55622,0.01174
3543.49604,0.01220
3541.43587,0.01284
3539.37570,0.01335
3537.31553,0.01363
3535.25536,0.01373
3533.19518,0.01384
3531.13501,0.01388
3529.07484,0.01376
3527.01467,0.01379
3524.95450,0.01413
3522.89432,0.01438
3520.83415,0.01443
3518.77398,0.01450
3516.71381,0.01455
3514.65363,0.01451
3512.59346,0.01465
3510.53329,0.01514
3508.47312,0.01569
3506.41295,0.01599
3504.35277,0.01604
3502.29260,0.01600
3500.23243,0.01613
3498.17226,0.01650
3496.11209,0.01682
3494.05191,0.01686
3491.99174,0.01679
3489.93157,0.01686
3487.87140,0.01713
3485.81123,0.01755
3483.75105,0.01793
3481.69088,0.01807
3479.63071,0.01794
3477.57054,0.01789
3475.51036,0.01807
3473.45019,0.01829
3471.39002,0.01853
3469.32985,0.01878
3467.26968,0.01894
3465.20950,0.01900
3463.14933,0.01908
3461.08916,0.01933
3459.02899,0.01959
3456.96882,0.01958
3454.90864,0.01951
3452.84847,0.01967
3450.78830,0.01998
3448.72813,0.02017
3446.66795,0.02035
3444.60778,0.02057
3442.54761,0.02074
3440.48744,0.02080
3438.42727,0.02092
3436.36709,0.02123
3434.30692,0.02143
3432.24675,0.02136
3430.18658,0.02124
3428.12641,0.02125
3426.06623,0.02143
3424.00606,0.02173
3421.94589,0.02194
3419.88572,0.02200
3417.82555,0.02206
3415.76537,0.02226
3413.70520,0.02248
3411.64503,0.02265
3409.58486,0.02272
3407.52468,0.02255
3405.46451,0.02247
3403.40434,0.02270
3401.34417,0.02296
3399.28400,0.02292
3397.22382,0.02300
3395.16365,0.02306
3393.10348,0.02318
3391.04331,0.02346
3388.98314,0.02375
3386.92296,0.02388
3384.86279,0.02393
3382.80262,0.02408
3380.74245,0.02425
3378.68228,0.02425
3376.62210,0.02415
3374.56193,0.02415
3372.50176,0.02427
3370.44159,0.02429
3368.38141,0.02424
3366.32124,0.02426
3364.26107,0.02426
3362.20090,0.02437
3360.14073,0.02466
3358.08055,0.02487
3356.02038,0.02495
3353.96021,0.02494
3351.90004,0.02483
3349.83987,0.02482
3347.77969,0.02501
3345.71952,0.02529
3343.65935,0.02543
3341.59918,0.02534
3339.53900,0.02525
3337.47883,0.02533
3335.41866,0.02548
3333.35849,0.02556
3331.29832,0.02552
3329.23814,0.02549
3327.17797,0.02560
3325.11780,0.02579
3323.05763,0.02589
3320.99746,0.02579
3318.93728,0.02559
3316.87711,0.02545
3314.81694,0.02541
3312.75677,0.02547
3310.69660,0.02556
3308.63642,0.02558
3306.57625,0.02563
3304.51608,0.02590
3302.45591,0.02626
3300.39573,0.02632
3298.33556,0.02620
3296.27539,0.02624
3294.21522,0.02632
3292.15505,0.02625
3290.09487,0.02621
3288.03470,0.02637
3285.97453,0.02658
3283.91436,0.02664
3281.85419,0.02659
3279.79401,0.02654
3277.73384,0.02649
3275.67367,0.02654
3273.61350,0.02662
3271.55333,0.02655
3269.49315,0.02643
3267.43298,0.02638
3265.37281,0.02634
3263.31264,0.02630
3261.25246,0.02618
3259.19229,0.02604
3257.13212,0.02609
3255.07195,0.02635
3253.01178,0.02668
3250.95160,0.02687
3248.89143,0.02689
3246.83126,0.02685
3244.77109,0.02695
3242.71092,0.02702
3240.65074,0.02685
3238.59057,0.02669
3236.53040,0.02673
3234.47023,0.02671
3232.41005,0.02654
3230.34988,0.02647
3228.28971,0.02662
3226.22954,0.02676
3224.16937,0.02678
3222.10919,0.02681
3220.04902,0.02675
3217.98885,0.02654
3215.92868,0.02638
3213.86851,0.02635
3211.80833,0.02640
3209.74816,0.02643
3207.68799,0.02632
3205.62782,0.02615
3203.56765,0.02611
3201.50747,0.02610
3199.44730,0.02606
3197.38713,0.02618
3195.32696,0.02639
3193.26678,0.02652
3191.20661,0.02655
3189.14644,0.02651
3187.08627,0.02646
3185.02610,0.02639
3182.96592,0.02636
3180.90575,0.02635
3178.84558,0.02626
3176.78541,0.02612
3174.72524,0.02603
3172.66506,0.02598
3170.60489,0.02591
3168.54472,0.02586
3166.48455,0.02585
3164.42437,0.02578
3162.36420,0.02564
3160.30403,0.02550
3158.24386,0.02523
3156.18369,0.02502
3154.12351,0.02519
3152.06334,0.02533
3150.00317,0.02519
3147.94300,0.02512
3145.88283,0.02527
3143.82265,0.02533
3141.76248,0.02522
3139.70231,0.02514
3137.64214,0.02511
3135.58197,0.02504
3133.52179,0.02499
3131.46162,0.02490
3129.40145,0.02468
3127.34128,0.02454
3125.28110,0.02456
3123.22093,0.02459
3121.16076,0.02450
3119.10059,0.02432
3117.04042,0.02417
3114.98024,0.02411
3112.92007,0.02412
3110.85990,0.02411
3108.79973,0.02406
3106.73956,0.02399
3104.67938,0.02385
3102.61921,0.02362
3100.55904,0.02349
3098.49887,0.02350
3096.43870,0.02349
3094.37852,0.02342
3092.31835,0.02335
3090.25818,0.02322
3088.19801,0.02304
3086.13783,0.02287
3084.07766,0.02277
3082.01749,0.02277
3079.95732,0.02286
3077.89715,0.02285
3075.83697,0.02269
3073.77680,0.02252
3071.71663,0.02244
3069.65646,0.02236
3067.59629,0.02215
3065.53611,0.02194
3063.47594,0.02192
3061.41577,0.02208
3059.35560,0.02221
3057.29542,0.02216
3055.23525,0.02198
3053.17508,0.02189
3051.11491,0.02187
3049.05474,0.02174
3046.99456,0.02154
3044.93439,0.02137
3042.87422,0.02126
3040.81405,0.02123
3038.75388,0.02115
3036.69370,0.02092
3034.63353,0.02074
3032.57336,0.02066
3030.51319,0.02056
3028.45302,0.02050
3026.39284,0.02041
3024.33267,0.02020
3022.27250,0.02000
3020.21233,0.01990
3018.15215,0.01974
3016.09198,0.01955
3014.03181,0.01942
3011.97164,0.01942
3009.91147,0.01947
3007.85129,0.01933
3005.79112,0.01905
3003.73095,0.01892
3001.67078,0.01892
2999.61061,0.01888
2997.55043,0.01878
2995.49026,0.01867
2993.43009,0.01855
2991.36992,0.01862
2989.30975,0.01872
2987.24957,0.01871
2985.18940,0.01867
2983.12923,0.01872
2981.06906,0.01881
2979.00888,0.01876
2976.94871,0.01856
2974.88854,0.01843
2972.82837,0.01839
2970.76820,0.01836
2968.70802,0.01833
2966.64785,0.01841
2964.58768,0.01858
2962.52751,0.01862
2960.46734,0.01842
2958.40716,0.01818
2956.34699,0.01810
2954.28682,0.01834
2952.22665,0.01861
2950.16647,0.01849
2948.10630,0.01816
2946.04613,0.01796
2943.98596,0.01800
2941.92579,0.01816
2939.86561,0.01813
2937.80544,0.01799
2935.74527,0.01791
2933.68510,0.01786
2931.62493,0.01786
2929.56475,0.01778
2927.50458,0.01758
2925.44441,0.01738
2923.38424,0.01727
2921.32407,0.01728
2919.26389,0.01733
2917.20372,0.01727
2915.14355,0.01706
2913.08338,0.01681
2911.02320,0.01670
2908.96303,0.01674
2906.90286,0.01680
2904.84269,0.01678
2902.78252,0.01665
2900.72234,0.01647
2898.66217,0.01633
2896.60200,0.01621
2894.54183,0.01602
2892.48166,0.01579
2890.42148,0.01572
2888.36131,0.01585
2886.30114,0.01595
2884.24097,0.01595
2882.18080,0.01592
2880.12062,0.01585
2878.06045,0.01572
2876.00028,0.01567
2873.94011,0.01565
2871.87993,0.01555
2869.81976,0.01534
2867.75959,0.01514
2865.69942,0.01500
2863.63925,0.01491
2861.57907,0.01493
2859.51890,0.01493
2857.45873,0.01479
2855.39856,0.01461
2853.33839,0.01449
2851.27821,0.01438
2849.21804,0.01423
2847.15787,0.01416
2845.09770,0.01416
2843.03752,0.01407
2840.97735,0.01387
2838.91718,0.01369
2836.85701,0.01359
2834.79684,0.01351
2832.73666,0.01337
2830.67649,0.01321
2828.61632,0.01314
2826.55615,0.01313
2824.49598,0.01312
2822.43580,0.01309
2820.37563,0.01304
2818.31546,0.01293
2816.25529,0.01274
2814.19512,0.01270
2812.13494,0.01277
2810.07477,0.01272
2808.01460,0.01262
2805.95443,0.01253
2803.89425,0.01239
2801.83408,0.01226
2799.77391,0.01219
2797.71374,0.01218
2795.65357,0.01215
2793.59339,0.01207
2791.53322,0.01201
2789.47305,0.01200
2787.41288,0.01190
2785.35271,0.01170
2783.29253,0.01158
2781.23236,0.01153
2779.17219,0.01149
2777.11202,0.01138
2775.05184,0.01121
2772.99167,0.01115
2770.93150,0.01120
2768.87133,0.01120
2766.81116,0.01115
2764.75098,0.01101
2762.69081,0.01075
2760.63064,0.01061
2758.57047,0.01069
2756.51030,0.01080
2754.45012,0.01082
2752.38995,0.01077
2750.32978,0.01077
2748.26961,0.01084
2746.20944,0.01081
2744.14926,0.01064
2742.08909,0.01053
2740.02892,0.01052
2737.96875,0.01045
2735.90857,0.01034
2733.84840,0.01025
2731.78823,0.01014
2729.72806,0.01004
2727.66789,0.00997
2725.60771,0.00987
2723.54754,0.00975
2721.48737,0.00970
2719.42720,0.00970
2717.36703,0.00962
2715.30685,0.00947
2713.24668,0.00944
2711.18651,0.00959
2709.12634,0.00969
2707.06617,0.00967
2705.00599,0.00962
2702.94582,0.00947
2700.88565,0.00929
2698.82548,0.00917
2696.76530,0.00903
2694.70513,0.00899
2692.64496,0.00906
2690.58479,0.00904
2688.52462,0.00898
2686.46444,0.00897
2684.40427,0.00891
2682.34410,0.00883
2680.28393,0.00878
2678.22376,0.00873
2676.16358,0.00872
2674.10341,0.00869
2672.04324,0.00844
2669.98307,0.00820
2667.92289,0.00826
2665.86272,0.00841
2663.80255,0.00839
2661.74238,0.00827
2659.68221,0.00821
2657.62203,0.00825
2655.56186,0.00836
2653.50169,0.00841
2651.44152,0.00832
2649.38135,0.00814
2647.32117,0.00793
2645.26100,0.00787
2643.20083,0.00798
2641.14066,0.00804
2639.08049,0.00795
2637.02031,0.00780
2634.96014,0.00769
2632.89997,0.00764
2630.83980,0.00767
2628.77962,0.00766
2626.71945,0.00756
2624.65928,0.00745
2622.59911,0.00726
2620.53894,0.00708
2618.47876,0.00701
2616.41859,0.00705
2614.35842,0.00712
2612.29825,0.00715
2610.23808,0.00715
2608.17790,0.00714
2606.11773,0.00706
2604.05756,0.00688
2601.99739,0.00664
2599.93722,0.00657
2597.87704,0.00664
2595.81687,0.00673
2593.75670,0.00686
2591.69653,0.00697
2589.63635,0.00682
2587.57618,0.00653
2585.51601,0.00634
2583.45584,0.00632
2581.39567,0.00647
2579.33549,0.00671
2577.27532,0.00696
2575.21515,0.00701
2573.15498,0.00668
2571.09481,0.00625
2569.03463,0.00606
2566.97446,0.00597
2564.91429,0.00594
2562.85412,0.00615
2560.79394,0.00639
2558.73377,0.00639
2556.67360,0.00636
2554.61343,0.00653
2552.55326,0.00681
2550.49308,0.00689
2548.43291,0.00674
2546.37274,0.00659
2544.31257,0.00644
2542.25240,0.00632
2540.19222,0.00639
2538.13205,0.00652
2536.07188,0.00651
2534.01171,0.00632
2531.95154,0.00627
2529.89136,0.00633
2527.83119,0.00621
2525.77102,0.00627
2523.71085,0.00659
2521.65067,0.00676
2519.59050,0.00669
2517.53033,0.00656
2515.47016,0.00647
2513.40999,0.00639
2511.34981,0.00634
2509.28964,0.00648
2507.22947,0.00674
2505.16930,0.00677
2503.10913,0.00652
2501.04895,0.00639
2498.98878,0.00652
2496.92861,0.00659
2494.86844,0.00651
2492.80827,0.00642
2490.74809,0.00640
2488.68792,0.00643
2486.62775,0.00661
2484.56758,0.00686
2482.50740,0.00691
2480.44723,0.00682
2478.38706,0.00677
2476.32689,0.00680
2474.26672,0.00681
2472.20654,0.00667
2470.14637,0.00666
2468.08620,0.00696
2466.02603,0.00725
2463.96586,0.00727
2461.90568,0.00714
2459.84551,0.00717
2457.78534,0.00742
2455.72517,0.00739
2453.66499,0.00705
2451.60482,0.00691
2449.54465,0.00679
2447.48448,0.00654
2445.42431,0.00653
2443.36413,0.00667
2441.30396,0.00678
2439.24379,0.00679
2437.18362,0.00673
2435.12345,0.00677
2433.06327,0.00676
2431.00310,0.00663
2428.94293,0.00650
2426.88276,0.00655
2424.82259,0.00669
2422.76241,0.00666
2420.70224,0.00651
2418.64207,0.00653
2416.58190,0.00675
2414.52172,0.00700
2412.46155,0.00710
2410.40138,0.00705
2408.34121,0.00689
2406.28104,0.00661
2404.22086,0.00643
2402.16069,0.00644
2400.10052,0.00653
2398.04035,0.00611
2395.98018,0.00609
2393.92000,0.00627
2391.85983,0.00656
2389.79966,0.00703
2387.73949,0.00751
2385.67931,0.00771
2383.61914,0.00756
2381.55897,0.00717
2379.49880,0.00682
2377.43863,0.00667
2375.37845,0.00675
2373.31828,0.00671
2371.25811,0.00671
2369.19794,0.00721
2367.13777,0.00802
2365.07759,0.00893
2363.01742,0.01033
2360.95725,0.01125
2358.89708,0.01207
2356.83691,0.01231
2354.77673,0.01157
2352.71656,0.01002
2350.65639,0.00851
2348.59622,0.00824
2346.53604,0.00956
2344.47587,0.00943
2342.41570,0.00919
2340.35553,0.00990
2338.29536,0.01083
2336.23518,0.01118
2334.17501,0.01067
2332.11484,0.00985
2330.05467,0.00945
2327.99450,0.00992
2325.93432,0.01019
2323.87415,0.00986
2321.81398,0.00894
2319.75381,0.00843
2317.69364,0.00806
2315.63346,0.00791
2313.57329,0.00782
2311.51312,0.00755
2309.45295,0.00735
2307.39277,0.00733
2305.33260,0.00730
2303.27243,0.00719
2301.21226,0.00722
2299.15209,0.00728
2297.09191,0.00740
2295.03174,0.00754
2292.97157,0.00755
2290.91140,0.00762
2288.85123,0.00780
2286.79105,0.00764
2284.73088,0.00706
2282.67071,0.00651
2280.61054,0.00623
2278.55036,0.00623
2276.49019,0.00639
2274.43002,0.00641
2272.36985,0.00628
2270.30968,0.00629
2268.24950,0.00628
2266.18933,0.00594
2264.12916,0.00561
2262.06899,0.00558
2260.00882,0.00574
2257.94864,0.00594
2255.88847,0.00586
2253.82830,0.00542
2251.76813,0.00520
2249.70796,0.00537
2247.64778,0.00587
2245.58761,0.00619
2243.52744,0.00618
2241.46727,0.00584
2239.40709,0.00515
2237.34692,0.00465
2235.28675,0.00507
2233.22658,0.00567
2231.16641,0.00562
2229.10623,0.00544
2227.04606,0.00532
2224.98589,0.00504
2222.92572,0.00489
2220.86555,0.00485
2218.80537,0.00465
2216.74520,0.00481
2214.68503,0.00552
2212.62486,0.00583
2210.56469,0.00542
2208.50451,0.00483
2206.44434,0.00426
2204.38417,0.00409
2202.32400,0.00453
2200.26382,0.00483
2198.20365,0.00477
2196.14348,0.00455
2194.08331,0.00427
2192.02314,0.00434
2189.96296,0.00458
2187.90279,0.00473
2185.84262,0.00494
2183.78245,0.00513
2181.72228,0.00517
2179.66210,0.00507
2177.60193,0.00472
2175.54176,0.00495
2173.48159,0.00602
2171.42141,0.00669
2169.36124,0.00673
2167.30107,0.00648
2165.24090,0.00574
2163.18073,0.00437
2161.12055,0.00240
2159.06038,0.00037
2157.00021,0.00004
2154.94004,0.00157
2152.87987,0.00294
2150.81969,0.00307
2148.75952,0.00290
2146.69935,0.00357
2144.63918,0.00442
2142.57901,0.00452
2140.51883,0.00409
2138.45866,0.00357
2136.39849,0.00322
2134.33832,0.00312
2132.27814,0.00315
2130.21797,0.00338
2128.15780,0.00357
2126.09763,0.00362
2124.03746,0.00362
2121.97728,0.00349
2119.91711,0.00332
2117.85694,0.00313
2115.79677,0.00310
2113.73660,0.00361
2111.67642,0.00427
2109.61625,0.00446
2107.55608,0.00430
2105.49591,0.00391
2103.43573,0.00348
2101.37556,0.00332
2099.31539,0.00368
2097.25522,0.00382
2095.19505,0.00354
2093.13487,0.00334
2091.07470,0.00346
2089.01453,0.00350
2086.95436,0.00336
2084.89419,0.00316
2082.83401,0.00294
2080.77384,0.00307
2078.71367,0.00371
2076.65350,0.00416
2074.59333,0.00390
2072.53315,0.00347
2070.47298,0.00339
2068.41281,0.00353
2066.35264,0.00372
2064.29246,0.00388
2062.23229,0.00392
2060.17212,0.00390
2058.11195,0.00376
2056.05178,0.00348
2053.99160,0.00321
2051.93143,0.00340
2049.87126,0.00385
2047.81109,0.00350
2045.75092,0.00272
2043.69074,0.00237
2041.63057,0.00201
2039.57040,0.00160
2037.51023,0.00193
2035.45006,0.00315
2033.38988,0.00437
2031.32971,0.00458
2029.26954,0.00386
2027.20937,0.00277
2025.14919,0.00173
2023.08902,0.00096
2021.02885,0.00078
2018.96868,0.00145
2016.90851,0.00247
2014.84833,0.00323
2012.78816,0.00341
2010.72799,0.00316
2008.66782,0.00300
2006.60765,0.00281
2004.54747,0.00218
2002.48730,0.00158
2000.42713,0.00135
1998.36696,0.00146
1996.30678,0.00165
1994.24661,0.00147
1992.18644,0.00116
1990.12627,0.00122
1988.06610,0.00145
1986.00592,0.00185
1983.94575,0.00272
1981.88558,0.00394
1979.82541,0.00452
1977.76524,0.00375
1975.70506,0.00310
1973.64489,0.00329
1971.58472,0.00295
1969.52455,0.00210
1967.46438,0.00166
1965.40420,0.00122
1963.34403,0.00056
1961.28386,0.00010
1959.22369,0.00004
1957.16351,0.00066
1955.10334,0.00158
1953.04317,0.00169
1950.98300,0.00089
1948.92283,0.00021
1946.86265,0.00034
1944.80248,0.00101
1942.74231,0.00173
1940.68214,0.00206
1938.62197,0.00180
1936.56179,0.00139
1934.50162,0.00159
1932.44145,0.00211
1930.38128,0.00206
1928.32111,0.00157
1926.26093,0.00136
1924.20076,0.00146
1922.14059,0.00148
1920.08042,0.00116
1918.02024,0.00077
1915.96007,0.00082
1913.89990,0.00103
1911.83973,0.00081
1909.77956,0.00043
1907.71938,0.00045
1905.65921,0.00070
1903.59904,0.00082
1901.53887,0.00090
1899.47870,0.00113
1897.41852,0.00131
1895.35835,0.00128
1893.29818,0.00125
1891.23801,0.00141
1889.17783,0.00163
1887.11766,0.00185
1885.05749,0.00191
1882.99732,0.00149
1880.93715,0.00086
1878.87697,0.00061
1876.81680,0.00085
1874.75663,0.00117
1872.69646,0.00121
1870.63629,0.00115
1868.57611,0.00126
1866.51594,0.00138
1864.45577,0.00140
1862.39560,0.00134
1860.33543,0.00112
1858.27525,0.00084
1856.21508,0.00082
1854.15491,0.00108
1852.09474,0.00124
1850.03456,0.00124
1847.97439,0.00133
1845.91422,0.00142
1843.85405,0.00126
1841.79388,0.00102
1839.73370,0.00094
1837.67353,0.00096
1835.61336,0.00100
1833.55319,0.00110
1831.49302,0.00130
1829.43284,0.00145
1827.37267,0.00141
1825.31250,0.00139
1823.25233,0.00148
1821.19216,0.00139
1819.13198,0.00099
1817.07181,0.00067
1815.01164,0.00073
1812.95147,0.00092
1810.89129,0.00092
1808.83112,0.00080
1806.77095,0.00069
1804.71078,0.00055
1802.65061,0.00043
1800.59043,0.00047
1798.53026,0.00064
1796.47009,0.00085
1794.40992,0.00100
1792.34975,0.00093
1790.28957,0.00076
1788.22940,0.00081
1786.16923,0.00098
1784.10906,0.00110
1782.04888,0.00114
1779.98871,0.00113
1777.92854,0.00119
1775.86837,0.00136
1773.80820,0.00149
1771.74802,0.00130
1769.68785,0.00091
1767.62768,0.00075
1765.56751,0.00085
1763.50734,0.00105
1761.44716,0.00128
1759.38699,0.00150
1757.32682,0.00171
1755.26665,0.00197
1753.20648,0.00230
1751.14630,0.00248
1749.08613,0.00246
1747.02596,0.00251
1744.96579,0.00270
1742.90561,0.00290
1740.84544,0.00299
1738.78527,0.00299
1736.72510,0.00297
1734.66493,0.00292
1732.60475,0.00284
1730.54458,0.00284
1728.48441,0.00285
1726.42424,0.00288
1724.36407,0.00288
1722.30389,0.00292
1720.24372,0.00316
1718.18355,0.00349
1716.12338,0.00344
1714.06320,0.00317
1712.00303,0.00305
1709.94286,0.00312
1707.88269,0.00326
1705.82252,0.00335
1703.76234,0.00340
1701.70217,0.00357
1699.64200,0.00387
1697.58183,0.00427
1695.52166,0.00467
1693.46148,0.00505
1691.40131,0.00545
1689.34114,0.00594
1687.28097,0.00652
1685.22080,0.00720
1683.16062,0.00777
1681.10045,0.00817
1679.04028,0.00855
1676.98011,0.00902
1674.91993,0.00960
1672.85976,0.01023
1670.79959,0.01086
1668.73942,0.01135
1666.67925,0.01159
1664.61907,0.01180
1662.55890,0.01203
1660.49873,0.01216
1658.43856,0.01228
1656.37839,0.01255
1654.31821,0.01281
1652.25804,0.01274
1650.19787,0.01268
1648.13770,0.01266
1646.07753,0.01258
1644.01735,0.01243
1641.95718,0.01234
1639.89701,0.01238
1637.83684,0.01251
1635.77666,0.01239
1633.71649,0.01194
1631.65632,0.01153
1629.59615,0.01135
1627.53598,0.01137
1625.47580,0.01136
1623.41563,0.01119
1621.35546,0.01091
1619.29529,0.01071
1617.23512,0.01057
1615.17494,0.01030
1613.11477,0.01004
1611.05460,0.01000
1608.99443,0.01005
1606.93425,0.01003
1604.87408,0.00999
1602.81391,0.00990
1600.75374,0.00971
1598.69357,0.00954
1596.63339,0.00939
1594.57322,0.00916
1592.51305,0.00883
1590.45288,0.00853
1588.39271,0.00836
1586.33253,0.00823
1584.27236,0.00801
1582.21219,0.00769
1580.15202,0.00746
1578.09185,0.00735
1576.03167,0.00712
1573.97150,0.00672
1571.91133,0.00645
1569.85116,0.00639
1567.79098,0.00633
1565.73081,0.00622
1563.67064,0.00619
1561.61047,0.00639
1559.55030,0.00644
1557.49012,0.00573
1555.42995,0.00506
1553.36978,0.00487
1551.30961,0.00492
1549.24944,0.00498
1547.18926,0.00504
1545.12909,0.00509
1543.06892,0.00501
1541.00875,0.00474
1538.94858,0.00434
1536.88840,0.00404
1534.82823,0.00395
1532.76806,0.00390
1530.70789,0.00375
1528.64771,0.00363
1526.58754,0.00354
1524.52737,0.00346
1522.46720,0.00334
1520.40703,0.00310
1518.34685,0.00297
1516.28668,0.00290
1514.22651,0.00271
1512.16634,0.00249
1510.10617,0.00240
1508.04599,0.00225
1505.98582,0.00187
1503.92565,0.00163
1501.86548,0.00168
1499.80530,0.00191
1497.74513,0.00202
1495.68496,0.00189
1493.62479,0.00177
1491.56462,0.00179
1489.50444,0.00182
1487.44427,0.00178
1485.38410,0.00170
1483.32393,0.00166
1481.26376,0.00167
1479.20358,0.00169
1477.14341,0.00178
1475.08324,0.00199
1473.02307,0.00216
1470.96290,0.00218
1468.90272,0.00221
1466.84255,0.00236
1464.78238,0.00249
1462.72221,0.00259
1460.66203,0.00285
1458.60186,0.00319
1456.54169,0.00317
1454.48152,0.00285
1452.42135,0.00263
1450.36117,0.00268
1448.30100,0.00285
1446.24083,0.00290
1444.18066,0.00289
1442.12049,0.00293
1440.06031,0.00302
1438.00014,0.00307
1435.93997,0.00303
1433.87980,0.00298
1431.81963,0.00300
1429.75945,0.00314
1427.69928,0.00332
1425.63911,0.00349
1423.57894,0.00367
1421.51876,0.00386
1419.45859,0.00399
1417.39842,0.00402
1415.33825,0.00407
1413.27808,0.00417
1411.21790,0.00420
1409.15773,0.00414
1407.09756,0.00410
1405.03739,0.00400
1402.97722,0.00386
1400.91704,0.00379
1398.85687,0.00370
1396.79670,0.00357
1394.73653,0.00352
1392.67635,0.00346
1390.61618,0.00336
1388.55601,0.00331
1386.49584,0.00333
1384.43567,0.00336
1382.37549,0.00336
1380.31532,0.00335
1378.25515,0.00338
1376.19498,0.00349
1374.13481,0.00350
1372.07463,0.00336
1370.01446,0.00328
1367.95429,0.00327
1365.89412,0.00323
1363.83395,0.00314
1361.77377,0.00299
1359.71360,0.00292
1357.65343,0.00295
1355.59326,0.00294
1353.53308,0.00288
1351.47291,0.00283
1349.41274,0.00280
1347.35257,0.00271
1345.29240,0.00256
1343.23222,0.00241
1341.17205,0.00233
1339.11188,0.00226
1337.05171,0.00221
1334.99154,0.00227
1332.93136,0.00236
1330.87119,0.00241
1328.81102,0.00246
1326.75085,0.00244
1324.69067,0.00239
1322.63050,0.00242
1320.57033,0.00251
1318.51016,0.00254
1316.44999,0.00252
1314.38981,0.00250
1312.32964,0.00254
1310.26947,0.00260
1308.20930,0.00264
1306.14913,0.00271
1304.08895,0.00278
1302.02878,0.00283
1299.96861,0.00293
1297.90844,0.00313
1295.84827,0.00336
1293.78809,0.00354
1291.72792,0.00355
1289.66775,0.00345
1287.60758,0.00331
1285.54740,0.00320
1283.48723,0.00317
1281.42706,0.00315
1279.36689,0.00313
1277.30672,0.00320
1275.24654,0.00335
1273.18637,0.00344
1271.12620,0.00344
1269.06603,0.00338
1267.00586,0.00327
1264.94568,0.00322
1262.88551,0.00336
1260.82534,0.00353
1258.76517,0.00357
1256.70500,0.00358
1254.64482,0.00362
1252.58465,0.00362
1250.52448,0.00359
1248.46431,0.00350
1246.40413,0.00334
1244.34396,0.00319
1242.28379,0.00310
1240.22362,0.00309
1238.16345,0.00309
1236.10327,0.00298
1234.04310,0.00275
1231.98293,0.00254
1229.92276,0.00241
1227.86259,0.00230
1225.80241,0.00218
1223.74224,0.00202
1221.68207,0.00179
1219.62190,0.00153
1217.56172,0.00128
1215.50155,0.00110
1213.44138,0.00101
1211.38121,0.00093
1209.32104,0.00078
1207.26086,0.00057
1205.20069,0.00034
1203.14052,0.00017
1201.08035,0.00006
1199.02018,0.00003
1196.96000,0.00011
1194.89983,0.00018
1192.83966,0.00018
1190.77949,0.00015
1188.71932,0.00019
1186.65914,0.00029
1184.59897,0.00041
1182.53880,0.00043
1180.47863,0.00044
1178.41845,0.00063
1176.35828,0.00101
1174.29811,0.00154
1172.23794,0.00202
1170.17777,0.00231
1168.11759,0.00254
1166.05742,0.00285
1163.99725,0.00328
1161.93708,0.00369
1159.87691,0.00408
1157.81673,0.00452
1155.75656,0.00511
1153.69639,0.00585
1151.63622,0.00658
1149.57605,0.00724
1147.51587,0.00796
1145.45570,0.00874
1143.39553,0.00954
1141.33536,0.01044
1139.27518,0.01132
1137.21501,0.01209
1135.15484,0.01286
1133.09467,0.01383
1131.03450,0.01504
1128.97432,0.01621
1126.91415,0.01725
1124.85398,0.01829
1122.79381,0.01936
1120.73364,0.02043
1118.67346,0.02156
1116.61329,0.02267
1114.55312,0.02371
1112.49295,0.02478
1110.43277,0.02579
1108.37260,0.02661
1106.31243,0.02734
1104.25226,0.02815
1102.19209,0.02906
1100.13191,0.02997
1098.07174,0.03067
1096.01157,0.03122
1093.95140,0.03178
1091.89123,0.03241
1089.83105,0.03306
1087.77088,0.03355
1085.71071,0.03383
1083.65054,0.03422
1081.59037,0.03482
1079.53019,0.03539
1077.47002,0.03580
1075.40985,0.03611
1073.34968,0.03636
1071.28950,0.03659
1069.22933,0.03678
1067.16916,0.03697
1065.10899,0.03705
1063.04882,0.03683
1060.98864,0.03639
1058.92847,0.03589
1056.86830,0.03532
1054.80813,0.03465
1052.74796,0.03375
1050.68778,0.03268
1048.62761,0.03164
1046.56744,0.03054
1044.50727,0.02934
1042.44710,0.02821
1040.38692,0.02707
1038.32675,0.02577
1036.26658,0.02444
1034.20641,0.02318
1032.14623,0.02183
1030.08606,0.02041
1028.02589,0.01919
1025.96572,0.01830
1023.90555,0.01761
1021.84537,0.01696
1019.78520,0.01628
1017.72503,0.01559
1015.66486,0.01505
1013.60469,0.01482
1011.54451,0.01483
1009.48434,0.01496
1007.42417,0.01531
1005.36400,0.01582
1003.30382,0.01639
1001.24365,0.01713
999.18348,0.01796
997.12331,0.01876
995.06314,0.01954
993.00296,0.02026
990.94279,0.02092
988.88262,0.02156
986.82245,0.02216
984.76228,0.02263
982.70210,0.02299
980.64193,0.02318
978.58176,0.02316
976.52159,0.02314
974.46142,0.02294
972.40124,0.02232
970.34107,0.02160
968.28090,0.02095
966.22073,0.02015
964.16055,0.01916
962.10038,0.01824
960.04021,0.01745
957.98004,0.01665
955.91987,0.01574
953.85969,0.01474
951.79952,0.01370
949.73935,0.01274
947.67918,0.01194
945.61901,0.01120
943.55883,0.01038
941.49866,0.00974
939.43849,0.00926
937.37832,0.00865
935.31814,0.00815
933.25797,0.00771
931.19780,0.00706
929.13763,0.00650
927.07746,0.00629
925.01728,0.00606
922.95711,0.00553
920.89694,0.00500
918.83677,0.00476
916.77660,0.00468
914.71642,0.00453
912.65625,0.00425
910.59608,0.00394
908.53591,0.00384
906.47574,0.00398
904.41556,0.00411
902.35539,0.00416
900.29522,0.00415
898.23505,0.00415
896.17487,0.00431
894.11470,0.00469
892.05453,0.00519
889.99436,0.00563
887.93419,0.00604
885.87401,0.00667
883.81384,0.00739
881.75367,0.00774
879.69350,0.00769
877.63333,0.00779
875.57315,0.00828
873.51298,0.00895
871.45281,0.00949
869.39264,0.00985
867.33247,0.01018
865.27229,0.01045
863.21212,0.01069
861.15195,0.01102
859.09178,0.01127
857.03160,0.01126
854.97143,0.01117
852.91126,0.01114
850.85109,0.01106
848.79092,0.01083
846.73074,0.01052
844.67057,0.01005
842.61040,0.00943
840.55023,0.00899
838.49006,0.00888
836.42988,0.00870
834.36971,0.00818
832.30954,0.00782
830.24937,0.00758
828.18919,0.00708
826.12902,0.00676
824.06885,0.00672
822.00868,0.00653
819.94851,0.00612
817.88833,0.00566
815.82816,0.00518
813.76799,0.00496
811.70782,0.00491
809.64765,0.00477
807.58747,0.00483
805.52730,0.00481
803.46713,0.00443
801.40696,0.00424
799.34679,0.00416
797.28661,0.00386
795.22644,0.00359
793.16627,0.00341
791.10610,0.00320
789.04592,0.00316
786.98575,0.00325
784.92558,0.00320
782.86541,0.00311
780.80524,0.00325
778.74506,0.00328
776.68489,0.00295
774.62472,0.00264
772.56455,0.00273
770.50438,0.00304
768.44420,0.00311
766.38403,0.00291
764.32386,0.00257
762.26369,0.00233
760.20352,0.00245
758.14334,0.00273
756.08317,0.00294
754.02300,0.00292
751.96283,0.00254
749.90265,0.00202
747.84248,0.00175
745.78231,0.00173
743.72214,0.00175
741.66197,0.00175
739.60179,0.00180
737.54162,0.00214
735.48145,0.00256
733.42128,0.00259
731.36111,0.00245
729.30093,0.00250
727.24076,0.00246
725.18059,0.00233
723.12042,0.00268
721.06024,0.00271
719.00007,0.00226
716.93990,0.00193
714.87973,0.00186
712.81956,0.00205
710.75938,0.00230
708.69921,0.00221
706.63904,0.00189
704.57887,0.00203
702.51870,0.00265
700.45852,0.00319
698.39835,0.00334
696.33818,0.00322
694.27801,0.00310
692.21784,0.00308
690.15766,0.00285
688.09749,0.00238
686.03732,0.00227
683.97715,0.00298
681.91697,0.00404
679.85680,0.00475
677.79663,0.00490
675.73646,0.00422
673.67629,0.00252
671.61611,0.00007
669.55594,0.00000
667.49577,0.00280
665.43560,0.00209
663.37543,0.00375
661.31525,0.00366
659.25508,0.00228
657.19491,0.00222
655.13474,0.00314
653.07457,0.00364
651.01439,0.00360
648.95422,0.00341
646.89405,0.00336
644.83388,0.00345
642.77370,0.00326
640.71353,0.00298
638.65336,0.00249
636.59319,0.00154
634.53302,0.00102
632.47284,0.00112
630.41267,0.00110
628.35250,0.00084
626.29233,0.00034
624.23216,0.00018
622.17198,0.00153
620.11181,0.00277
618.05164,0.00181
615.99147,0.00028
613.93129,0.00008
611.87112,0.00012
609.81095,0.00000
607.75078,0.00053
605.69061,0.00112
603.63043,0.00064
601.57026,0.00002
599.51009,0.00000
