3996.73391,0.00034
3994.67374,0.00039
3992.61357,0.00032
3990.55339,0.00048
3988.49322,0.00069
3986.43305,0.00064
3984.37288,0.00040
3982.31271,0.00014
3980.25253,0.00000
3978.19236,0.00004
3976.13219,0.00024
3974.07202,0.00047
3972.01184,0.00059
3969.95167,0.00061
3967.89150,0.00058
3965.83133,0.00056
3963.77116,0.00047
3961.71098,0.00027
3959.65081,0.00018
3957.59064,0.00034
3955.53047,0.00056
3953.47030,0.00069
3951.41012,0.00068
3949.34995,0.00047
3947.28978,0.00036
3945.22961,0.00062
3943.16943,0.00088
3941.10926,0.00083
3939.04909,0.00071
3936.98892,0.00073
3934.92875,0.00080
3932.86857,0.00074
3930.80840,0.00069
3928.74823,0.00088
3926.68806,0.00107
3924.62789,0.00093
3922.56771,0.00064
3920.50754,0.00051
3918.44737,0.00043
3916.38720,0.00045
3914.32703,0.00074
3912.26685,0.00107
3910.20668,0.00125
3908.14651,0.00137
3906.08634,0.00139
3904.02616,0.00098
3901.96599,0.00038
3899.90582,0.00008
3897.84565,0.00001
3895.78548,0.00031
3893.72530,0.00092
3891.66513,0.00124
3889.60496,0.00110
3887.54479,0.00095
3885.48462,0.00083
3883.42444,0.00082
3881.36427,0.00088
3879.30410,0.00074
3877.24393,0.00067
3875.18376,0.00085
3873.12358,0.00113
3871.06341,0.00134
3869.00324,0.00124
3866.94307,0.00109
3864.88289,0.00095
3862.82272,0.00062
3860.76255,0.00049
3858.70238,0.00080
3856.64221,0.00121
3854.58203,0.00122
3852.52186,0.00053
3850.46169,0.00002
3848.40152,0.00020
3846.34135,0.00080
3844.28117,0.00119
3842.22100,0.00105
3840.16083,0.00068
3838.10066,0.00036
3836.04048,0.00022
3833.98031,0.00033
3831.92014,0.00049
3829.85997,0.00070
3827.79980,0.00101
3825.73962,0.00128
3823.67945,0.00142
3821.61928,0.00135
3819.55911,0.00128
3817.49894,0.00138
3815.43876,0.00122
3813.37859,0.00100
3811.31842,0.00115
3809.25825,0.00146
3807.19808,0.00144
3805.13790,0.00125
3803.07773,0.00127
3801.01756,0.00123
3798.95739,0.00113
3796.89721,0.00115
3794.83704,0.00122
3792.77687,0.00128
3790.71670,0.00131
3788.65653,0.00138
3786.59635,0.00166
3784.53618,0.00212
3782.47601,0.00260
3780.41584,0.00273
3778.35567,0.00226
3776.29549,0.00184
3774.23532,0.00196
3772.17515,0.00213
3770.11498,0.00183
3768.05481,0.00135
3765.99463,0.00114
3763.93446,0.00117
3761.87429,0.00130
3759.81412,0.00125
3757.75394,0.00101
3755.69377,0.00101
3753.63360,0.00125
3751.57343,0.00109
3749.51326,0.00050
3747.45308,0.00042
3745.39291,0.00052
3743.33274,0.00017
3741.27257,0.00003
3739.21240,0.00051
3737.15222,0.00110
3735.09205,0.00093
3733.03188,0.00028
3730.97171,0.00014
3728.91153,0.00052
3726.85136,0.00080
3724.79119,0.00077
3722.73102,0.00072
3720.67085,0.00084
3718.61067,0.00104
3716.55050,0.00117
3714.49033,0.00116
3712.43016,0.00097
3710.36999,0.00074
3708.30981,0.00086
3706.24964,0.00115
3704.18947,0.00138
3702.12930,0.00137
3700.06913,0.00118
3698.00895,0.00118
3695.94878,0.00139
3693.88861,0.00167
3691.82844,0.00188
3689.76826,0.00173
3687.70809,0.00128
3685.64792,0.00118
3683.58775,0.00143
3681.52758,0.00181
3679.46740,0.00231
3677.40723,0.00270
3675.34706,0.00246
3673.28689,0.00195
3671.22672,0.00178
3669.16654,0.00178
3667.10637,0.00197
3665.04620,0.00221
3662.98603,0.00223
3660.92586,0.00210
3658.86568,0.00189
3656.80551,0.00171
3654.74534,0.00190
3652.68517,0.00264
3650.62499,0.00321
3648.56482,0.00282
3646.50465,0.00221
3644.44448,0.00211
3642.38431,0.00228
3640.32413,0.00246
3638.26396,0.00273
3636.20379,0.00309
3634.14362,0.00339
3632.08345,0.00369
3630.02327,0.00395
3627.96310,0.00387
3625.90293,0.00392
3623.84276,0.00435
3621.78258,0.00468
3619.72241,0.00459
3617.66224,0.00436
3615.60207,0.00427
3613.54190,0.00418
3611.48172,0.00416
3609.42155,0.00432
3607.36138,0.00451
3605.30121,0.00477
3603.24104,0.00521
3601.18086,0.00567
3599.12069,0.00593
3597.06052,0.00610
3595.00035,0.00628
3592.94018,0.00655
3590.88000,0.00684
3588.81983,0.00688
3586.75966,0.00656
3584.69949,0.00639
3582.63931,0.00662
3580.57914,0.00699
3578.51897,0.00724
3576.45880,0.00730
3574.39863,0.00738
3572.33845,0.00762
3570.27828,0.00794
3568.21811,0.00820
3566.15794,0.00819
3564.09777,0.00805
3562.03759,0.00811
3559.97742,0.00840
3557.91725,0.00865
3555.85708,0.00874
3553.79690,0.00881
3551.73673,0.00894
3549.67656,0.00904
3547.61639,0.00902
3545.55622,0.00903
3543.49604,0.00931
3541.43587,0.00978
3539.37570,0.01024
3537.31553,0.01045
3535.25536,0.01046
3533.19518,0.01063
3531.13501,0.01094
3529.07484,0.01098
3527.01467,0.01086
3524.95450,0.01095
3522.89432,0.01116
3520.83415,0.01127
3518.77398,0.01128
3516.71381,0.01125
3514.65363,0.01123
3512.59346,0.01137
3510.53329,0.01177
3508.47312,0.01221
3506.41295,0.01249
3504.35277,0.01260
3502.29260,0.01259
3500.23243,0.01273
3498.17226,0.01314
3496.11209,0.01351
3494.05191,0.01360
3491.99174,0.01351
3489.93157,0.01340
3487.87140,0.01344
3485.81123,0.01366
3483.75105,0.01396
3481.69088,0.01422
3479.63071,0.01430
3477.57054,0.01423
3475.51036,0.01423
3473.45019,0.01433
3471.39002,0.01450
3469.32985,0.01472
3467.26968,0.01493
3465.20950,0.01505
3463.14933,0.01511
3461.08916,0.01527
3459.02899,0.01543
3456.96882,0.01551
3454.90864,0.01557
3452.84847,0.01560
3450.78830,0.01566
3448.72813,0.01583
3446.66795,0.01597
3444.60778,0.01590
3442.54761,0.01585
3440.48744,0.01592
3438.42727,0.01610
3436.36709,0.01644
3434.30692,0.01675
3432.24675,0.01680
3430.18658,0.01672
3428.12641,0.01677
3426.06623,0.01698
3424.00606,0.01722
3421.94589,0.01723
3419.88572,0.01710
3417.82555,0.01717
3415.76537,0.01744
3413.70520,0.01770
3411.64503,0.01783
3409.58486,0.01778
3407.52468,0.01758
3405.46451,0.01749
3403.40434,0.01764
3401.34417,0.01780
3399.28400,0.01775
3397.22382,0.01781
3395.16365,0.01781
3393.10348,0.01800
3391.04331,0.01830
3388.98314,0.01836
3386.92296,0.01843
3384.86279,0.01870
3382.80262,0.01887
3380.74245,0.01888
3378.68228,0.01887
3376.62210,0.01878
3374.56193,0.01865
3372.50176,0.01861
3370.44159,0.01866
3368.38141,0.01868
3366.32124,0.01887
3364.26107,0.01919
3362.20090,0.01932
3360.14073,0.01925
3358.08055,0.01922
3356.02038,0.01933
3353.96021,0.01947
3351.90004,0.01952
3349.83987,0.01957
3347.77969,0.01978
3345.71952,0.02002
3343.65935,0.02001
3341.59918,0.01976
3339.53900,0.01954
3337.47883,0.01942
3335.41866,0.01946
3333.35849,0.01960
3331.29832,0.01969
3329.23814,0.01983
3327.17797,0.02005
3325.11780,0.02015
3323.05763,0.02018
3320.99746,0.02028
3318.93728,0.02033
3316.87711,0.02017
3314.81694,0.01987
3312.75677,0.01965
3310.69660,0.01973
3308.63642,0.02007
3306.57625,0.02038
3304.51608,0.02059
3302.45591,0.02075
3300.39573,0.02071
3298.33556,0.02058
3296.27539,0.02053
3294.21522,0.02057
3292.15505,0.02062
3290.09487,0.02066
3288.03470,0.02076
3285.97453,0.02089
3283.91436,0.02091
3281.85419,0.02084
3279.79401,0.02070
3277.73384,0.02052
3275.67367,0.02047
3273.61350,0.02053
3271.55333,0.02053
3269.49315,0.02050
3267.43298,0.02064
3265.37281,0.02080
3263.31264,0.02080
3261.25246,0.02073
3259.19229,0.02076
3257.13212,0.02081
3255.07195,0.02079
3253.01178,0.02078
3250.95160,0.02082
3248.89143,0.02082
3246.83126,0.02081
3244.77109,0.02087
3242.71092,0.02093
3240.65074,0.02095
3238.59057,0.02091
3236.53040,0.02092
3234.47023,0.02096
3232.41005,0.02090
3230.34988,0.02078
3228.28971,0.02070
3226.22954,0.02065
3224.16937,0.02058
3222.10919,0.02051
3220.04902,0.02046
3217.98885,0.02037
3215.92868,0.02026
3213.86851,0.02020
3211.80833,0.02024
3209.74816,0.02039
3207.68799,0.02052
3205.62782,0.02049
3203.56765,0.02040
3201.50747,0.02028
3199.44730,0.02008
3197.38713,0.02005
3195.32696,0.02033
3193.26678,0.02059
3191.20661,0.02061
3189.14644,0.02053
3187.08627,0.02051
3185.02610,0.02047
3182.96592,0.02044
3180.90575,0.02047
3178.84558,0.02034
3176.78541,0.02006
3174.72524,0.02000
3172.66506,0.02013
3170.60489,0.02013
3168.54472,0.01996
3166.48455,0.01981
3164.42437,0.01978
3162.36420,0.01985
3160.30403,0.01984
3158.24386,0.01965
3156.18369,0.01951
3154.12351,0.01961
3152.06334,0.01971
3150.00317,0.01968
3147.94300,0.01963
3145.88283,0.01966
3143.82265,0.01972
3141.76248,0.01965
3139.70231,0.01947
3137.64214,0.01938
3135.58197,0.01938
3133.52179,0.01935
3131.46162,0.01928
3129.40145,0.01921
3127.34128,0.01916
3125.28110,0.01914
3123.22093,0.01909
3121.16076,0.01890
3119.10059,0.01867
3117.04042,0.01861
3114.98024,0.01862
3112.92007,0.01861
3110.85990,0.01860
3108.79973,0.01856
3106.73956,0.01855
3104.67938,0.01860
3102.61921,0.01852
3100.55904,0.01832
3098.49887,0.01816
3096.43870,0.01813
3094.37852,0.01821
3092.31835,0.01818
3090.25818,0.01790
3088.19801,0.01759
3086.13783,0.01755
3084.07766,0.01772
3082.01749,0.01787
3079.95732,0.01781
3077.89715,0.01765
3075.83697,0.01759
3073.77680,0.01758
3071.71663,0.01750
3069.65646,0.01730
3067.59629,0.01712
3065.53611,0.01706
3063.47594,0.01710
3061.41577,0.01715
3059.35560,0.01717
3057.29542,0.01712
3055.23525,0.01703
3053.17508,0.01698
3051.11491,0.01692
3049.05474,0.01671
3046.99456,0.01647
3044.93439,0.01637
3042.87422,0.01640
3040.81405,0.01646
3038.75388,0.01642
3036.69370,0.01620
3034.63353,0.01597
3032.57336,0.01586
3030.51319,0.01583
3028.45302,0.01582
3026.39284,0.01580
3024.33267,0.01569
3022.27250,0.01556
3020.21233,0.01551
3018.15215,0.01538
3016.09198,0.01515
3014.03181,0.01511
3011.97164,0.01525
3009.91147,0.01528
3007.85129,0.01508
3005.79112,0.01478
3003.73095,0.01459
3001.67078,0.01450
2999.61061,0.01447
2997.55043,0.01441
2995.49026,0.01440
2993.43009,0.01446
2991.36992,0.01457
2989.30975,0.01468
2987.24957,0.01478
2985.18940,0.01472
2983.12923,0.01460
2981.06906,0.01466
2979.00888,0.01473
2976.94871,0.01469
2974.88854,0.01465
2972.82837,0.01461
2970.76820,0.01450
2968.70802,0.01440
2966.64785,0.01438
2964.58768,0.01437
2962.52751,0.01426
2960.46734,0.01419
2958.40716,0.01418
2956.34699,0.01421
2954.28682,0.01437
2952.22665,0.01455
2950.16647,0.01448
2948.10630,0.01434
2946.04613,0.01432
2943.98596,0.01440
2941.92579,0.01445
2939.86561,0.01439
2937.80544,0.01428
2935.74527,0.01415
2933.68510,0.01402
2931.62493,0.01399
2929.56475,0.01398
2927.50458,0.01395
2925.44441,0.01394
2923.38424,0.01387
2921.32407,0.01376
2919.26389,0.01373
2917.20372,0.01373
2915.14355,0.01358
2913.08338,0.01331
2911.02320,0.01314
2908.96303,0.01313
2906.90286,0.01322
2904.84269,0.01336
2902.78252,0.01333
2900.72234,0.01307
2898.66217,0.01289
2896.60200,0.01297
2894.54183,0.01298
2892.48166,0.01267
2890.42148,0.01241
2888.36131,0.01245
2886.30114,0.01254
2884.24097,0.01258
2882.18080,0.01256
2880.12062,0.01242
2878.06045,0.01230
2876.00028,0.01230
2873.94011,0.01235
2871.87993,0.01233
2869.81976,0.01216
2867.75959,0.01192
2865.69942,0.01180
2863.63925,0.01181
2861.57907,0.01192
2859.51890,0.01191
2857.45873,0.01170
2855.39856,0.01148
2853.33839,0.01136
2851.27821,0.01123
2849.21804,0.01107
2847.15787,0.01102
2845.09770,0.01104
2843.03752,0.01096
2840.97735,0.01082
2838.91718,0.01072
2836.85701,0.01063
2834.79684,0.01058
2832.73666,0.01046
2830.67649,0.01029
2828.61632,0.01024
2826.55615,0.01033
2824.49598,0.01044
2822.43580,0.01045
2820.37563,0.01044
2818.31546,0.01039
2816.25529,0.01024
2814.19512,0.01016
2812.13494,0.01017
2810.07477,0.01002
2808.01460,0.00982
2805.95443,0.00976
2803.89425,0.00973
2801.83408,0.00962
2799.77391,0.00955
2797.71374,0.00950
2795.65357,0.00941
2793.59339,0.00937
2791.53322,0.00937
2789.47305,0.00935
2787.41288,0.00927
2785.35271,0.00919
2783.29253,0.00913
2781.23236,0.00902
2779.17219,0.00892
2777.11202,0.00881
2775.05184,0.00869
2772.99167,0.00867
2770.93150,0.00875
2768.87133,0.00885
2766.81116,0.00891
2764.75098,0.00886
2762.69081,0.00875
2760.63064,0.00863
2758.57047,0.00858
2756.51030,0.00866
2754.45012,0.00873
2752.38995,0.00861
2750.32978,0.00850
2748.26961,0.00849
2746.20944,0.00836
2744.14926,0.00820
2742.08909,0.00818
2740.02892,0.00819
2737.96875,0.00818
2735.90857,0.00816
2733.84840,0.00812
2731.78823,0.00804
2729.72806,0.00798
2727.66789,0.00789
2725.60771,0.00778
2723.54754,0.00763
2721.48737,0.00745
2719.42720,0.00742
2717.36703,0.00753
2715.30685,0.00762
2713.24668,0.00762
2711.18651,0.00758
2709.12634,0.00760
2707.06617,0.00761
2705.00599,0.00755
2702.94582,0.00740
2700.88565,0.00728
2698.82548,0.00722
2696.76530,0.00714
2694.70513,0.00714
2692.64496,0.00721
2690.58479,0.00724
2688.52462,0.00721
2686.46444,0.00720
2684.40427,0.00727
2682.34410,0.00730
2680.28393,0.00720
2678.22376,0.00698
2676.16358,0.00686
2674.10341,0.00686
2672.04324,0.00677
2669.98307,0.00663
2667.92289,0.00667
2665.86272,0.00679
2663.80255,0.00677
2661.74238,0.00671
2659.68221,0.00675
2657.62203,0.00687
2655.56186,0.00701
2653.50169,0.00699
2651.44152,0.00672
2649.38135,0.00649
2647.32117,0.00645
2645.26100,0.00651
2643.20083,0.00653
2641.14066,0.00651
2639.08049,0.00649
2637.02031,0.00647
2634.96014,0.00638
2632.89997,0.00634
2630.83980,0.00643
2628.77962,0.00641
2626.71945,0.00621
2624.65928,0.00609
2622.59911,0.00610
2620.53894,0.00600
2618.47876,0.00579
2616.41859,0.00581
2614.35842,0.00599
2612.29825,0.00601
2610.23808,0.00601
2608.17790,0.00610
2606.11773,0.00612
2604.05756,0.00593
2601.99739,0.00566
2599.93722,0.00557
2597.87704,0.00565
2595.81687,0.00582
2593.75670,0.00593
2591.69653,0.00586
2589.63635,0.00577
2587.57618,0.00567
2585.51601,0.00543
2583.45584,0.00525
2581.39567,0.00538
2579.33549,0.00567
2577.27532,0.00594
2575.21515,0.00592
2573.15498,0.00547
2571.09481,0.00510
2569.03463,0.00518
2566.97446,0.00527
2564.91429,0.00519
2562.85412,0.00525
2560.79394,0.00548
2558.73377,0.00561
2556.67360,0.00564
2554.61343,0.00566
2552.55326,0.00561
2550.49308,0.00547
2548.43291,0.00539
2546.37274,0.00543
2544.31257,0.00539
2542.25240,0.00516
2540.19222,0.00501
2538.13205,0.00521
2536.07188,0.00556
2534.01171,0.00552
2531.95154,0.00531
2529.89136,0.00530
2527.83119,0.00531
2525.77102,0.00537
2523.71085,0.00558
2521.65067,0.00565
2519.59050,0.00550
2517.53033,0.00538
2515.47016,0.00543
2513.40999,0.00556
2511.34981,0.00558
2509.28964,0.00556
2507.22947,0.00558
2505.16930,0.00540
2503.10913,0.00487
2501.04895,0.00458
2498.98878,0.00491
2496.92861,0.00536
2494.86844,0.00544
2492.80827,0.00520
2490.74809,0.00495
2488.68792,0.00498
2486.62775,0.00526
2484.56758,0.00547
2482.50740,0.00556
2480.44723,0.00562
2478.38706,0.00552
2476.32689,0.00548
2474.26672,0.00561
2472.20654,0.00559
2470.14637,0.00554
2468.08620,0.00574
2466.02603,0.00594
2463.96586,0.00601
2461.90568,0.00606
2459.84551,0.00608
2457.78534,0.00605
2455.72517,0.00593
2453.66499,0.00572
2451.60482,0.00552
2449.54465,0.00536
2447.48448,0.00512
2445.42431,0.00501
2443.36413,0.00533
2441.30396,0.00573
2439.24379,0.00563
2437.18362,0.00527
2435.12345,0.00525
2433.06327,0.00558
2431.00310,0.00570
2428.94293,0.00552
2426.88276,0.00539
2424.82259,0.00533
2422.76241,0.00521
2420.70224,0.00517
2418.64207,0.00529
2416.58190,0.00545
2414.52172,0.00552
2412.46155,0.00550
2410.40138,0.00546
2408.34121,0.00537
2406.28104,0.00518
2404.22086,0.00509
2402.16069,0.00516
2400.10052,0.00534
2398.04035,0.00488
2395.98018,0.00483
2393.92000,0.00514
2391.85983,0.00549
2389.79966,0.00576
2387.73949,0.00600
2385.67931,0.00613
2383.61914,0.00612
2381.55897,0.00601
2379.49880,0.00591
2377.43863,0.00589
2375.37845,0.00604
2373.31828,0.00596
2371.25811,0.00585
2369.19794,0.00646
2367.13777,0.00720
2365.07759,0.00757
2363.01742,0.00881
2360.95725,0.00931
2358.89708,0.00927
2356.83691,0.00877
2354.77673,0.00846
2352.71656,0.00791
2350.65639,0.00628
2348.59622,0.00593
2346.53604,0.00891
2344.47587,0.00964
2342.41570,0.00923
2340.35553,0.00886
2338.29536,0.00852
2336.23518,0.00904
2334.17501,0.00988
2332.11484,0.01008
2330.05467,0.00927
2327.99450,0.00877
2325.93432,0.00856
2323.87415,0.00865
2321.81398,0.00805
2319.75381,0.00751
2317.69364,0.00663
2315.63346,0.00617
2313.57329,0.00612
2311.51312,0.00621
2309.45295,0.00638
2307.39277,0.00626
2305.33260,0.00587
2303.27243,0.00555
2301.21226,0.00555
2299.15209,0.00572
2297.09191,0.00610
2295.03174,0.00651
2292.97157,0.00661
2290.91140,0.00656
2288.85123,0.00650
2286.79105,0.00631
2284.73088,0.00604
2282.67071,0.00575
2280.61054,0.00540
2278.55036,0.00523
2276.49019,0.00540
2274.43002,0.00552
2272.36985,0.00549
2270.30968,0.00560
2268.24950,0.00587
2266.18933,0.00599
2264.12916,0.00596
2262.06899,0.00584
2260.00882,0.00548
2257.94864,0.00495
2255.88847,0.00475
2253.82830,0.00492
2251.76813,0.00512
2249.70796,0.00515
2247.64778,0.00543
2245.58761,0.00556
2243.52744,0.00512
2241.46727,0.00459
2239.40709,0.00436
2237.34692,0.00443
2235.28675,0.00496
2233.22658,0.00517
2231.16641,0.00477
2229.10623,0.00484
2227.04606,0.00519
2224.98589,0.00501
2222.92572,0.00471
2220.86555,0.00458
2218.80537,0.00454
2216.74520,0.00478
2214.68503,0.00501
2212.62486,0.00449
2210.56469,0.00365
2208.50451,0.00360
2206.44434,0.00414
2204.38417,0.00457
2202.32400,0.00485
2200.26382,0.00509
2198.20365,0.00529
2196.14348,0.00498
2194.08331,0.00454
2192.02314,0.00449
2189.96296,0.00421
2187.90279,0.00366
2185.84262,0.00368
2183.78245,0.00408
2181.72228,0.00388
2179.66210,0.00364
2177.60193,0.00399
2175.54176,0.00482
2173.48159,0.00584
2171.42141,0.00600
2169.36124,0.00505
2167.30107,0.00394
2165.24090,0.00361
2163.18073,0.00369
2161.12055,0.00257
2159.06038,0.00066
2157.00021,0.00026
2154.94004,0.00146
2152.87987,0.00292
2150.81969,0.00324
2148.75952,0.00278
2146.69935,0.00320
2144.63918,0.00392
2142.57901,0.00392
2140.51883,0.00376
2138.45866,0.00340
2136.39849,0.00256
2134.33832,0.00199
2132.27814,0.00217
2130.21797,0.00263
2128.15780,0.00285
2126.09763,0.00308
2124.03746,0.00331
2121.97728,0.00324
2119.91711,0.00331
2117.85694,0.00348
2115.79677,0.00329
2113.73660,0.00339
2111.67642,0.00389
2109.61625,0.00395
2107.55608,0.00365
2105.49591,0.00343
2103.43573,0.00331
2101.37556,0.00339
2099.31539,0.00388
2097.25522,0.00406
2095.19505,0.00398
2093.13487,0.00376
2091.07470,0.00359
2089.01453,0.00367
2086.95436,0.00374
2084.89419,0.00332
2082.83401,0.00266
2080.77384,0.00265
2078.71367,0.00335
2076.65350,0.00372
2074.59333,0.00342
2072.53315,0.00312
2070.47298,0.00321
2068.41281,0.00345
2066.35264,0.00353
2064.29246,0.00344
2062.23229,0.00337
2060.17212,0.00335
2058.11195,0.00330
2056.05178,0.00325
2053.99160,0.00348
2051.93143,0.00439
2049.87126,0.00507
2047.81109,0.00422
2045.75092,0.00282
2043.69074,0.00247
2041.63057,0.00250
2039.57040,0.00206
2037.51023,0.00228
2035.45006,0.00367
2033.38988,0.00455
2031.32971,0.00417
2029.26954,0.00366
2027.20937,0.00315
2025.14919,0.00247
2023.08902,0.00205
2021.02885,0.00218
2018.96868,0.00274
2016.90851,0.00291
2014.84833,0.00260
2012.78816,0.00249
2010.72799,0.00221
2008.66782,0.00160
2006.60765,0.00160
2004.54747,0.00218
2002.48730,0.00227
2000.42713,0.00159
1998.36696,0.00106
1996.30678,0.00134
1994.24661,0.00180
1992.18644,0.00205
1990.12627,0.00254
1988.06610,0.00302
1986.00592,0.00303
1983.94575,0.00282
1981.88558,0.00311
1979.82541,0.00381
1977.76524,0.00400
1975.70506,0.00395
1973.64489,0.00391
1971.58472,0.00301
1969.52455,0.00174
1967.46438,0.00118
1965.40420,0.00109
1963.34403,0.00107
1961.28386,0.00111
1959.22369,0.00092
1957.16351,0.00092
1955.10334,0.00155
1953.04317,0.00205
1950.98300,0.00168
1948.92283,0.00081
1946.86265,0.00029
1944.80248,0.00049
1942.74231,0.00100
1940.68214,0.00127
1938.62197,0.00140
1936.56179,0.00158
1934.50162,0.00176
1932.44145,0.00182
1930.38128,0.00171
1928.32111,0.00159
1926.26093,0.00163
1924.20076,0.00178
1922.14059,0.00176
1920.08042,0.00129
1918.02024,0.00075
1915.96007,0.00077
1913.89990,0.00120
1911.83973,0.00156
1909.77956,0.00148
1907.71938,0.00113
1905.65921,0.00096
1903.59904,0.00103
1901.53887,0.00116
1899.47870,0.00118
1897.41852,0.00117
1895.35835,0.00113
1893.29818,0.00100
1891.23801,0.00098
1889.17783,0.00120
1887.11766,0.00152
1885.05749,0.00169
1882.99732,0.00154
1880.93715,0.00132
1878.87697,0.00128
1876.81680,0.00131
1874.75663,0.00128
1872.69646,0.00123
1870.63629,0.00119
1868.57611,0.00114
1866.51594,0.00111
1864.45577,0.00114
1862.39560,0.00116
1860.33543,0.00107
1858.27525,0.00085
1856.21508,0.00076
1854.15491,0.00092
1852.09474,0.00108
1850.03456,0.00108
1847.97439,0.00109
1845.91422,0.00112
1843.85405,0.00099
1841.79388,0.00077
1839.73370,0.00069
1837.67353,0.00079
1835.61336,0.00093
1833.55319,0.00113
1831.49302,0.00141
1829.43284,0.00153
1827.37267,0.00140
1825.31250,0.00131
1823.25233,0.00139
1821.19216,0.00134
1819.13198,0.00104
1817.07181,0.00082
1815.01164,0.00089
1812.95147,0.00098
1810.89129,0.00089
1808.83112,0.00078
1806.77095,0.00080
1804.71078,0.00084
1802.65061,0.00084
1800.59043,0.00094
1798.53026,0.00109
1796.47009,0.00112
1794.40992,0.00099
1792.34975,0.00074
1790.28957,0.00064
1788.22940,0.00081
1786.16923,0.00097
1784.10906,0.00104
1782.04888,0.00110
1779.98871,0.00111
1777.92854,0.00105
1775.86837,0.00111
1773.80820,0.00133
1771.74802,0.00134
1769.68785,0.00105
1767.62768,0.00089
1765.56751,0.00098
1763.50734,0.00114
1761.44716,0.00126
1759.38699,0.00135
1757.32682,0.00150
1755.26665,0.00171
1753.20648,0.00194
1751.14630,0.00207
1749.08613,0.00202
1747.02596,0.00202
1744.96579,0.00223
1742.90561,0.00241
1740.84544,0.00241
1738.78527,0.00239
1736.72510,0.00246
1734.66493,0.00253
1732.60475,0.00253
1730.54458,0.00255
1728.48441,0.00254
1726.42424,0.00255
1724.36407,0.00253
1722.30389,0.00242
1720.24372,0.00244
1718.18355,0.00273
1716.12338,0.00286
1714.06320,0.00269
1712.00303,0.00249
1709.94286,0.00251
1707.88269,0.00265
1705.82252,0.00268
1703.76234,0.00266
1701.70217,0.00286
1699.64200,0.00317
1697.58183,0.00345
1695.52166,0.00371
1693.46148,0.00397
1691.40131,0.00424
1689.34114,0.00461
1687.28097,0.00503
1685.22080,0.00555
1683.16062,0.00601
1681.10045,0.00629
1679.04028,0.00652
1676.98011,0.00692
1674.91993,0.00756
1672.85976,0.00823
1670.79959,0.00886
1668.73942,0.00932
1666.67925,0.00940
1664.61907,0.00941
1662.55890,0.00955
1660.49873,0.00967
1658.43856,0.00969
1656.37839,0.00975
1654.31821,0.00993
1652.25804,0.01014
1650.19787,0.01029
1648.13770,0.01031
1646.07753,0.01023
1644.01735,0.01003
1641.95718,0.00985
1639.89701,0.00979
1637.83684,0.00990
1635.77666,0.01004
1633.71649,0.00990
1631.65632,0.00953
1629.59615,0.00920
1627.53598,0.00907
1625.47580,0.00902
1623.41563,0.00893
1621.35546,0.00872
1619.29529,0.00852
1617.23512,0.00847
1615.17494,0.00839
1613.11477,0.00825
1611.05460,0.00825
1608.99443,0.00839
1606.93425,0.00845
1604.87408,0.00836
1602.81391,0.00814
1600.75374,0.00789
1598.69357,0.00775
1596.63339,0.00770
1594.57322,0.00760
1592.51305,0.00741
1590.45288,0.00721
1588.39271,0.00705
1586.33253,0.00686
1584.27236,0.00660
1582.21219,0.00639
1580.15202,0.00635
1578.09185,0.00636
1576.03167,0.00618
1573.97150,0.00581
1571.91133,0.00553
1569.85116,0.00544
1567.79098,0.00532
1565.73081,0.00513
1563.67064,0.00505
1561.61047,0.00530
1559.55030,0.00553
1557.49012,0.00505
1555.42995,0.00440
1553.36978,0.00414
1551.30961,0.00417
1549.24944,0.00415
1547.18926,0.00402
1545.12909,0.00404
1543.06892,0.00424
1541.00875,0.00427
1538.94858,0.00387
1536.88840,0.00348
1534.82823,0.00340
1532.76806,0.00344
1530.70789,0.00336
1528.64771,0.00321
1526.58754,0.00305
1524.52737,0.00295
1522.46720,0.00284
1520.40703,0.00258
1518.34685,0.00243
1516.28668,0.00245
1514.22651,0.00237
1512.16634,0.00219
1510.10617,0.00209
1508.04599,0.00202
1505.98582,0.00180
1503.92565,0.00166
1501.86548,0.00165
1499.80530,0.00178
1497.74513,0.00185
1495.68496,0.00172
1493.62479,0.00162
1491.56462,0.00176
1489.50444,0.00197
1487.44427,0.00202
1485.38410,0.00184
1483.32393,0.00167
1481.26376,0.00163
1479.20358,0.00167
1477.14341,0.00179
1475.08324,0.00199
1473.02307,0.00214
1470.96290,0.00206
1468.90272,0.00195
1466.84255,0.00212
1464.78238,0.00244
1462.72221,0.00260
1460.66203,0.00267
1458.60186,0.00275
1456.54169,0.00263
1454.48152,0.00244
1452.42135,0.00241
1450.36117,0.00256
1448.30100,0.00268
1446.24083,0.00264
1444.18066,0.00256
1442.12049,0.00260
1440.06031,0.00272
1438.00014,0.00278
1435.93997,0.00271
1433.87980,0.00264
1431.81963,0.00273
1429.75945,0.00293
1427.69928,0.00304
1425.63911,0.00316
1423.57894,0.00335
1421.51876,0.00351
1419.45859,0.00356
1417.39842,0.00354
1415.33825,0.00354
1413.27808,0.00359
1411.21790,0.00366
1409.15773,0.00371
1407.09756,0.00369
1405.03739,0.00358
1402.97722,0.00342
1400.91704,0.00333
1398.85687,0.00330
1396.79670,0.00326
1394.73653,0.00325
1392.67635,0.00316
1390.61618,0.00298
1388.55601,0.00290
1386.49584,0.00296
1384.43567,0.00303
1382.37549,0.00305
1380.31532,0.00306
1378.25515,0.00311
1376.19498,0.00316
1374.13481,0.00309
1372.07463,0.00295
1370.01446,0.00284
1367.95429,0.00277
1365.89412,0.00271
1363.83395,0.00266
1361.77377,0.00260
1359.71360,0.00258
1357.65343,0.00260
1355.59326,0.00262
1353.53308,0.00259
1351.47291,0.00258
1349.41274,0.00258
1347.35257,0.00251
1345.29240,0.00237
1343.23222,0.00227
1341.17205,0.00224
1339.11188,0.00221
1337.05171,0.00218
1334.99154,0.00222
1332.93136,0.00226
1330.87119,0.00222
1328.81102,0.00217
1326.75085,0.00215
1324.69067,0.00216
1322.63050,0.00226
1320.57033,0.00239
1318.51016,0.00241
1316.44999,0.00238
1314.38981,0.00236
1312.32964,0.00240
1310.26947,0.00252
1308.20930,0.00258
1306.14913,0.00254
1304.08895,0.00250
1302.02878,0.00250
1299.96861,0.00257
1297.90844,0.00269
1295.84827,0.00283
1293.78809,0.00286
1291.72792,0.00282
1289.66775,0.00285
1287.60758,0.00292
1285.54740,0.00287
1283.48723,0.00274
1281.42706,0.00270
1279.36689,0.00277
1277.30672,0.00289
1275.24654,0.00303
1273.18637,0.00310
1271.12620,0.00299
1269.06603,0.00285
1267.00586,0.00276
1264.94568,0.00276
1262.88551,0.00288
1260.82534,0.00304
1258.76517,0.00312
1256.70500,0.00316
1254.64482,0.00318
1252.58465,0.00322
1250.52448,0.00325
1248.46431,0.00319
1246.40413,0.00307
1244.34396,0.00297
1242.28379,0.00292
1240.22362,0.00294
1238.16345,0.00292
1236.10327,0.00276
1234.04310,0.00256
1231.98293,0.00245
1229.92276,0.00237
1227.86259,0.00226
1225.80241,0.00212
1223.74224,0.00194
1221.68207,0.00179
1219.62190,0.00166
1217.56172,0.00145
1215.50155,0.00130
1213.44138,0.00120
1211.38121,0.00102
1209.32104,0.00080
1207.26086,0.00073
1205.20069,0.00071
1203.14052,0.00061
1201.08035,0.00048
1199.02018,0.00040
1196.96000,0.00039
1194.89983,0.00041
1192.83966,0.00040
1190.77949,0.00038
1188.71932,0.00041
1186.65914,0.00052
1184.59897,0.00066
1182.53880,0.00066
1180.47863,0.00067
1178.41845,0.00083
1176.35828,0.00111
1174.29811,0.00151
1172.23794,0.00182
1170.17777,0.00194
1168.11759,0.00206
1166.05742,0.00229
1163.99725,0.00264
1161.93708,0.00302
1159.87691,0.00337
1157.81673,0.00370
1155.75656,0.00407
1153.69639,0.00452
1151.63622,0.00499
1149.57605,0.00544
1147.51587,0.00594
1145.45570,0.00645
1143.39553,0.00698
1141.33536,0.00764
1139.27518,0.00821
1137.21501,0.00864
1135.15484,0.00920
1133.09467,0.00996
1131.03450,0.01076
1128.97432,0.01148
1126.91415,0.01222
1124.85398,0.01308
1122.79381,0.01396
1120.73364,0.01483
1118.67346,0.01572
1116.61329,0.01656
1114.55312,0.01736
1112.49295,0.01820
1110.43277,0.01898
1108.37260,0.01958
1106.31243,0.02018
1104.25226,0.02090
1102.19209,0.02165
1100.13191,0.02230
1098.07174,0.02283
1096.01157,0.02328
1093.95140,0.02370
1091.89123,0.02413
1089.83105,0.02468
1087.77088,0.02524
1085.71071,0.02559
1083.65054,0.02582
1081.59037,0.02618
1079.53019,0.02671
1077.47002,0.02712
1075.40985,0.02739
1073.34968,0.02767
1071.28950,0.02792
1069.22933,0.02803
1067.16916,0.02803
1065.10899,0.02802
1063.04882,0.02796
1060.98864,0.02773
1058.92847,0.02734
1056.86830,0.02704
1054.80813,0.02688
1052.74796,0.02638
1050.68778,0.02558
1048.62761,0.02478
1046.56744,0.02394
1044.50727,0.02303
1042.44710,0.02207
1040.38692,0.02112
1038.32675,0.02022
1036.26658,0.01939
1034.20641,0.01851
1032.14623,0.01740
1030.08606,0.01625
1028.02589,0.01536
1025.96572,0.01467
1023.90555,0.01405
1021.84537,0.01350
1019.78520,0.01306
1017.72503,0.01274
1015.66486,0.01246
1013.60469,0.01219
1011.54451,0.01202
1009.48434,0.01199
1007.42417,0.01219
1005.36400,0.01259
1003.30382,0.01299
1001.24365,0.01339
999.18348,0.01392
997.12331,0.01454
995.06314,0.01512
993.00296,0.01569
990.94279,0.01627
988.88262,0.01680
986.82245,0.01717
984.76228,0.01745
982.70210,0.01771
980.64193,0.01782
978.58176,0.01788
976.52159,0.01794
974.46142,0.01777
972.40124,0.01732
970.34107,0.01681
968.28090,0.01632
966.22073,0.01576
964.16055,0.01513
962.10038,0.01455
960.04021,0.01394
957.98004,0.01319
955.91987,0.01241
953.85969,0.01169
951.79952,0.01101
949.73935,0.01041
947.67918,0.00983
945.61901,0.00913
943.55883,0.00839
941.49866,0.00793
939.43849,0.00768
937.37832,0.00726
935.31814,0.00668
933.25797,0.00604
931.19780,0.00549
929.13763,0.00534
927.07746,0.00552
925.01728,0.00545
922.95711,0.00494
920.89694,0.00448
918.83677,0.00442
916.77660,0.00448
914.71642,0.00434
912.65625,0.00416
910.59608,0.00404
908.53591,0.00402
906.47574,0.00414
904.41556,0.00410
902.35539,0.00393
900.29522,0.00385
898.23505,0.00387
896.17487,0.00406
894.11470,0.00437
892.05453,0.00463
889.99436,0.00482
887.93419,0.00493
885.87401,0.00508
883.81384,0.00549
881.75367,0.00603
879.69350,0.00639
877.63333,0.00661
875.57315,0.00688
873.51298,0.00732
871.45281,0.00781
869.39264,0.00811
867.33247,0.00840
865.27229,0.00882
863.21212,0.00896
861.15195,0.00888
859.09178,0.00886
857.03160,0.00876
854.97143,0.00858
852.91126,0.00850
850.85109,0.00846
848.79092,0.00842
846.73074,0.00835
844.67057,0.00807
842.61040,0.00779
840.55023,0.00766
838.49006,0.00747
836.42988,0.00708
834.36971,0.00666
832.30954,0.00645
830.24937,0.00635
828.18919,0.00622
826.12902,0.00611
824.06885,0.00585
822.00868,0.00544
819.94851,0.00521
817.88833,0.00502
815.82816,0.00462
813.76799,0.00438
811.70782,0.00451
809.64765,0.00464
807.58747,0.00460
805.52730,0.00442
803.46713,0.00418
801.40696,0.00407
799.34679,0.00404
797.28661,0.00389
795.22644,0.00378
793.16627,0.00384
791.10610,0.00382
789.04592,0.00342
786.98575,0.00299
784.92558,0.00295
782.86541,0.00305
780.80524,0.00303
778.74506,0.00303
776.68489,0.00309
774.62472,0.00310
772.56455,0.00322
770.50438,0.00360
768.44420,0.00389
766.38403,0.00373
764.32386,0.00331
762.26369,0.00295
760.20352,0.00285
758.14334,0.00275
756.08317,0.00255
754.02300,0.00269
751.96283,0.00289
749.90265,0.00272
747.84248,0.00246
745.78231,0.00237
743.72214,0.00246
741.66197,0.00266
739.60179,0.00280
737.54162,0.00293
735.48145,0.00315
733.42128,0.00324
731.36111,0.00329
729.30093,0.00346
727.24076,0.00344
725.18059,0.00342
723.12042,0.00351
721.06024,0.00311
719.00007,0.00239
716.93990,0.00237
714.87973,0.00256
712.81956,0.00258
710.75938,0.00281
708.69921,0.00322
706.63904,0.00341
704.57887,0.00326
702.51870,0.00300
700.45852,0.00278
698.39835,0.00268
696.33818,0.00292
694.27801,0.00348
692.21784,0.00372
690.15766,0.00323
688.09749,0.00275
686.03732,0.00314
683.97715,0.00399
681.91697,0.00448
679.85680,0.00480
677.79663,0.00521
675.73646,0.00502
673.67629,0.00326
671.61611,0.00047
669.55594,0.00249
667.49577,0.00721
665.43560,0.00322
663.37543,0.00371
661.31525,0.00353
659.25508,0.00243
657.19491,0.00261
655.13474,0.00340
653.07457,0.00363
651.01439,0.00345
648.95422,0.00323
646.89405,0.00298
644.83388,0.00279
642.77370,0.00222
640.71353,0.00157
638.65336,0.00113
636.59319,0.00078
634.53302,0.00069
632.47284,0.00098
630.41267,0.00165
628.35250,0.00232
626.29233,0.00181
624.23216,0.00039
622.17198,0.00000
620.11181,0.00068
618.05164,0.00115
615.99147,0.00150
613.93129,0.00202
611.87112,0.00190
609.81095,0.00136
607.75078,0.00116
605.69061,0.00092
603.63043,0.00030
601.57026,-0.00011
599.51009,0.00000
