3996.73391,0.00018
3994.67373,0.00015
3992.61356,0.00029
3990.55339,0.00045
3988.49322,0.00038
3986.43305,0.00018
3984.37287,0.00024
3982.31270,0.00059
3980.25253,0.00079
3978.19236,0.00069
3976.13219,0.00052
3974.07201,0.00038
3972.01184,0.00021
3969.95167,0.00004
3967.89150,0.00000
3965.83133,0.00015
3963.77115,0.00040
3961.71098,0.00056
3959.65081,0.00057
3957.59064,0.00056
3955.53046,0.00053
3953.47029,0.00046
3951.41012,0.00056
3949.34995,0.00090
3947.28978,0.00107
3945.22960,0.00098
3943.16943,0.00090
3941.10926,0.00082
3939.04909,0.00059
3936.98892,0.00045
3934.92874,0.00076
3932.86857,0.00119
3930.80840,0.00107
3928.74823,0.00066
3926.68805,0.00053
3924.62788,0.00062
3922.56771,0.00080
3920.50754,0.00112
3918.44737,0.00144
3916.38719,0.00136
3914.32702,0.00086
3912.26685,0.00041
3910.20668,0.00033
3908.14651,0.00064
3906.08633,0.00124
3904.02616,0.00185
3901.96599,0.00208
3899.90582,0.00177
3897.84565,0.00142
3895.78547,0.00145
3893.72530,0.00148
3891.66513,0.00113
3889.60496,0.00083
3887.54478,0.00108
3885.48461,0.00145
3883.42444,0.00149
3881.36427,0.00136
3879.30410,0.00110
3877.24392,0.00080
3875.18375,0.00072
3873.12358,0.00097
3871.06341,0.00134
3869.00324,0.00148
3866.94306,0.00152
3864.88289,0.00149
3862.82272,0.00116
3860.76255,0.00082
3858.70237,0.00098
3856.64220,0.00173
3854.58203,0.00218
3852.52186,0.00149
3850.46169,0.00069
3848.40151,0.00069
3846.34134,0.00100
3844.28117,0.00118
3842.22100,0.00140
3840.16083,0.00174
3838.10065,0.00179
3836.04048,0.00148
3833.98031,0.00121
3831.92014,0.00101
3829.85997,0.00080
3827.79979,0.00075
3825.73962,0.00088
3823.67945,0.00107
3821.61928,0.00115
3819.55910,0.00109
3817.49893,0.00112
3815.43876,0.00121
3813.37859,0.00121
3811.31842,0.00131
3809.25824,0.00147
3807.19807,0.00133
3805.13790,0.00077
3803.07773,0.00021
3801.01756,0.00000
3798.95738,0.00017
3796.89721,0.00039
3794.83704,0.00048
3792.77687,0.00054
3790.71670,0.00064
3788.65652,0.00068
3786.59635,0.00065
3784.53618,0.00057
3782.47601,0.00053
3780.41583,0.00052
3778.35566,0.00043
3776.29549,0.00035
3774.23532,0.00047
3772.17515,0.00070
3770.11497,0.00086
3768.05480,0.00091
3765.99463,0.00083
3763.93446,0.00068
3761.87429,0.00076
3759.81411,0.00117
3757.75394,0.00157
3755.69377,0.00176
3753.63360,0.00199
3751.57342,0.00229
3749.51325,0.00249
3747.45308,0.00278
3745.39291,0.00309
3743.33274,0.00284
3741.27256,0.00240
3739.21239,0.00260
3737.15222,0.00323
3735.09205,0.00334
3733.03188,0.00261
3730.97170,0.00214
3728.91153,0.00238
3726.85136,0.00269
3724.79119,0.00269
3722.73102,0.00256
3720.67084,0.00226
3718.61067,0.00216
3716.55050,0.00236
3714.49033,0.00245
3712.43015,0.00210
3710.36998,0.00145
3708.30981,0.00115
3706.24964,0.00117
3704.18947,0.00116
3702.12929,0.00097
3700.06912,0.00096
3698.00895,0.00133
3695.94878,0.00169
3693.88861,0.00182
3691.82843,0.00177
3689.76826,0.00171
3687.70809,0.00147
3685.64792,0.00115
3683.58775,0.00102
3681.52757,0.00120
3679.46740,0.00157
3677.40723,0.00196
3675.34706,0.00220
3673.28688,0.00231
3671.22671,0.00214
3669.16654,0.00174
3667.10637,0.00178
3665.04620,0.00230
3662.98602,0.00268
3660.92585,0.00277
3658.86568,0.00286
3656.80551,0.00287
3654.74534,0.00279
3652.68516,0.00303
3650.62499,0.00352
3648.56482,0.00366
3646.50465,0.00345
3644.44447,0.00354
3642.38430,0.00380
3640.32413,0.00398
3638.26396,0.00421
3636.20379,0.00448
3634.14361,0.00468
3632.08344,0.00501
3630.02327,0.00555
3627.96310,0.00581
3625.90293,0.00582
3623.84275,0.00613
3621.78258,0.00668
3619.72241,0.00699
3617.66224,0.00697
3615.60207,0.00708
3613.54189,0.00729
3611.48172,0.00752
3609.42155,0.00771
3607.36138,0.00774
3605.30120,0.00764
3603.24103,0.00766
3601.18086,0.00813
3599.12069,0.00891
3597.06052,0.00966
3595.00034,0.00999
3592.94017,0.00990
3590.88000,0.00973
3588.81983,0.00988
3586.75966,0.01019
3584.69948,0.01040
3582.63931,0.01044
3580.57914,0.01027
3578.51897,0.01011
3576.45879,0.01029
3574.39862,0.01072
3572.33845,0.01121
3570.27828,0.01178
3568.21811,0.01233
3566.15793,0.01247
3564.09776,0.01224
3562.03759,0.01231
3559.97742,0.01281
3557.91725,0.01326
3555.85707,0.01360
3553.79690,0.01405
3551.73673,0.01438
3549.67656,0.01450
3547.61639,0.01470
3545.55621,0.01493
3543.49604,0.01485
3541.43587,0.01472
3539.37570,0.01492
3537.31552,0.01532
3535.25535,0.01561
3533.19518,0.01576
3531.13501,0.01606
3529.07484,0.01666
3527.01466,0.01724
3524.95449,0.01731
3522.89432,0.01701
3520.83415,0.01693
3518.77398,0.01719
3516.71380,0.01733
3514.65363,0.01722
3512.59346,0.01718
3510.53329,0.01744
3508.47312,0.01785
3506.41294,0.01829
3504.35277,0.01876
3502.29260,0.01903
3500.23243,0.01906
3498.17225,0.01917
3496.11208,0.01938
3494.05191,0.01948
3491.99174,0.01962
3489.93157,0.01998
3487.87139,0.02030
3485.81122,0.02036
3483.75105,0.02034
3481.69088,0.02049
3479.63071,0.02070
3477.57053,0.02082
3475.51036,0.02097
3473.45019,0.02117
3471.39002,0.02147
3469.32984,0.02172
3467.26967,0.02173
3465.20950,0.02184
3463.14933,0.02230
3461.08916,0.02281
3459.02898,0.02319
3456.96881,0.02337
3454.90864,0.02342
3452.84847,0.02355
3450.78830,0.02372
3448.72812,0.02378
3446.66795,0.02380
3444.60778,0.02389
3442.54761,0.02403
3440.48744,0.02417
3438.42726,0.02417
3436.36709,0.02410
3434.30692,0.02425
3432.24675,0.02461
3430.18657,0.02495
3428.12640,0.02503
3426.06623,0.02479
3424.00606,0.02466
3421.94589,0.02494
3419.88571,0.02536
3417.82554,0.02559
3415.76537,0.02569
3413.70520,0.02582
3411.64503,0.02602
3409.58485,0.02613
3407.52468,0.02603
3405.46451,0.02604
3403.40434,0.02627
3401.34416,0.02651
3399.28399,0.02686
3397.22382,0.02709
3395.16365,0.02742
3393.10348,0.02773
3391.04330,0.02789
3388.98313,0.02783
3386.92296,0.02763
3384.86279,0.02757
3382.80262,0.02765
3380.74244,0.02764
3378.68227,0.02755
3376.62210,0.02755
3374.56193,0.02773
3372.50176,0.02797
3370.44158,0.02817
3368.38141,0.02832
3366.32124,0.02844
3364.26107,0.02855
3362.20089,0.02860
3360.14072,0.02856
3358.08055,0.02854
3356.02038,0.02861
3353.96021,0.02861
3351.90003,0.02849
3349.83986,0.02842
3347.77969,0.02845
3345.71952,0.02846
3343.65935,0.02841
3341.59917,0.02853
3339.53900,0.02878
3337.47883,0.02881
3335.41866,0.02860
3333.35849,0.02843
3331.29831,0.02845
3329.23814,0.02851
3327.17797,0.02858
3325.11780,0.02869
3323.05762,0.02876
3320.99745,0.02880
3318.93728,0.02888
3316.87711,0.02899
3314.81694,0.02914
3312.75676,0.02932
3310.69659,0.02944
3308.63642,0.02930
3306.57625,0.02899
3304.51608,0.02888
3302.45590,0.02899
3300.39573,0.02911
3298.33556,0.02912
3296.27539,0.02914
3294.21521,0.02936
3292.15504,0.02969
3290.09487,0.02977
3288.03470,0.02954
3285.97453,0.02939
3283.91435,0.02943
3281.85418,0.02948
3279.79401,0.02950
3277.73384,0.02938
3275.67367,0.02919
3273.61349,0.02918
3271.55332,0.02942
3269.49315,0.02968
3267.43298,0.02977
3265.37281,0.02977
3263.31263,0.02975
3261.25246,0.02965
3259.19229,0.02946
3257.13212,0.02942
3255.07194,0.02945
3253.01177,0.02934
3250.95160,0.02921
3248.89143,0.02935
3246.83126,0.02969
3244.77108,0.02980
3242.71091,0.02958
3240.65074,0.02931
3238.59057,0.02907
3236.53040,0.02881
3234.47022,0.02873
3232.41005,0.02892
3230.34988,0.02907
3228.28971,0.02920
3226.22954,0.02936
3224.16936,0.02932
3222.10919,0.02915
3220.04902,0.02913
3217.98885,0.02913
3215.92867,0.02899
3213.86850,0.02881
3211.80833,0.02870
3209.74816,0.02864
3207.68799,0.02855
3205.62781,0.02846
3203.56764,0.02854
3201.50747,0.02884
3199.44730,0.02904
3197.38713,0.02886
3195.32695,0.02855
3193.26678,0.02832
3191.20661,0.02801
3189.14644,0.02779
3187.08626,0.02785
3185.02609,0.02795
3182.96592,0.02794
3180.90575,0.02798
3178.84558,0.02805
3176.78540,0.02791
3174.72523,0.02751
3172.66506,0.02721
3170.60489,0.02722
3168.54472,0.02729
3166.48454,0.02723
3164.42437,0.02719
3162.36420,0.02722
3160.30403,0.02722
3158.24386,0.02724
3156.18368,0.02741
3154.12351,0.02759
3152.06334,0.02738
3150.00317,0.02695
3147.94299,0.02670
3145.88282,0.02656
3143.82265,0.02639
3141.76248,0.02628
3139.70231,0.02629
3137.64213,0.02637
3135.58196,0.02639
3133.52179,0.02625
3131.46162,0.02604
3129.40145,0.02594
3127.34127,0.02596
3125.28110,0.02595
3123.22093,0.02590
3121.16076,0.02590
3119.10058,0.02593
3117.04041,0.02586
3114.98024,0.02568
3112.92007,0.02553
3110.85990,0.02538
3108.79972,0.02515
3106.73955,0.02505
3104.67938,0.02513
3102.61921,0.02512
3100.55904,0.02494
3098.49886,0.02474
3096.43869,0.02461
3094.37852,0.02453
3092.31835,0.02445
3090.25818,0.02424
3088.19800,0.02405
3086.13783,0.02413
3084.07766,0.02433
3082.01749,0.02441
3079.95731,0.02434
3077.89714,0.02412
3075.83697,0.02390
3073.77680,0.02379
3071.71663,0.02373
3069.65645,0.02351
3067.59628,0.02322
3065.53611,0.02312
3063.47594,0.02314
3061.41577,0.02301
3059.35559,0.02282
3057.29542,0.02275
3055.23525,0.02271
3053.17508,0.02259
3051.11491,0.02244
3049.05473,0.02230
3046.99456,0.02214
3044.93439,0.02202
3042.87422,0.02189
3040.81404,0.02167
3038.75387,0.02153
3036.69370,0.02146
3034.63353,0.02147
3032.57336,0.02167
3030.51318,0.02185
3028.45301,0.02174
3026.39284,0.02145
3024.33267,0.02117
3022.27250,0.02101
3020.21232,0.02103
3018.15215,0.02109
3016.09198,0.02102
3014.03181,0.02087
3011.97163,0.02076
3009.91146,0.02069
3007.85129,0.02059
3005.79112,0.02041
3003.73095,0.02027
3001.67077,0.02026
2999.61060,0.02015
2997.55043,0.01996
2995.49026,0.01991
2993.43009,0.01994
2991.36991,0.01989
2989.30974,0.01980
2987.24957,0.01977
2985.18940,0.01978
2983.12923,0.01978
2981.06905,0.01972
2979.00888,0.01962
2976.94871,0.01971
2974.88854,0.01995
2972.82836,0.01995
2970.76819,0.01964
2968.70802,0.01935
2966.64785,0.01914
2964.58768,0.01906
2962.52750,0.01923
2960.46733,0.01944
2958.40716,0.01942
2956.34699,0.01930
2954.28682,0.01923
2952.22664,0.01916
2950.16647,0.01904
2948.10630,0.01895
2946.04613,0.01900
2943.98596,0.01908
2941.92578,0.01895
2939.86561,0.01879
2937.80544,0.01871
2935.74527,0.01858
2933.68509,0.01836
2931.62492,0.01817
2929.56475,0.01804
2927.50458,0.01787
2925.44441,0.01765
2923.38423,0.01738
2921.32406,0.01703
2919.26389,0.01666
2917.20372,0.01643
2915.14355,0.01653
2913.08337,0.01692
2911.02320,0.01725
2908.96303,0.01736
2906.90286,0.01741
2904.84268,0.01741
2902.78251,0.01732
2900.72234,0.01729
2898.66217,0.01730
2896.60200,0.01731
2894.54182,0.01737
2892.48165,0.01742
2890.42148,0.01746
2888.36131,0.01747
2886.30114,0.01744
2884.24096,0.01745
2882.18079,0.01751
2880.12062,0.01748
2878.06045,0.01739
2876.00028,0.01728
2873.94010,0.01709
2871.87993,0.01697
2869.81976,0.01697
2867.75959,0.01692
2865.69941,0.01676
2863.63924,0.01663
2861.57907,0.01656
2859.51890,0.01650
2857.45873,0.01630
2855.39855,0.01587
2853.33838,0.01537
2851.27821,0.01501
2849.21804,0.01484
2847.15787,0.01482
2845.09769,0.01487
2843.03752,0.01492
2840.97735,0.01496
2838.91718,0.01504
2836.85700,0.01515
2834.79683,0.01516
2832.73666,0.01512
2830.67649,0.01501
2828.61632,0.01476
2826.55614,0.01458
2824.49597,0.01466
2822.43580,0.01477
2820.37563,0.01464
2818.31546,0.01444
2816.25528,0.01438
2814.19511,0.01429
2812.13494,0.01411
2810.07477,0.01395
2808.01460,0.01377
2805.95442,0.01355
2803.89425,0.01336
2801.83408,0.01322
2799.77391,0.01313
2797.71373,0.01311
2795.65356,0.01311
2793.59339,0.01301
2791.53322,0.01282
2789.47305,0.01266
2787.41287,0.01255
2785.35270,0.01255
2783.29253,0.01258
2781.23236,0.01255
2779.17219,0.01242
2777.11201,0.01226
2775.05184,0.01224
2772.99167,0.01226
2770.93150,0.01210
2768.87133,0.01187
2766.81115,0.01170
2764.75098,0.01159
2762.69081,0.01150
2760.63064,0.01135
2758.57046,0.01119
2756.51029,0.01119
2754.45012,0.01129
2752.38995,0.01125
2750.32978,0.01108
2748.26960,0.01097
2746.20943,0.01093
2744.14926,0.01084
2742.08909,0.01071
2740.02892,0.01067
2737.96874,0.01066
2735.90857,0.01051
2733.84840,0.01029
2731.78823,0.01020
2729.72805,0.01026
2727.66788,0.01037
2725.60771,0.01037
2723.54754,0.01023
2721.48737,0.01006
2719.42719,0.00991
2717.36702,0.00986
2715.30685,0.00984
2713.24668,0.00968
2711.18651,0.00948
2709.12633,0.00940
2707.06616,0.00945
2705.00599,0.00950
2702.94582,0.00944
2700.88565,0.00934
2698.82547,0.00929
2696.76530,0.00934
2694.70513,0.00935
2692.64496,0.00921
2690.58478,0.00902
2688.52461,0.00890
2686.46444,0.00887
2684.40427,0.00884
2682.34410,0.00881
2680.28392,0.00879
2678.22375,0.00877
2676.16358,0.00866
2674.10341,0.00840
2672.04324,0.00815
2669.98306,0.00804
2667.92289,0.00808
2665.86272,0.00819
2663.80255,0.00826
2661.74238,0.00825
2659.68220,0.00824
2657.62203,0.00826
2655.56186,0.00830
2653.50169,0.00829
2651.44151,0.00821
2649.38134,0.00815
2647.32117,0.00816
2645.26100,0.00818
2643.20083,0.00814
2641.14065,0.00817
2639.08048,0.00828
2637.02031,0.00821
2634.96014,0.00797
2632.89997,0.00783
2630.83979,0.00780
2628.77962,0.00771
2626.71945,0.00755
2624.65928,0.00756
2622.59910,0.00766
2620.53893,0.00755
2618.47876,0.00745
2616.41859,0.00762
2614.35842,0.00776
2612.29824,0.00763
2610.23807,0.00751
2608.17790,0.00762
2606.11773,0.00767
2604.05756,0.00740
2601.99738,0.00717
2599.93721,0.00721
2597.87704,0.00735
2595.81687,0.00743
2593.75670,0.00731
2591.69652,0.00719
2589.63635,0.00732
2587.57618,0.00751
2585.51601,0.00748
2583.45583,0.00748
2581.39566,0.00759
2579.33549,0.00758
2577.27532,0.00753
2575.21515,0.00752
2573.15497,0.00760
2571.09480,0.00759
2569.03463,0.00731
2566.97446,0.00719
2564.91429,0.00740
2562.85411,0.00744
2560.79394,0.00729
2558.73377,0.00726
2556.67360,0.00731
2554.61342,0.00737
2552.55325,0.00753
2550.49308,0.00778
2548.43291,0.00781
2546.37274,0.00764
2544.31256,0.00764
2542.25239,0.00775
2540.19222,0.00758
2538.13205,0.00738
2536.07188,0.00761
2534.01170,0.00798
2531.95153,0.00793
2529.89136,0.00745
2527.83119,0.00716
2525.77102,0.00739
2523.71084,0.00758
2521.65067,0.00748
2519.59050,0.00736
2517.53033,0.00741
2515.47015,0.00770
2513.40998,0.00796
2511.34981,0.00797
2509.28964,0.00784
2507.22947,0.00781
2505.16929,0.00804
2503.10912,0.00835
2501.04895,0.00845
2498.98878,0.00836
2496.92861,0.00829
2494.86843,0.00846
2492.80826,0.00857
2490.74809,0.00835
2488.68792,0.00833
2486.62775,0.00856
2484.56757,0.00872
2482.50740,0.00890
2480.44723,0.00896
2478.38706,0.00870
2476.32688,0.00847
2474.26671,0.00847
2472.20654,0.00856
2470.14637,0.00871
2468.08620,0.00892
2466.02602,0.00909
2463.96585,0.00901
2461.90568,0.00896
2459.84551,0.00909
2457.78534,0.00911
2455.72516,0.00915
2453.66499,0.00931
2451.60482,0.00930
2449.54465,0.00906
2447.48447,0.00888
2445.42430,0.00888
2443.36413,0.00901
2441.30396,0.00921
2439.24379,0.00939
2437.18361,0.00943
2435.12344,0.00935
2433.06327,0.00920
2431.00310,0.00895
2428.94293,0.00872
2426.88275,0.00875
2424.82258,0.00901
2422.76241,0.00920
2420.70224,0.00919
2418.64207,0.00916
2416.58189,0.00917
2414.52172,0.00904
2412.46155,0.00892
2410.40138,0.00902
2408.34120,0.00911
2406.28103,0.00915
2404.22086,0.00919
2402.16069,0.00911
2400.10052,0.00893
2398.04034,0.00774
2395.98017,0.00771
2393.92000,0.00838
2391.85983,0.00903
2389.79966,0.00963
2387.73948,0.01021
2385.67931,0.01059
2383.61914,0.01077
2381.55897,0.01097
2379.49880,0.01126
2377.43862,0.01139
2375.37845,0.01169
2373.31828,0.01158
2371.25811,0.01158
2369.19793,0.01283
2367.13776,0.01387
2365.07759,0.01367
2363.01742,0.01428
2360.95725,0.01260
2358.89707,0.01250
2356.83690,0.01342
2354.77673,0.01530
2352.71656,0.01588
2350.65639,0.01236
2348.59621,0.01031
2346.53604,0.01574
2344.47587,0.01555
2342.41570,0.01374
2340.35552,0.01357
2338.29535,0.01335
2336.23518,0.01295
2334.17501,0.01268
2332.11484,0.01300
2330.05466,0.01361
2327.99449,0.01520
2325.93432,0.01493
2323.87415,0.01475
2321.81398,0.01356
2319.75380,0.01308
2317.69363,0.01169
2315.63346,0.01133
2313.57329,0.01160
2311.51312,0.01149
2309.45294,0.01140
2307.39277,0.01142
2305.33260,0.01156
2303.27243,0.01151
2301.21225,0.01129
2299.15208,0.01063
2297.09191,0.01024
2295.03174,0.01047
2292.97157,0.01053
2290.91139,0.01004
2288.85122,0.00941
2286.79105,0.00896
2284.73088,0.00855
2282.67071,0.00802
2280.61053,0.00741
2278.55036,0.00682
2276.49019,0.00654
2274.43002,0.00662
2272.36984,0.00686
2270.30967,0.00708
2268.24950,0.00715
2266.18933,0.00705
2264.12916,0.00685
2262.06898,0.00682
2260.00881,0.00705
2257.94864,0.00705
2255.88847,0.00686
2253.82830,0.00698
2251.76812,0.00735
2249.70795,0.00735
2247.64778,0.00765
2245.58761,0.00753
2243.52744,0.00690
2241.46726,0.00632
2239.40709,0.00607
2237.34692,0.00635
2235.28675,0.00721
2233.22657,0.00742
2231.16640,0.00647
2229.10623,0.00587
2227.04606,0.00596
2224.98589,0.00538
2222.92571,0.00430
2220.86554,0.00399
2218.80537,0.00434
2216.74520,0.00486
2214.68503,0.00544
2212.62485,0.00566
2210.56468,0.00531
2208.50451,0.00453
2206.44434,0.00372
2204.38417,0.00393
2202.32399,0.00516
2200.26382,0.00592
2198.20365,0.00554
2196.14348,0.00493
2194.08330,0.00501
2192.02313,0.00498
2189.96296,0.00442
2187.90279,0.00440
2185.84262,0.00453
2183.78244,0.00394
2181.72227,0.00315
2179.66210,0.00223
2177.60193,0.00167
2175.54176,0.00231
2173.48158,0.00345
2171.42141,0.00433
2169.36124,0.00481
2167.30107,0.00493
2165.24089,0.00426
2163.18072,0.00278
2161.12055,0.00144
2159.06038,0.00077
2157.00021,0.00075
2154.94003,0.00095
2152.87986,0.00124
2150.81969,0.00159
2148.75952,0.00169
2146.69935,0.00159
2144.63917,0.00149
2142.57900,0.00139
2140.51883,0.00177
2138.45866,0.00231
2136.39849,0.00196
2134.33831,0.00141
2132.27814,0.00188
2130.21797,0.00291
2128.15780,0.00363
2126.09762,0.00388
2124.03745,0.00377
2121.97728,0.00347
2119.91711,0.00331
2117.85694,0.00335
2115.79676,0.00320
2113.73659,0.00290
2111.67642,0.00266
2109.61625,0.00280
2107.55608,0.00336
2105.49590,0.00342
2103.43573,0.00278
2101.37556,0.00237
2099.31539,0.00202
2097.25521,0.00189
2095.19504,0.00236
2093.13487,0.00291
2091.07470,0.00286
2089.01453,0.00283
2086.95435,0.00334
2084.89418,0.00371
2082.83401,0.00330
2080.77384,0.00262
2078.71367,0.00234
2076.65349,0.00248
2074.59332,0.00275
2072.53315,0.00280
2070.47298,0.00244
2068.41281,0.00214
2066.35263,0.00254
2064.29246,0.00316
2062.23229,0.00308
2060.17212,0.00265
2058.11194,0.00272
2056.05177,0.00337
2053.99160,0.00399
2051.93143,0.00368
2049.87126,0.00262
2047.81108,0.00206
2045.75091,0.00233
2043.69074,0.00259
2041.63057,0.00222
2039.57040,0.00177
2037.51022,0.00185
2035.45005,0.00152
2033.38988,0.00038
2031.32971,0.00000
2029.26954,0.00115
2027.20936,0.00224
2025.14919,0.00228
2023.08902,0.00230
2021.02885,0.00239
2018.96867,0.00221
2016.90850,0.00267
2014.84833,0.00336
2012.78816,0.00302
2010.72799,0.00222
2008.66781,0.00184
2006.60764,0.00147
2004.54747,0.00103
2002.48730,0.00096
2000.42713,0.00123
1998.36695,0.00172
1996.30678,0.00256
1994.24661,0.00333
1992.18644,0.00338
1990.12626,0.00299
1988.06609,0.00281
1986.00592,0.00284
1983.94575,0.00259
1981.88558,0.00171
1979.82540,0.00059
1977.76523,0.00013
1975.70506,0.00040
1973.64489,0.00065
1971.58472,0.00058
1969.52454,0.00078
1967.46437,0.00138
1965.40420,0.00156
1963.34403,0.00131
1961.28386,0.00109
1959.22368,0.00105
1957.16351,0.00142
1955.10334,0.00200
1953.04317,0.00230
1950.98299,0.00213
1948.92282,0.00174
1946.86265,0.00163
1944.80248,0.00190
1942.74231,0.00209
1940.68213,0.00218
1938.62196,0.00254
1936.56179,0.00282
1934.50162,0.00253
1932.44145,0.00202
1930.38127,0.00175
1928.32110,0.00168
1926.26093,0.00165
1924.20076,0.00167
1922.14059,0.00189
1920.08041,0.00245
1918.02024,0.00301
1915.96007,0.00322
1913.89990,0.00337
1911.83972,0.00354
1909.77955,0.00347
1907.71938,0.00319
1905.65921,0.00277
1903.59904,0.00236
1901.53886,0.00217
1899.47869,0.00224
1897.41852,0.00256
1895.35835,0.00307
1893.29818,0.00350
1891.23800,0.00366
1889.17783,0.00363
1887.11766,0.00351
1885.05749,0.00346
1882.99731,0.00368
1880.93714,0.00406
1878.87697,0.00418
1876.81680,0.00397
1874.75663,0.00374
1872.69645,0.00379
1870.63628,0.00402
1868.57611,0.00408
1866.51594,0.00382
1864.45577,0.00371
1862.39559,0.00404
1860.33542,0.00454
1858.27525,0.00479
1856.21508,0.00470
1854.15491,0.00444
1852.09473,0.00429
1850.03456,0.00450
1847.97439,0.00504
1845.91422,0.00546
1843.85404,0.00549
1841.79387,0.00534
1839.73370,0.00521
1837.67353,0.00514
1835.61336,0.00525
1833.55318,0.00544
1831.49301,0.00534
1829.43284,0.00500
1827.37267,0.00496
1825.31250,0.00522
1823.25232,0.00542
1821.19215,0.00544
1819.13198,0.00540
1817.07181,0.00542
1815.01163,0.00553
1812.95146,0.00571
1810.89129,0.00595
1808.83112,0.00619
1806.77095,0.00632
1804.71077,0.00638
1802.65060,0.00651
1800.59043,0.00661
1798.53026,0.00656
1796.47009,0.00652
1794.40991,0.00660
1792.34974,0.00666
1790.28957,0.00664
1788.22940,0.00670
1786.16923,0.00680
1784.10905,0.00672
1782.04888,0.00650
1779.98871,0.00640
1777.92854,0.00648
1775.86836,0.00658
1773.80819,0.00660
1771.74802,0.00664
1769.68785,0.00690
1767.62768,0.00706
1765.56750,0.00700
1763.50733,0.00704
1761.44716,0.00722
1759.38699,0.00739
1757.32682,0.00754
1755.26664,0.00775
1753.20647,0.00797
1751.14630,0.00813
1749.08613,0.00814
1747.02596,0.00814
1744.96578,0.00820
1742.90561,0.00821
1740.84544,0.00810
1738.78527,0.00808
1736.72509,0.00836
1734.66492,0.00880
1732.60475,0.00892
1730.54458,0.00856
1728.48441,0.00821
1726.42423,0.00808
1724.36406,0.00812
1722.30389,0.00826
1720.24372,0.00839
1718.18355,0.00855
1716.12337,0.00874
1714.06320,0.00873
1712.00303,0.00873
1709.94286,0.00883
1707.88268,0.00885
1705.82251,0.00882
1703.76234,0.00900
1701.70217,0.00942
1699.64200,0.01007
1697.58182,0.01073
1695.52165,0.01110
1693.46148,0.01139
1691.40131,0.01191
1689.34114,0.01247
1687.28096,0.01278
1685.22079,0.01300
1683.16062,0.01363
1681.10045,0.01443
1679.04028,0.01491
1676.98010,0.01516
1674.91993,0.01553
1672.85976,0.01598
1670.79959,0.01636
1668.73941,0.01681
1666.67924,0.01727
1664.61907,0.01762
1662.55890,0.01792
1660.49873,0.01833
1658.43855,0.01877
1656.37838,0.01910
1654.31821,0.01922
1652.25804,0.01921
1650.19787,0.01913
1648.13769,0.01898
1646.07752,0.01862
1644.01735,0.01838
1641.95718,0.01828
1639.89701,0.01809
1637.83683,0.01763
1635.77666,0.01696
1633.71649,0.01642
1631.65632,0.01619
1629.59614,0.01603
1627.53597,0.01574
1625.47580,0.01533
1623.41563,0.01493
1621.35546,0.01476
1619.29528,0.01465
1617.23511,0.01432
1615.17494,0.01390
1613.11477,0.01362
1611.05460,0.01338
1608.99442,0.01310
1606.93425,0.01286
1604.87408,0.01268
1602.81391,0.01252
1600.75373,0.01237
1598.69356,0.01212
1596.63339,0.01177
1594.57322,0.01148
1592.51305,0.01136
1590.45287,0.01126
1588.39270,0.01096
1586.33253,0.01055
1584.27236,0.01021
1582.21219,0.00990
1580.15201,0.00953
1578.09184,0.00915
1576.03167,0.00889
1573.97150,0.00888
1571.91133,0.00895
1569.85115,0.00887
1567.79098,0.00880
1565.73081,0.00892
1563.67064,0.00912
1561.61046,0.00928
1559.55029,0.00956
1557.49012,0.00997
1555.42995,0.00993
1553.36978,0.00961
1551.30960,0.00931
1549.24943,0.00909
1547.18926,0.00894
1545.12909,0.00884
1543.06892,0.00858
1541.00874,0.00805
1538.94857,0.00767
1536.88840,0.00770
1534.82823,0.00783
1532.76805,0.00778
1530.70788,0.00766
1528.64771,0.00762
1526.58754,0.00773
1524.52737,0.00788
1522.46719,0.00786
1520.40702,0.00770
1518.34685,0.00755
1516.28668,0.00745
1514.22651,0.00739
1512.16633,0.00745
1510.10616,0.00759
1508.04599,0.00722
1505.98582,0.00606
1503.92565,0.00526
1501.86547,0.00518
1499.80530,0.00521
1497.74513,0.00506
1495.68496,0.00476
1493.62478,0.00458
1491.56461,0.00465
1489.50444,0.00466
1487.44427,0.00433
1485.38410,0.00395
1483.32392,0.00375
1481.26375,0.00369
1479.20358,0.00374
1477.14341,0.00395
1475.08324,0.00430
1473.02306,0.00450
1470.96289,0.00435
1468.90272,0.00420
1466.84255,0.00423
1464.78238,0.00434
1462.72220,0.00453
1460.66203,0.00480
1458.60186,0.00519
1456.54169,0.00545
1454.48151,0.00530
1452.42134,0.00512
1450.36117,0.00505
1448.30100,0.00496
1446.24083,0.00483
1444.18065,0.00474
1442.12048,0.00473
1440.06031,0.00484
1438.00014,0.00508
1435.93997,0.00526
1433.87979,0.00529
1431.81962,0.00532
1429.75945,0.00544
1427.69928,0.00571
1425.63910,0.00604
1423.57893,0.00634
1421.51876,0.00678
1419.45859,0.00748
1417.39842,0.00805
1415.33824,0.00807
1413.27807,0.00790
1411.21790,0.00796
1409.15773,0.00819
1407.09756,0.00845
1405.03738,0.00867
1402.97721,0.00879
1400.91704,0.00891
1398.85687,0.00915
1396.79670,0.00940
1394.73652,0.00932
1392.67635,0.00898
1390.61618,0.00880
1388.55601,0.00892
1386.49583,0.00902
1384.43566,0.00890
1382.37549,0.00882
1380.31532,0.00888
1378.25515,0.00897
1376.19497,0.00907
1374.13480,0.00925
1372.07463,0.00939
1370.01446,0.00942
1367.95429,0.00941
1365.89411,0.00952
1363.83394,0.00979
1361.77377,0.00988
1359.71360,0.00957
1357.65343,0.00922
1355.59325,0.00907
1353.53308,0.00895
1351.47291,0.00871
1349.41274,0.00836
1347.35256,0.00797
1345.29239,0.00763
1343.23222,0.00745
1341.17205,0.00745
1339.11188,0.00736
1337.05170,0.00685
1334.99153,0.00612
1332.93136,0.00557
1330.87119,0.00525
1328.81102,0.00500
1326.75084,0.00470
1324.69067,0.00437
1322.63050,0.00414
1320.57033,0.00417
1318.51015,0.00432
1316.44998,0.00435
1314.38981,0.00419
1312.32964,0.00393
1310.26947,0.00364
1308.20929,0.00330
1306.14912,0.00295
1304.08895,0.00268
1302.02878,0.00259
1299.96861,0.00267
1297.90843,0.00280
1295.84826,0.00284
1293.78809,0.00279
1291.72792,0.00271
1289.66775,0.00266
1287.60757,0.00261
1285.54740,0.00242
1283.48723,0.00216
1281.42706,0.00202
1279.36688,0.00200
1277.30671,0.00198
1275.24654,0.00198
1273.18637,0.00201
1271.12620,0.00202
1269.06602,0.00189
1267.00585,0.00169
1264.94568,0.00164
1262.88551,0.00173
1260.82534,0.00185
1258.76516,0.00192
1256.70499,0.00192
1254.64482,0.00187
1252.58465,0.00188
1250.52447,0.00193
1248.46430,0.00192
1246.40413,0.00183
1244.34396,0.00176
1242.28379,0.00166
1240.22361,0.00147
1238.16344,0.00123
1236.10327,0.00107
1234.04310,0.00103
1231.98293,0.00099
1229.92275,0.00087
1227.86258,0.00078
1225.80241,0.00072
1223.74224,0.00055
1221.68207,0.00032
1219.62189,0.00012
1217.56172,0.00004
1215.50155,0.00009
1213.44138,0.00012
1211.38120,0.00004
1209.32103,0.00000
1207.26086,-0.00003
1205.20069,-0.00004
1203.14052,0.00009
1201.08034,0.00039
1199.02017,0.00077
1196.96000,0.00119
1194.89983,0.00176
1192.83966,0.00258
1190.77948,0.00353
1188.71931,0.00455
1186.65914,0.00563
1184.59897,0.00688
1182.53880,0.00837
1180.47862,0.00993
1178.41845,0.01139
1176.35828,0.01280
1174.29811,0.01422
1172.23793,0.01564
1170.17776,0.01698
1168.11759,0.01822
1166.05742,0.01948
1163.99725,0.02069
1161.93707,0.02179
1159.87690,0.02295
1157.81673,0.02414
1155.75656,0.02524
1153.69639,0.02632
1151.63621,0.02735
1149.57604,0.02814
1147.51587,0.02882
1145.45570,0.02962
1143.39552,0.03031
1141.33535,0.03063
1139.27518,0.03076
1137.21501,0.03082
1135.15484,0.03065
1133.09466,0.03026
1131.03449,0.02994
1128.97432,0.02989
1126.91415,0.03008
1124.85398,0.03045
1122.79380,0.03101
1120.73363,0.03164
1118.67346,0.03220
1116.61329,0.03282
1114.55312,0.03362
1112.49294,0.03452
1110.43277,0.03560
1108.37260,0.03690
1106.31243,0.03825
1104.25225,0.03953
1102.19208,0.04087
1100.13191,0.04226
1098.07174,0.04347
1096.01157,0.04455
1093.95139,0.04574
1091.89122,0.04695
1089.83105,0.04814
1087.77088,0.04939
1085.71071,0.05067
1083.65053,0.05192
1081.59036,0.05316
1079.53019,0.05434
1077.47002,0.05556
1075.40985,0.05675
1073.34967,0.05764
1071.28950,0.05821
1069.22933,0.05846
1067.16916,0.05840
1065.10898,0.05818
1063.04881,0.05794
1060.98864,0.05759
1058.92847,0.05695
1056.86830,0.05607
1054.80812,0.05506
1052.74795,0.05394
1050.68778,0.05266
1048.62761,0.05122
1046.56744,0.04966
1044.50726,0.04799
1042.44709,0.04623
1040.38692,0.04440
1038.32675,0.04251
1036.26657,0.04074
1034.20640,0.03915
1032.14623,0.03740
1030.08606,0.03543
1028.02589,0.03362
1025.96571,0.03203
1023.90554,0.03054
1021.84537,0.02916
1019.78520,0.02789
1017.72503,0.02673
1015.66485,0.02583
1013.60468,0.02539
1011.54451,0.02531
1009.48434,0.02537
1007.42417,0.02553
1005.36399,0.02584
1003.30382,0.02638
1001.24365,0.02721
999.18348,0.02825
997.12330,0.02921
995.06313,0.02990
993.00296,0.03046
990.94279,0.03096
988.88262,0.03132
986.82244,0.03165
984.76227,0.03214
982.70210,0.03268
980.64193,0.03300
978.58176,0.03320
976.52158,0.03341
974.46141,0.03341
972.40124,0.03312
970.34107,0.03289
968.28089,0.03274
966.22072,0.03245
964.16055,0.03212
962.10038,0.03190
960.04021,0.03174
957.98003,0.03153
955.91986,0.03137
953.85969,0.03151
951.79952,0.03163
949.73935,0.03162
947.67917,0.03175
945.61900,0.03177
943.55883,0.03143
941.49866,0.03087
939.43849,0.03020
937.37831,0.02947
935.31814,0.02874
933.25797,0.02794
931.19780,0.02697
929.13762,0.02584
927.07745,0.02471
925.01728,0.02370
922.95711,0.02266
920.89694,0.02143
918.83676,0.02015
916.77659,0.01899
914.71642,0.01784
912.65625,0.01685
910.59608,0.01608
908.53590,0.01530
906.47573,0.01440
904.41556,0.01359
902.35539,0.01321
900.29522,0.01306
898.23504,0.01287
896.17487,0.01262
894.11470,0.01244
892.05453,0.01247
889.99435,0.01277
887.93418,0.01333
885.87401,0.01408
883.81384,0.01490
881.75367,0.01586
879.69349,0.01711
877.63332,0.01872
875.57315,0.02062
873.51298,0.02261
871.45281,0.02461
869.39263,0.02670
867.33246,0.02888
865.27229,0.03121
863.21212,0.03367
861.15194,0.03570
859.09177,0.03691
857.03160,0.03756
854.97143,0.03779
852.91126,0.03757
850.85108,0.03718
848.79091,0.03673
846.73074,0.03615
844.67057,0.03536
842.61040,0.03410
840.55022,0.03239
838.49005,0.03068
836.42988,0.02933
834.36971,0.02832
832.30954,0.02741
830.24936,0.02633
828.18919,0.02512
826.12902,0.02405
824.06885,0.02313
822.00867,0.02215
819.94850,0.02118
817.88833,0.02037
815.82816,0.01957
813.76799,0.01857
811.70781,0.01757
809.64764,0.01678
807.58747,0.01634
805.52730,0.01618
803.46713,0.01592
801.40695,0.01558
799.34678,0.01525
797.28661,0.01480
795.22644,0.01452
793.16627,0.01424
791.10609,0.01378
789.04592,0.01336
786.98575,0.01298
784.92558,0.01299
782.86540,0.01319
780.80523,0.01283
778.74506,0.01214
776.68489,0.01163
774.62472,0.01136
772.56454,0.01136
770.50437,0.01137
768.44420,0.01099
766.38403,0.01048
764.32386,0.01020
762.26368,0.01003
760.20351,0.00994
758.14334,0.00993
756.08317,0.00984
754.02299,0.00987
751.96282,0.01025
749.90265,0.01055
747.84248,0.01030
745.78231,0.00962
743.72213,0.00905
741.66196,0.00901
739.60179,0.00929
737.54162,0.00944
735.48145,0.00926
733.42127,0.00869
731.36110,0.00801
729.30093,0.00758
727.24076,0.00749
725.18059,0.00772
723.12041,0.00824
721.06024,0.00862
719.00007,0.00804
716.93990,0.00785
714.87972,0.00765
712.81955,0.00741
710.75938,0.00755
708.69921,0.00785
706.63904,0.00809
704.57886,0.00836
702.51869,0.00849
700.45852,0.00833
698.39835,0.00817
696.33818,0.00821
694.27800,0.00816
692.21783,0.00791
690.15766,0.00744
688.09749,0.00672
686.03731,0.00621
683.97714,0.00643
681.91697,0.00696
679.85680,0.00690
677.79663,0.00658
675.73645,0.00690
673.67628,0.00581
671.61611,0.00000
669.55594,0.00161
667.49577,0.01198
665.43559,-0.00030
663.37542,0.00329
661.31525,0.00674
659.25508,0.00612
657.19491,0.00505
655.13473,0.00439
653.07456,0.00405
651.01439,0.00419
648.95422,0.00461
646.89404,0.00403
644.83387,0.00274
642.77370,0.00116
640.71353,0.00047
638.65336,0.00111
636.59318,0.00233
634.53301,0.00298
632.47284,0.00246
630.41267,0.00140
628.35250,0.00128
626.29232,0.00186
624.23215,0.00102
622.17198,-0.00034
620.11181,-0.00010
618.05164,0.00098
615.99146,0.00137
613.93129,0.00142
611.87112,0.00132
609.81095,0.00058
607.75077,-0.00052
605.69060,-0.00172
603.63043,-0.00220
601.57026,-0.00131
599.51009,0.00000
