3996.73391,0.00000
3994.67373,0.00003
3992.61356,0.00020
3990.55339,0.00030
3988.49322,0.00026
3986.43305,0.00024
3984.37287,0.00033
3982.31270,0.00038
3980.25253,0.00036
3978.19236,0.00039
3976.13219,0.00048
3974.07201,0.00051
3972.01184,0.00048
3969.95167,0.00037
3967.89150,0.00021
3965.83133,0.00015
3963.77115,0.00025
3961.71098,0.00037
3959.65081,0.00035
3957.59064,0.00033
3955.53046,0.00039
3953.47029,0.00049
3951.41012,0.00066
3949.34995,0.00088
3947.28978,0.00093
3945.22960,0.00089
3943.16943,0.00100
3941.10926,0.00102
3939.04909,0.00075
3936.98892,0.00052
3934.92874,0.00071
3932.86857,0.00112
3930.80840,0.00109
3928.74823,0.00068
3926.68805,0.00051
3924.62788,0.00071
3922.56771,0.00094
3920.50754,0.00106
3918.44737,0.00114
3916.38719,0.00106
3914.32702,0.00076
3912.26685,0.00042
3910.20668,0.00017
3908.14651,0.00022
3906.08633,0.00071
3904.02616,0.00140
3901.96599,0.00172
3899.90582,0.00154
3897.84565,0.00140
3895.78547,0.00146
3893.72530,0.00138
3891.66513,0.00114
3889.60496,0.00103
3887.54478,0.00121
3885.48461,0.00132
3883.42444,0.00095
3881.36427,0.00056
3879.30410,0.00068
3877.24392,0.00095
3875.18375,0.00084
3873.12358,0.00045
3871.06341,0.00028
3869.00324,0.00069
3866.94306,0.00131
3864.88289,0.00157
3862.82272,0.00145
3860.76255,0.00124
3858.70237,0.00126
3856.64220,0.00176
3854.58203,0.00220
3852.52186,0.00194
3850.46169,0.00148
3848.40151,0.00137
3846.34134,0.00125
3844.28117,0.00093
3842.22100,0.00073
3840.16083,0.00090
3838.10065,0.00131
3836.04048,0.00156
3833.98031,0.00140
3831.92014,0.00104
3829.85997,0.00072
3827.79979,0.00059
3825.73962,0.00069
3823.67945,0.00087
3821.61928,0.00097
3819.55910,0.00106
3817.49893,0.00121
3815.43876,0.00134
3813.37859,0.00128
3811.31842,0.00113
3809.25824,0.00099
3807.19807,0.00090
3805.13790,0.00073
3803.07773,0.00027
3801.01756,0.00000
3798.95738,0.00028
3796.89721,0.00064
3794.83704,0.00075
3792.77687,0.00070
3790.71670,0.00074
3788.65652,0.00091
3786.59635,0.00097
3784.53618,0.00078
3782.47601,0.00057
3780.41583,0.00050
3778.35566,0.00055
3776.29549,0.00068
3774.23532,0.00085
3772.17515,0.00091
3770.11497,0.00086
3768.05480,0.00081
3765.99463,0.00066
3763.93446,0.00037
3761.87429,0.00017
3759.81411,0.00033
3757.75394,0.00099
3755.69377,0.00174
3753.63360,0.00225
3751.57342,0.00254
3749.51325,0.00253
3747.45308,0.00242
3745.39291,0.00262
3743.33274,0.00251
3741.27256,0.00196
3739.21239,0.00179
3737.15222,0.00206
3735.09205,0.00205
3733.03188,0.00156
3730.97170,0.00145
3728.91153,0.00196
3726.85136,0.00268
3724.79119,0.00319
3722.73102,0.00315
3720.67084,0.00259
3718.61067,0.00213
3716.55050,0.00213
3714.49033,0.00212
3712.43015,0.00154
3710.36998,0.00081
3708.30981,0.00072
3706.24964,0.00102
3704.18947,0.00120
3702.12929,0.00115
3700.06912,0.00115
3698.00895,0.00136
3695.94878,0.00160
3693.88861,0.00162
3691.82843,0.00132
3689.76826,0.00102
3687.70809,0.00110
3685.64792,0.00129
3683.58775,0.00143
3681.52757,0.00144
3679.46740,0.00129
3677.40723,0.00122
3675.34706,0.00143
3673.28688,0.00168
3671.22671,0.00168
3669.16654,0.00158
3667.10637,0.00172
3665.04620,0.00198
3662.98602,0.00201
3660.92585,0.00184
3658.86568,0.00174
3656.80551,0.00179
3654.74534,0.00187
3652.68516,0.00181
3650.62499,0.00178
3648.56482,0.00210
3646.50465,0.00250
3644.44447,0.00298
3642.38430,0.00345
3640.32413,0.00364
3638.26396,0.00351
3636.20379,0.00321
3634.14361,0.00291
3632.08344,0.00298
3630.02327,0.00364
3627.96310,0.00442
3625.90293,0.00464
3623.84275,0.00465
3621.78258,0.00460
3619.72241,0.00440
3617.66224,0.00442
3615.60207,0.00494
3613.54189,0.00550
3611.48172,0.00568
3609.42155,0.00561
3607.36138,0.00559
3605.30120,0.00552
3603.24103,0.00545
3601.18086,0.00575
3599.12069,0.00637
3597.06052,0.00690
3595.00034,0.00709
3592.94017,0.00709
3590.88000,0.00715
3588.81983,0.00730
3586.75966,0.00736
3584.69948,0.00726
3582.63931,0.00718
3580.57914,0.00708
3578.51897,0.00701
3576.45879,0.00715
3574.39862,0.00739
3572.33845,0.00756
3570.27828,0.00774
3568.21811,0.00818
3566.15793,0.00873
3564.09776,0.00878
3562.03759,0.00862
3559.97742,0.00875
3557.91725,0.00910
3555.85707,0.00940
3553.79690,0.00959
3551.73673,0.00974
3549.67656,0.00999
3547.61639,0.01045
3545.55621,0.01079
3543.49604,0.01065
3541.43587,0.01037
3539.37570,0.01029
3537.31552,0.01044
3535.25535,0.01070
3533.19518,0.01089
3531.13501,0.01100
3529.07484,0.01132
3527.01466,0.01194
3524.95449,0.01232
3522.89432,0.01215
3520.83415,0.01189
3518.77398,0.01190
3516.71380,0.01198
3514.65363,0.01201
3512.59346,0.01207
3510.53329,0.01224
3508.47312,0.01257
3506.41294,0.01292
3504.35277,0.01318
3502.29260,0.01350
3500.23243,0.01369
3498.17225,0.01362
3496.11208,0.01351
3494.05191,0.01353
3491.99174,0.01370
3489.93157,0.01398
3487.87139,0.01422
3485.81122,0.01420
3483.75105,0.01408
3481.69088,0.01436
3479.63071,0.01481
3477.57053,0.01482
3475.51036,0.01462
3473.45019,0.01464
3471.39002,0.01488
3469.32984,0.01512
3467.26967,0.01526
3465.20950,0.01550
3463.14933,0.01587
3461.08916,0.01614
3459.02898,0.01618
3456.96881,0.01622
3454.90864,0.01636
3452.84847,0.01640
3450.78830,0.01633
3448.72812,0.01638
3446.66795,0.01661
3444.60778,0.01677
3442.54761,0.01679
3440.48744,0.01678
3438.42726,0.01669
3436.36709,0.01663
3434.30692,0.01686
3432.24675,0.01716
3430.18657,0.01725
3428.12640,0.01720
3426.06623,0.01714
3424.00606,0.01720
3421.94589,0.01754
3419.88571,0.01793
3417.82554,0.01804
3415.76537,0.01800
3413.70520,0.01801
3411.64503,0.01813
3409.58485,0.01822
3407.52468,0.01814
3405.46451,0.01808
3403.40434,0.01813
3401.34416,0.01821
3399.28399,0.01851
3397.22382,0.01865
3395.16365,0.01883
3393.10348,0.01900
3391.04330,0.01910
3388.98313,0.01916
3386.92296,0.01920
3384.86279,0.01918
3382.80262,0.01913
3380.74244,0.01914
3378.68227,0.01915
3376.62210,0.01919
3374.56193,0.01935
3372.50176,0.01946
3370.44158,0.01938
3368.38141,0.01927
3366.32124,0.01935
3364.26107,0.01950
3362.20089,0.01948
3360.14072,0.01935
3358.08055,0.01940
3356.02038,0.01962
3353.96021,0.01967
3351.90003,0.01954
3349.83986,0.01952
3347.77969,0.01961
3345.71952,0.01964
3343.65935,0.01955
3341.59917,0.01961
3339.53900,0.01991
3337.47883,0.02015
3335.41866,0.02007
3333.35849,0.01981
3331.29831,0.01962
3329.23814,0.01965
3327.17797,0.01985
3325.11780,0.01993
3323.05762,0.01992
3320.99745,0.02002
3318.93728,0.02010
3316.87711,0.02004
3314.81694,0.02007
3312.75676,0.02032
3310.69659,0.02063
3308.63642,0.02060
3306.57625,0.02029
3304.51608,0.02011
3302.45590,0.02009
3300.39573,0.01996
3298.33556,0.01985
3296.27539,0.02006
3294.21521,0.02045
3292.15504,0.02057
3290.09487,0.02034
3288.03470,0.02008
3285.97453,0.01998
3283.91435,0.02001
3281.85418,0.02008
3279.79401,0.02015
3277.73384,0.02018
3275.67367,0.02009
3273.61349,0.02000
3271.55332,0.02007
3269.49315,0.02034
3267.43298,0.02058
3265.37281,0.02053
3263.31263,0.02032
3261.25246,0.02021
3259.19229,0.02017
3257.13212,0.02017
3255.07194,0.02024
3253.01177,0.02029
3250.95160,0.02027
3248.89143,0.02034
3246.83126,0.02050
3244.77108,0.02048
3242.71091,0.02033
3240.65074,0.02022
3238.59057,0.02003
3236.53040,0.01985
3234.47022,0.01992
3232.41005,0.02023
3230.34988,0.02051
3228.28971,0.02053
3226.22954,0.02035
3224.16936,0.02014
3222.10919,0.02010
3220.04902,0.02013
3217.98885,0.02012
3215.92867,0.02007
3213.86850,0.01996
3211.80833,0.01985
3209.74816,0.01978
3207.68799,0.01979
3205.62781,0.01989
3203.56764,0.01991
3201.50747,0.01992
3199.44730,0.01996
3197.38713,0.01983
3195.32695,0.01966
3193.26678,0.01965
3191.20661,0.01953
3189.14644,0.01930
3187.08626,0.01931
3185.02609,0.01947
3182.96592,0.01946
3180.90575,0.01936
3178.84558,0.01936
3176.78540,0.01946
3174.72523,0.01957
3172.66506,0.01958
3170.60489,0.01941
3168.54472,0.01916
3166.48454,0.01900
3164.42437,0.01897
3162.36420,0.01903
3160.30403,0.01908
3158.24386,0.01907
3156.18368,0.01919
3154.12351,0.01938
3152.06334,0.01929
3150.00317,0.01890
3147.94299,0.01857
3145.88282,0.01846
3143.82265,0.01842
3141.76248,0.01840
3139.70231,0.01841
3137.64213,0.01832
3135.58196,0.01810
3133.52179,0.01797
3131.46162,0.01806
3129.40145,0.01822
3127.34127,0.01826
3125.28110,0.01823
3123.22093,0.01822
3121.16076,0.01819
3119.10058,0.01801
3117.04041,0.01769
3114.98024,0.01750
3112.92007,0.01759
3110.85990,0.01771
3108.79972,0.01756
3106.73955,0.01736
3104.67938,0.01741
3102.61921,0.01747
3100.55904,0.01732
3098.49886,0.01719
3096.43869,0.01718
3094.37852,0.01713
3092.31835,0.01706
3090.25818,0.01706
3088.19800,0.01703
3086.13783,0.01692
3084.07766,0.01684
3082.01749,0.01687
3079.95731,0.01689
3077.89714,0.01684
3075.83697,0.01667
3073.77680,0.01640
3071.71663,0.01626
3069.65645,0.01631
3067.59628,0.01643
3065.53611,0.01645
3063.47594,0.01631
3061.41577,0.01616
3059.35559,0.01608
3057.29542,0.01606
3055.23525,0.01601
3053.17508,0.01586
3051.11491,0.01567
3049.05473,0.01558
3046.99456,0.01549
3044.93439,0.01538
3042.87422,0.01536
3040.81404,0.01533
3038.75387,0.01524
3036.69370,0.01526
3034.63353,0.01537
3032.57336,0.01543
3030.51318,0.01536
3028.45301,0.01528
3026.39284,0.01524
3024.33267,0.01499
3022.27250,0.01466
3020.21232,0.01464
3018.15215,0.01486
3016.09198,0.01496
3014.03181,0.01479
3011.97163,0.01457
3009.91146,0.01449
3007.85129,0.01443
3005.79112,0.01429
3003.73095,0.01419
3001.67077,0.01420
2999.61060,0.01426
2997.55043,0.01437
2995.49026,0.01447
2993.43009,0.01447
2991.36991,0.01436
2989.30974,0.01427
2987.24957,0.01421
2985.18940,0.01414
2983.12923,0.01415
2981.06905,0.01419
2979.00888,0.01413
2976.94871,0.01409
2974.88854,0.01413
2972.82836,0.01418
2970.76819,0.01417
2968.70802,0.01412
2966.64785,0.01393
2964.58768,0.01370
2962.52750,0.01364
2960.46733,0.01371
2958.40716,0.01377
2956.34699,0.01372
2954.28682,0.01354
2952.22664,0.01344
2950.16647,0.01356
2948.10630,0.01364
2946.04613,0.01358
2943.98596,0.01356
2941.92578,0.01353
2939.86561,0.01346
2937.80544,0.01340
2935.74527,0.01328
2933.68509,0.01316
2931.62492,0.01316
2929.56475,0.01308
2927.50458,0.01283
2925.44441,0.01265
2923.38423,0.01251
2921.32406,0.01218
2919.26389,0.01174
2917.20372,0.01154
2915.14355,0.01169
2913.08337,0.01208
2911.02320,0.01239
2908.96303,0.01257
2906.90286,0.01280
2904.84268,0.01285
2902.78251,0.01265
2900.72234,0.01256
2898.66217,0.01273
2896.60200,0.01297
2894.54182,0.01314
2892.48165,0.01316
2890.42148,0.01302
2888.36131,0.01293
2886.30114,0.01305
2884.24096,0.01322
2882.18079,0.01323
2880.12062,0.01312
2878.06045,0.01311
2876.00028,0.01317
2873.94010,0.01312
2871.87993,0.01300
2869.81976,0.01296
2867.75959,0.01290
2865.69941,0.01280
2863.63924,0.01266
2861.57907,0.01248
2859.51890,0.01235
2857.45873,0.01222
2855.39855,0.01195
2853.33838,0.01155
2851.27821,0.01119
2849.21804,0.01100
2847.15787,0.01102
2845.09769,0.01117
2843.03752,0.01148
2840.97735,0.01179
2838.91718,0.01188
2836.85700,0.01183
2834.79683,0.01176
2832.73666,0.01176
2830.67649,0.01171
2828.61632,0.01153
2826.55614,0.01142
2824.49597,0.01146
2822.43580,0.01151
2820.37563,0.01143
2818.31546,0.01127
2816.25528,0.01117
2814.19511,0.01113
2812.13494,0.01115
2810.07477,0.01117
2808.01460,0.01101
2805.95442,0.01072
2803.89425,0.01040
2801.83408,0.01021
2799.77391,0.01014
2797.71373,0.01011
2795.65356,0.01017
2793.59339,0.01020
2791.53322,0.01008
2789.47305,0.00995
2787.41287,0.00992
2785.35270,0.00993
2783.29253,0.00990
2781.23236,0.00979
2779.17219,0.00956
2777.11201,0.00936
2775.05184,0.00940
2772.99167,0.00947
2770.93150,0.00936
2768.87133,0.00924
2766.81115,0.00915
2764.75098,0.00904
2762.69081,0.00896
2760.63064,0.00883
2758.57046,0.00863
2756.51029,0.00862
2754.45012,0.00876
2752.38995,0.00876
2750.32978,0.00865
2748.26960,0.00858
2746.20943,0.00853
2744.14926,0.00846
2742.08909,0.00833
2740.02892,0.00823
2737.96874,0.00814
2735.90857,0.00798
2733.84840,0.00783
2731.78823,0.00786
2729.72805,0.00797
2727.66788,0.00802
2725.60771,0.00797
2723.54754,0.00796
2721.48737,0.00798
2719.42719,0.00785
2717.36702,0.00767
2715.30685,0.00768
2713.24668,0.00779
2711.18651,0.00774
2709.12633,0.00757
2707.06616,0.00742
2705.00599,0.00736
2702.94582,0.00734
2700.88565,0.00736
2698.82547,0.00736
2696.76530,0.00736
2694.70513,0.00726
2692.64496,0.00707
2690.58478,0.00699
2688.52461,0.00707
2686.46444,0.00715
2684.40427,0.00708
2682.34410,0.00694
2680.28392,0.00686
2678.22375,0.00681
2676.16358,0.00669
2674.10341,0.00648
2672.04324,0.00633
2669.98306,0.00634
2667.92289,0.00648
2665.86272,0.00660
2663.80255,0.00662
2661.74238,0.00661
2659.68220,0.00658
2657.62203,0.00651
2655.56186,0.00653
2653.50169,0.00661
2651.44151,0.00652
2649.38134,0.00636
2647.32117,0.00645
2645.26100,0.00665
2643.20083,0.00664
2641.14065,0.00659
2639.08048,0.00663
2637.02031,0.00663
2634.96014,0.00654
2632.89997,0.00642
2630.83979,0.00632
2628.77962,0.00622
2626.71945,0.00613
2624.65928,0.00621
2622.59910,0.00639
2620.53893,0.00634
2618.47876,0.00616
2616.41859,0.00618
2614.35842,0.00622
2612.29824,0.00609
2610.23807,0.00621
2608.17790,0.00659
2606.11773,0.00662
2604.05756,0.00623
2601.99738,0.00607
2599.93721,0.00628
2597.87704,0.00653
2595.81687,0.00660
2593.75670,0.00643
2591.69652,0.00626
2589.63635,0.00624
2587.57618,0.00625
2585.51601,0.00617
2583.45583,0.00615
2581.39566,0.00632
2579.33549,0.00651
2577.27532,0.00668
2575.21515,0.00673
2573.15497,0.00661
2571.09480,0.00647
2569.03463,0.00644
2566.97446,0.00654
2564.91429,0.00655
2562.85411,0.00644
2560.79394,0.00635
2558.73377,0.00631
2556.67360,0.00644
2554.61342,0.00657
2552.55325,0.00662
2550.49308,0.00680
2548.43291,0.00696
2546.37274,0.00687
2544.31256,0.00662
2542.25239,0.00649
2540.19222,0.00655
2538.13205,0.00674
2536.07188,0.00704
2534.01170,0.00738
2531.95153,0.00753
2529.89136,0.00732
2527.83119,0.00704
2525.77102,0.00702
2523.71084,0.00700
2521.65067,0.00684
2519.59050,0.00676
2517.53033,0.00668
2515.47015,0.00661
2513.40998,0.00668
2511.34981,0.00686
2509.28964,0.00706
2507.22947,0.00719
2505.16929,0.00732
2503.10912,0.00743
2501.04895,0.00739
2498.98878,0.00732
2496.92861,0.00742
2494.86843,0.00769
2492.80826,0.00781
2490.74809,0.00759
2488.68792,0.00742
2486.62775,0.00753
2484.56757,0.00782
2482.50740,0.00812
2480.44723,0.00808
2478.38706,0.00763
2476.32688,0.00736
2474.26671,0.00767
2472.20654,0.00810
2470.14637,0.00819
2468.08620,0.00813
2466.02602,0.00815
2463.96585,0.00810
2461.90568,0.00803
2459.84551,0.00814
2457.78534,0.00839
2455.72516,0.00864
2453.66499,0.00865
2451.60482,0.00841
2449.54465,0.00828
2447.48447,0.00839
2445.42430,0.00842
2443.36413,0.00837
2441.30396,0.00827
2439.24379,0.00816
2437.18361,0.00829
2435.12344,0.00856
2433.06327,0.00858
2431.00310,0.00816
2428.94293,0.00772
2426.88275,0.00769
2424.82258,0.00806
2422.76241,0.00839
2420.70224,0.00841
2418.64207,0.00835
2416.58189,0.00831
2414.52172,0.00825
2412.46155,0.00833
2410.40138,0.00852
2408.34120,0.00858
2406.28103,0.00864
2404.22086,0.00862
2402.16069,0.00838
2400.10052,0.00811
2398.04034,0.00691
2395.98017,0.00697
2393.92000,0.00777
2391.85983,0.00855
2389.79966,0.00920
2387.73948,0.00979
2385.67931,0.01025
2383.61914,0.01054
2381.55897,0.01068
2379.49880,0.01069
2377.43862,0.01051
2375.37845,0.01036
2373.31828,0.01022
2371.25811,0.01036
2369.19793,0.01079
2367.13776,0.01122
2365.07759,0.01182
2363.01742,0.01257
2360.95725,0.01176
2358.89707,0.01128
2356.83690,0.01163
2354.77673,0.01293
2352.71656,0.01388
2350.65639,0.01318
2348.59621,0.01225
2346.53604,0.01300
2344.47587,0.01188
2342.41570,0.01087
2340.35552,0.01082
2338.29535,0.01112
2336.23518,0.01133
2334.17501,0.01148
2332.11484,0.01186
2330.05466,0.01271
2327.99449,0.01401
2325.93432,0.01398
2323.87415,0.01322
2321.81398,0.01185
2319.75380,0.01121
2317.69363,0.01069
2315.63346,0.01043
2313.57329,0.01012
2311.51312,0.00992
2309.45294,0.01015
2307.39277,0.01051
2305.33260,0.01070
2303.27243,0.01063
2301.21225,0.01041
2299.15208,0.00997
2297.09191,0.00946
2295.03174,0.00933
2292.97157,0.00947
2290.91139,0.00937
2288.85122,0.00891
2286.79105,0.00829
2284.73088,0.00762
2282.67071,0.00685
2280.61053,0.00607
2278.55036,0.00571
2276.49019,0.00607
2274.43002,0.00660
2272.36984,0.00655
2270.30967,0.00613
2268.24950,0.00600
2266.18933,0.00603
2264.12916,0.00595
2262.06898,0.00609
2260.00881,0.00647
2257.94864,0.00637
2255.88847,0.00590
2253.82830,0.00587
2251.76812,0.00638
2249.70795,0.00658
2247.64778,0.00681
2245.58761,0.00650
2243.52744,0.00613
2241.46726,0.00596
2239.40709,0.00546
2237.34692,0.00491
2235.28675,0.00511
2233.22657,0.00564
2231.16640,0.00578
2229.10623,0.00586
2227.04606,0.00580
2224.98589,0.00502
2222.92571,0.00418
2220.86554,0.00402
2218.80537,0.00425
2216.74520,0.00448
2214.68503,0.00472
2212.62485,0.00502
2210.56468,0.00499
2208.50451,0.00433
2206.44434,0.00345
2204.38417,0.00313
2202.32399,0.00373
2200.26382,0.00464
2198.20365,0.00469
2196.14348,0.00412
2194.08330,0.00422
2192.02313,0.00478
2189.96296,0.00502
2187.90279,0.00516
2185.84262,0.00511
2183.78244,0.00451
2181.72227,0.00361
2179.66210,0.00264
2177.60193,0.00184
2175.54176,0.00140
2173.48158,0.00184
2171.42141,0.00330
2169.36124,0.00453
2167.30107,0.00507
2165.24089,0.00496
2163.18072,0.00393
2161.12055,0.00302
2159.06038,0.00278
2157.00021,0.00228
2154.94003,0.00176
2152.87986,0.00166
2150.81969,0.00185
2148.75952,0.00229
2146.69935,0.00283
2144.63917,0.00313
2142.57900,0.00278
2140.51883,0.00222
2138.45866,0.00203
2136.39849,0.00206
2134.33831,0.00223
2132.27814,0.00243
2130.21797,0.00280
2128.15780,0.00369
2126.09762,0.00439
2124.03745,0.00424
2121.97728,0.00369
2119.91711,0.00330
2117.85694,0.00316
2115.79676,0.00301
2113.73659,0.00282
2111.67642,0.00272
2109.61625,0.00279
2107.55608,0.00307
2105.49590,0.00316
2103.43573,0.00295
2101.37556,0.00289
2099.31539,0.00265
2097.25521,0.00239
2095.19504,0.00250
2093.13487,0.00291
2091.07470,0.00304
2089.01453,0.00293
2086.95435,0.00293
2084.89418,0.00297
2082.83401,0.00288
2080.77384,0.00257
2078.71367,0.00216
2076.65349,0.00206
2074.59332,0.00226
2072.53315,0.00255
2070.47298,0.00274
2068.41281,0.00258
2066.35263,0.00232
2064.29246,0.00230
2062.23229,0.00218
2060.17212,0.00197
2058.11194,0.00225
2056.05177,0.00282
2053.99160,0.00314
2051.93143,0.00305
2049.87126,0.00271
2047.81108,0.00251
2045.75091,0.00281
2043.69074,0.00346
2041.63057,0.00378
2039.57040,0.00366
2037.51022,0.00340
2035.45005,0.00270
2033.38988,0.00117
2031.32971,0.00000
2029.26954,0.00047
2027.20936,0.00145
2025.14919,0.00178
2023.08902,0.00183
2021.02885,0.00174
2018.96867,0.00178
2016.90850,0.00241
2014.84833,0.00280
2012.78816,0.00224
2010.72799,0.00153
2008.66781,0.00179
2006.60764,0.00283
2004.54747,0.00333
2002.48730,0.00276
2000.42713,0.00174
1998.36695,0.00129
1996.30678,0.00171
1994.24661,0.00254
1992.18644,0.00331
1990.12626,0.00359
1988.06609,0.00330
1986.00592,0.00259
1983.94575,0.00174
1981.88558,0.00101
1979.82540,0.00042
1977.76523,0.00000
1975.70506,0.00003
1973.64489,0.00099
1971.58472,0.00243
1969.52454,0.00343
1967.46437,0.00347
1965.40420,0.00271
1963.34403,0.00199
1961.28386,0.00171
1959.22368,0.00174
1957.16351,0.00198
1955.10334,0.00217
1953.04317,0.00224
1950.98299,0.00223
1948.92282,0.00213
1946.86265,0.00224
1944.80248,0.00264
1942.74231,0.00292
1940.68213,0.00283
1938.62196,0.00259
1936.56179,0.00250
1934.50162,0.00262
1932.44145,0.00267
1930.38127,0.00254
1928.32110,0.00248
1926.26093,0.00260
1924.20076,0.00288
1922.14059,0.00313
1920.08041,0.00318
1918.02024,0.00316
1915.96007,0.00347
1913.89990,0.00390
1911.83972,0.00387
1909.77955,0.00346
1907.71938,0.00308
1905.65921,0.00292
1903.59904,0.00295
1901.53886,0.00305
1899.47869,0.00310
1897.41852,0.00326
1895.35835,0.00365
1893.29818,0.00399
1891.23800,0.00403
1889.17783,0.00404
1887.11766,0.00420
1885.05749,0.00433
1882.99731,0.00443
1880.93714,0.00450
1878.87697,0.00441
1876.81680,0.00424
1874.75663,0.00431
1872.69645,0.00446
1870.63628,0.00439
1868.57611,0.00419
1866.51594,0.00419
1864.45577,0.00440
1862.39559,0.00476
1860.33542,0.00516
1858.27525,0.00536
1856.21508,0.00522
1854.15491,0.00500
1852.09473,0.00495
1850.03456,0.00510
1847.97439,0.00529
1845.91422,0.00534
1843.85404,0.00537
1841.79387,0.00561
1839.73370,0.00589
1837.67353,0.00590
1835.61336,0.00573
1833.55318,0.00554
1831.49301,0.00527
1829.43284,0.00517
1827.37267,0.00546
1825.31250,0.00582
1823.25232,0.00603
1821.19215,0.00607
1819.13198,0.00607
1817.07181,0.00623
1815.01163,0.00637
1812.95146,0.00639
1810.89129,0.00650
1808.83112,0.00673
1806.77095,0.00683
1804.71077,0.00675
1802.65060,0.00674
1800.59043,0.00685
1798.53026,0.00698
1796.47009,0.00701
1794.40991,0.00700
1792.34974,0.00707
1790.28957,0.00717
1788.22940,0.00718
1786.16923,0.00713
1784.10905,0.00700
1782.04888,0.00684
1779.98871,0.00682
1777.92854,0.00687
1775.86836,0.00679
1773.80819,0.00662
1771.74802,0.00674
1769.68785,0.00724
1767.62768,0.00755
1765.56750,0.00748
1763.50733,0.00739
1761.44716,0.00753
1759.38699,0.00777
1757.32682,0.00792
1755.26664,0.00802
1753.20647,0.00809
1751.14630,0.00808
1749.08613,0.00791
1747.02596,0.00779
1744.96578,0.00787
1742.90561,0.00803
1740.84544,0.00808
1738.78527,0.00801
1736.72509,0.00794
1734.66492,0.00799
1732.60475,0.00803
1730.54458,0.00788
1728.48441,0.00776
1726.42423,0.00770
1724.36406,0.00765
1722.30389,0.00754
1720.24372,0.00727
1718.18355,0.00715
1716.12337,0.00759
1714.06320,0.00796
1712.00303,0.00801
1709.94286,0.00792
1707.88268,0.00777
1705.82251,0.00766
1703.76234,0.00759
1701.70217,0.00739
1699.64200,0.00736
1697.58182,0.00785
1695.52165,0.00855
1693.46148,0.00910
1691.40131,0.00943
1689.34114,0.00954
1687.28096,0.00944
1685.22079,0.00945
1683.16062,0.01013
1681.10045,0.01090
1679.04028,0.01112
1676.98010,0.01104
1674.91993,0.01108
1672.85976,0.01124
1670.79959,0.01142
1668.73941,0.01179
1666.67924,0.01213
1664.61907,0.01221
1662.55890,0.01236
1660.49873,0.01278
1658.43855,0.01307
1656.37838,0.01289
1654.31821,0.01252
1652.25804,0.01261
1650.19787,0.01277
1648.13769,0.01270
1646.07752,0.01275
1644.01735,0.01302
1641.95718,0.01306
1639.89701,0.01261
1637.83683,0.01185
1635.77666,0.01147
1633.71649,0.01176
1631.65632,0.01200
1629.59614,0.01193
1627.53597,0.01168
1625.47580,0.01134
1623.41563,0.01105
1621.35546,0.01093
1619.29528,0.01070
1617.23511,0.01039
1615.17494,0.01038
1613.11477,0.01049
1611.05460,0.01032
1608.99442,0.01000
1606.93425,0.00982
1604.87408,0.00975
1602.81391,0.00970
1600.75373,0.00966
1598.69356,0.00944
1596.63339,0.00909
1594.57322,0.00894
1592.51305,0.00898
1590.45287,0.00888
1588.39270,0.00860
1586.33253,0.00832
1584.27236,0.00810
1582.21219,0.00784
1580.15201,0.00739
1578.09184,0.00679
1576.03167,0.00648
1573.97150,0.00666
1571.91133,0.00676
1569.85115,0.00664
1567.79098,0.00667
1565.73081,0.00688
1563.67064,0.00695
1561.61046,0.00667
1559.55029,0.00641
1557.49012,0.00684
1555.42995,0.00728
1553.36978,0.00740
1551.30960,0.00736
1549.24943,0.00717
1547.18926,0.00684
1545.12909,0.00631
1543.06892,0.00559
1541.00874,0.00501
1538.94857,0.00518
1536.88840,0.00563
1534.82823,0.00577
1532.76805,0.00579
1530.70788,0.00593
1528.64771,0.00604
1526.58754,0.00600
1524.52737,0.00577
1522.46719,0.00548
1520.40702,0.00543
1518.34685,0.00546
1516.28668,0.00550
1514.22651,0.00561
1512.16633,0.00568
1510.10616,0.00552
1508.04599,0.00500
1505.98582,0.00446
1503.92565,0.00437
1501.86547,0.00443
1499.80530,0.00430
1497.74513,0.00411
1495.68496,0.00399
1493.62478,0.00384
1491.56461,0.00360
1489.50444,0.00344
1487.44427,0.00342
1485.38410,0.00342
1483.32392,0.00331
1481.26375,0.00320
1479.20358,0.00318
1477.14341,0.00318
1475.08324,0.00311
1473.02306,0.00312
1470.96289,0.00327
1468.90272,0.00336
1466.84255,0.00333
1464.78238,0.00338
1462.72220,0.00358
1460.66203,0.00370
1458.60186,0.00380
1456.54169,0.00407
1454.48151,0.00418
1452.42134,0.00419
1450.36117,0.00421
1448.30100,0.00420
1446.24083,0.00413
1444.18065,0.00407
1442.12048,0.00406
1440.06031,0.00409
1438.00014,0.00417
1435.93997,0.00432
1433.87979,0.00441
1431.81962,0.00443
1429.75945,0.00453
1427.69928,0.00481
1425.63910,0.00508
1423.57893,0.00529
1421.51876,0.00561
1419.45859,0.00621
1417.39842,0.00683
1415.33824,0.00701
1413.27807,0.00699
1411.21790,0.00710
1409.15773,0.00733
1407.09756,0.00758
1405.03738,0.00785
1402.97721,0.00802
1400.91704,0.00805
1398.85687,0.00819
1396.79670,0.00844
1394.73652,0.00855
1392.67635,0.00850
1390.61618,0.00846
1388.55601,0.00849
1386.49583,0.00850
1384.43566,0.00840
1382.37549,0.00831
1380.31532,0.00837
1378.25515,0.00844
1376.19497,0.00845
1374.13480,0.00858
1372.07463,0.00887
1370.01446,0.00907
1367.95429,0.00909
1365.89411,0.00908
1363.83394,0.00921
1361.77377,0.00941
1359.71360,0.00938
1357.65343,0.00919
1355.59325,0.00905
1353.53308,0.00895
1351.47291,0.00874
1349.41274,0.00840
1347.35256,0.00798
1345.29239,0.00762
1343.23222,0.00743
1341.17205,0.00740
1339.11188,0.00729
1337.05170,0.00678
1334.99153,0.00609
1332.93136,0.00554
1330.87119,0.00512
1328.81102,0.00481
1326.75084,0.00456
1324.69067,0.00433
1322.63050,0.00414
1320.57033,0.00401
1318.51015,0.00397
1316.44998,0.00398
1314.38981,0.00387
1312.32964,0.00359
1310.26947,0.00326
1308.20929,0.00294
1306.14912,0.00266
1304.08895,0.00252
1302.02878,0.00250
1299.96861,0.00250
1297.90843,0.00244
1295.84826,0.00237
1293.78809,0.00230
1291.72792,0.00220
1289.66775,0.00206
1287.60757,0.00191
1285.54740,0.00176
1283.48723,0.00158
1281.42706,0.00150
1279.36688,0.00156
1277.30671,0.00154
1275.24654,0.00144
1273.18637,0.00141
1271.12620,0.00149
1269.06602,0.00151
1267.00585,0.00133
1264.94568,0.00114
1262.88551,0.00113
1260.82534,0.00125
1258.76516,0.00134
1256.70499,0.00135
1254.64482,0.00132
1252.58465,0.00129
1250.52447,0.00132
1248.46430,0.00139
1246.40413,0.00140
1244.34396,0.00129
1242.28379,0.00115
1240.22361,0.00103
1238.16344,0.00090
1236.10327,0.00079
1234.04310,0.00073
1231.98293,0.00077
1229.92275,0.00081
1227.86258,0.00077
1225.80241,0.00067
1223.74224,0.00050
1221.68207,0.00029
1219.62189,0.00011
1217.56172,0.00000
1215.50155,0.00006
1213.44138,0.00016
1211.38120,0.00016
1209.32103,0.00018
1207.26086,0.00028
1205.20069,0.00039
1203.14052,0.00057
1201.08034,0.00088
1199.02017,0.00132
1196.96000,0.00184
1194.89983,0.00250
1192.83966,0.00338
1190.77948,0.00441
1188.71931,0.00545
1186.65914,0.00654
1184.59897,0.00783
1182.53880,0.00927
1180.47862,0.01058
1178.41845,0.01179
1176.35828,0.01311
1174.29811,0.01450
1172.23793,0.01583
1170.17776,0.01708
1168.11759,0.01832
1166.05742,0.01960
1163.99725,0.02087
1161.93707,0.02199
1159.87690,0.02304
1157.81673,0.02412
1155.75656,0.02521
1153.69639,0.02629
1151.63621,0.02727
1149.57604,0.02803
1147.51587,0.02873
1145.45570,0.02950
1143.39552,0.03011
1141.33535,0.03039
1139.27518,0.03049
1137.21501,0.03037
1135.15484,0.02987
1133.09466,0.02914
1131.03449,0.02853
1128.97432,0.02817
1126.91415,0.02790
1124.85398,0.02775
1122.79380,0.02789
1120.73363,0.02830
1118.67346,0.02870
1116.61329,0.02905
1114.55312,0.02946
1112.49294,0.02997
1110.43277,0.03075
1108.37260,0.03181
1106.31243,0.03281
1104.25225,0.03374
1102.19208,0.03479
1100.13191,0.03591
1098.07174,0.03691
1096.01157,0.03774
1093.95139,0.03858
1091.89122,0.03965
1089.83105,0.04089
1087.77088,0.04209
1085.71071,0.04325
1083.65053,0.04447
1081.59036,0.04556
1079.53019,0.04643
1077.47002,0.04735
1075.40985,0.04834
1073.34967,0.04914
1071.28950,0.04966
1069.22933,0.04985
1067.16916,0.04975
1065.10898,0.04944
1063.04881,0.04908
1060.98864,0.04884
1058.92847,0.04847
1056.86830,0.04770
1054.80812,0.04671
1052.74795,0.04570
1050.68778,0.04462
1048.62761,0.04345
1046.56744,0.04208
1044.50726,0.04061
1042.44709,0.03918
1040.38692,0.03767
1038.32675,0.03605
1036.26657,0.03463
1034.20640,0.03347
1032.14623,0.03206
1030.08606,0.03031
1028.02589,0.02872
1025.96571,0.02741
1023.90554,0.02614
1021.84537,0.02488
1019.78520,0.02374
1017.72503,0.02271
1015.66485,0.02195
1013.60468,0.02167
1011.54451,0.02176
1009.48434,0.02183
1007.42417,0.02181
1005.36399,0.02196
1003.30382,0.02242
1001.24365,0.02295
999.18348,0.02351
997.12330,0.02420
995.06313,0.02475
993.00296,0.02497
990.94279,0.02518
988.88262,0.02565
986.82244,0.02615
984.76227,0.02656
982.70210,0.02686
980.64193,0.02697
978.58176,0.02711
976.52158,0.02742
974.46141,0.02758
972.40124,0.02749
970.34107,0.02744
968.28089,0.02749
966.22072,0.02748
964.16055,0.02739
962.10038,0.02735
960.04021,0.02744
957.98003,0.02755
955.91986,0.02772
953.85969,0.02810
951.79952,0.02852
949.73935,0.02888
947.67917,0.02914
945.61900,0.02919
943.55883,0.02921
941.49866,0.02914
939.43849,0.02865
937.37831,0.02790
935.31814,0.02717
933.25797,0.02643
931.19780,0.02565
929.13762,0.02481
927.07745,0.02385
925.01728,0.02281
922.95711,0.02160
920.89694,0.02028
918.83676,0.01906
916.77659,0.01794
914.71642,0.01694
912.65625,0.01614
910.59608,0.01534
908.53590,0.01443
906.47573,0.01348
904.41556,0.01259
902.35539,0.01203
900.29522,0.01175
898.23504,0.01145
896.17487,0.01121
894.11470,0.01127
892.05453,0.01138
889.99435,0.01139
887.93418,0.01160
885.87401,0.01224
883.81384,0.01318
881.75367,0.01420
879.69349,0.01528
877.63332,0.01660
875.57315,0.01823
873.51298,0.01995
871.45281,0.02164
869.39263,0.02353
867.33246,0.02576
865.27229,0.02819
863.21212,0.03064
861.15194,0.03289
859.09177,0.03466
857.03160,0.03567
854.97143,0.03581
852.91126,0.03544
850.85108,0.03490
848.79091,0.03431
846.73074,0.03360
844.67057,0.03270
842.61040,0.03159
840.55022,0.03014
838.49005,0.02842
836.42988,0.02688
834.36971,0.02565
832.30954,0.02453
830.24936,0.02348
828.18919,0.02257
826.12902,0.02169
824.06885,0.02074
822.00867,0.01978
819.94850,0.01895
817.88833,0.01829
815.82816,0.01761
813.76799,0.01677
811.70781,0.01574
809.64764,0.01481
807.58747,0.01436
805.52730,0.01426
803.46713,0.01404
801.40695,0.01371
799.34678,0.01335
797.28661,0.01286
795.22644,0.01250
793.16627,0.01227
791.10609,0.01194
789.04592,0.01155
786.98575,0.01109
784.92558,0.01074
782.86540,0.01065
780.80523,0.01040
778.74506,0.00993
776.68489,0.00952
774.62472,0.00933
772.56454,0.00938
770.50437,0.00937
768.44420,0.00896
766.38403,0.00838
764.32386,0.00794
762.26368,0.00781
760.20351,0.00791
758.14334,0.00776
756.08317,0.00727
754.02299,0.00707
751.96282,0.00748
749.90265,0.00776
747.84248,0.00728
745.78231,0.00660
743.72213,0.00637
741.66196,0.00639
739.60179,0.00623
737.54162,0.00596
735.48145,0.00595
733.42127,0.00605
731.36110,0.00583
729.30093,0.00546
727.24076,0.00530
725.18059,0.00534
723.12041,0.00585
721.06024,0.00579
719.00007,0.00553
716.93990,0.00522
714.87972,0.00461
712.81955,0.00425
710.75938,0.00433
708.69921,0.00469
706.63904,0.00522
704.57886,0.00563
702.51869,0.00560
700.45852,0.00550
698.39835,0.00569
696.33818,0.00569
694.27800,0.00533
692.21783,0.00515
690.15766,0.00512
688.09749,0.00488
686.03731,0.00478
683.97714,0.00499
681.91697,0.00514
679.85680,0.00496
677.79663,0.00472
675.73645,0.00492
673.67628,0.00461
671.61611,0.00134
669.55594,0.00000
667.49577,0.00437
665.43559,0.00173
663.37542,0.00430
661.31525,0.00566
659.25508,0.00465
657.19491,0.00343
655.13473,0.00330
653.07456,0.00394
651.01439,0.00454
648.95422,0.00501
646.89404,0.00500
644.83387,0.00456
642.77370,0.00392
640.71353,0.00332
638.65336,0.00301
636.59318,0.00307
634.53301,0.00316
632.47284,0.00302
630.41267,0.00270
628.35250,0.00238
626.29232,0.00168
624.23215,0.00059
622.17198,0.00000
620.11181,0.00098
618.05164,0.00281
615.99146,0.00308
613.93129,0.00252
611.87112,0.00255
609.81095,0.00248
607.75077,0.00265
605.69060,0.00292
603.63043,0.00219
601.57026,0.00077
599.51009,0.00000
