3996.73391,0.00076
3994.67374,0.00083
3992.61357,0.00081
3990.55339,0.00069
3988.49322,0.00037
3986.43305,0.00012
3984.37288,0.00025
3982.31271,0.00060
3980.25253,0.00082
3978.19236,0.00078
3976.13219,0.00065
3974.07202,0.00066
3972.01184,0.00084
3969.95167,0.00100
3967.89150,0.00105
3965.83133,0.00097
3963.77116,0.00094
3961.71098,0.00102
3959.65081,0.00091
3957.59064,0.00068
3955.53047,0.00070
3953.47030,0.00072
3951.41012,0.00039
3949.34995,0.00000
3947.28978,0.00005
3945.22961,0.00049
3943.16943,0.00086
3941.10926,0.00090
3939.04909,0.00075
3936.98892,0.00066
3934.92875,0.00066
3932.86857,0.00063
3930.80840,0.00061
3928.74823,0.00067
3926.68806,0.00068
3924.62789,0.00072
3922.56771,0.00080
3920.50754,0.00064
3918.44737,0.00039
3916.38720,0.00049
3914.32703,0.00085
3912.26685,0.00116
3910.20668,0.00131
3908.14651,0.00114
3906.08634,0.00071
3904.02616,0.00035
3901.96599,0.00026
3899.90582,0.00039
3897.84565,0.00057
3895.78548,0.00061
3893.72530,0.00053
3891.66513,0.00065
3889.60496,0.00090
3887.54479,0.00095
3885.48462,0.00088
3883.42444,0.00079
3881.36427,0.00066
3879.30410,0.00064
3877.24393,0.00058
3875.18376,0.00040
3873.12358,0.00023
3871.06341,0.00014
3869.00324,0.00030
3866.94307,0.00060
3864.88289,0.00076
3862.82272,0.00078
3860.76255,0.00075
3858.70238,0.00054
3856.64221,0.00021
3854.58203,0.00028
3852.52186,0.00081
3850.46169,0.00112
3848.40152,0.00116
3846.34135,0.00122
3844.28117,0.00123
3842.22100,0.00095
3840.16083,0.00058
3838.10066,0.00062
3836.04048,0.00108
3833.98031,0.00146
3831.92014,0.00147
3829.85997,0.00120
3827.79980,0.00101
3825.73962,0.00117
3823.67945,0.00162
3821.61928,0.00205
3819.55911,0.00202
3817.49894,0.00164
3815.43876,0.00148
3813.37859,0.00149
3811.31842,0.00138
3809.25825,0.00119
3807.19808,0.00096
3805.13790,0.00084
3803.07773,0.00128
3801.01756,0.00208
3798.95739,0.00232
3796.89721,0.00202
3794.83704,0.00167
3792.77687,0.00140
3790.71670,0.00127
3788.65653,0.00130
3786.59635,0.00143
3784.53618,0.00163
3782.47601,0.00183
3780.41584,0.00197
3778.35567,0.00196
3776.29549,0.00175
3774.23532,0.00149
3772.17515,0.00146
3770.11498,0.00167
3768.05481,0.00178
3765.99463,0.00173
3763.93446,0.00166
3761.87429,0.00147
3759.81412,0.00116
3757.75394,0.00083
3755.69377,0.00059
3753.63360,0.00064
3751.57343,0.00103
3749.51326,0.00137
3747.45308,0.00149
3745.39291,0.00160
3743.33274,0.00154
3741.27257,0.00102
3739.21240,0.00038
3737.15222,0.00001
3735.09205,0.00013
3733.03188,0.00072
3730.97171,0.00109
3728.91153,0.00101
3726.85136,0.00095
3724.79119,0.00111
3722.73102,0.00140
3720.67085,0.00174
3718.61067,0.00180
3716.55050,0.00153
3714.49033,0.00137
3712.43016,0.00145
3710.36999,0.00149
3708.30981,0.00134
3706.24964,0.00129
3704.18947,0.00149
3702.12930,0.00182
3700.06913,0.00195
3698.00895,0.00193
3695.94878,0.00203
3693.88861,0.00216
3691.82844,0.00227
3689.76826,0.00238
3687.70809,0.00243
3685.64792,0.00241
3683.58775,0.00227
3681.52758,0.00203
3679.46740,0.00176
3677.40723,0.00149
3675.34706,0.00145
3673.28689,0.00173
3671.22672,0.00201
3669.16654,0.00222
3667.10637,0.00218
3665.04620,0.00196
3662.98603,0.00189
3660.92586,0.00200
3658.86568,0.00221
3656.80551,0.00253
3654.74534,0.00256
3652.68517,0.00217
3650.62499,0.00208
3648.56482,0.00267
3646.50465,0.00313
3644.44448,0.00312
3642.38431,0.00322
3640.32413,0.00352
3638.26396,0.00367
3636.20379,0.00353
3634.14362,0.00331
3632.08345,0.00340
3630.02327,0.00406
3627.96310,0.00473
3625.90293,0.00461
3623.84276,0.00425
3621.78258,0.00429
3619.72241,0.00472
3617.66224,0.00521
3615.60207,0.00544
3613.54190,0.00530
3611.48172,0.00497
3609.42155,0.00502
3607.36138,0.00568
3605.30121,0.00640
3603.24104,0.00672
3601.18086,0.00685
3599.12069,0.00698
3597.06052,0.00693
3595.00035,0.00685
3592.94018,0.00708
3590.88000,0.00743
3588.81983,0.00760
3586.75966,0.00779
3584.69949,0.00810
3582.63931,0.00834
3580.57914,0.00854
3578.51897,0.00877
3576.45880,0.00912
3574.39863,0.00952
3572.33845,0.00976
3570.27828,0.00958
3568.21811,0.00920
3566.15794,0.00936
3564.09777,0.01008
3562.03759,0.01058
3559.97742,0.01073
3557.91725,0.01082
3555.85708,0.01092
3553.79690,0.01114
3551.73673,0.01152
3549.67656,0.01179
3547.61639,0.01177
3545.55622,0.01177
3543.49604,0.01202
3541.43587,0.01228
3539.37570,0.01234
3537.31553,0.01234
3535.25536,0.01248
3533.19518,0.01274
3531.13501,0.01302
3529.07484,0.01322
3527.01467,0.01340
3524.95450,0.01371
3522.89432,0.01419
3520.83415,0.01469
3518.77398,0.01497
3516.71381,0.01499
3514.65363,0.01492
3512.59346,0.01485
3510.53329,0.01484
3508.47312,0.01498
3506.41295,0.01529
3504.35277,0.01556
3502.29260,0.01572
3500.23243,0.01601
3498.17226,0.01641
3496.11209,0.01671
3494.05191,0.01693
3491.99174,0.01711
3489.93157,0.01724
3487.87140,0.01748
3485.81123,0.01777
3483.75105,0.01786
3481.69088,0.01781
3479.63071,0.01784
3477.57054,0.01805
3475.51036,0.01848
3473.45019,0.01895
3471.39002,0.01913
3469.32985,0.01897
3467.26968,0.01878
3465.20950,0.01882
3463.14933,0.01918
3461.08916,0.01972
3459.02899,0.02010
3456.96882,0.02005
3454.90864,0.01994
3452.84847,0.02025
3450.78830,0.02064
3448.72813,0.02074
3446.66795,0.02091
3444.60778,0.02117
3442.54761,0.02136
3440.48744,0.02150
3438.42727,0.02146
3436.36709,0.02143
3434.30692,0.02151
3432.24675,0.02154
3430.18658,0.02160
3428.12641,0.02176
3426.06623,0.02195
3424.00606,0.02213
3421.94589,0.02211
3419.88572,0.02205
3417.82555,0.02228
3415.76537,0.02260
3413.70520,0.02269
3411.64503,0.02262
3409.58486,0.02265
3407.52468,0.02295
3405.46451,0.02338
3403.40434,0.02346
3401.34417,0.02330
3399.28400,0.02330
3397.22382,0.02370
3395.16365,0.02401
3393.10348,0.02411
3391.04331,0.02409
3388.98314,0.02404
3386.92296,0.02410
3384.86279,0.02444
3382.80262,0.02478
3380.74245,0.02481
3378.68228,0.02470
3376.62210,0.02463
3374.56193,0.02465
3372.50176,0.02477
3370.44159,0.02491
3368.38141,0.02509
3366.32124,0.02528
3364.26107,0.02525
3362.20090,0.02498
3360.14073,0.02487
3358.08055,0.02519
3356.02038,0.02559
3353.96021,0.02564
3351.90004,0.02544
3349.83987,0.02532
3347.77969,0.02542
3345.71952,0.02572
3343.65935,0.02606
3341.59918,0.02615
3339.53900,0.02597
3337.47883,0.02583
3335.41866,0.02590
3333.35849,0.02602
3331.29832,0.02597
3329.23814,0.02597
3327.17797,0.02610
3325.11780,0.02632
3323.05763,0.02654
3320.99746,0.02667
3318.93728,0.02681
3316.87711,0.02696
3314.81694,0.02695
3312.75677,0.02685
3310.69660,0.02686
3308.63642,0.02695
3306.57625,0.02705
3304.51608,0.02716
3302.45591,0.02731
3300.39573,0.02748
3298.33556,0.02752
3296.27539,0.02743
3294.21522,0.02761
3292.15505,0.02790
3290.09487,0.02779
3288.03470,0.02752
3285.97453,0.02737
3283.91436,0.02738
3281.85419,0.02769
3279.79401,0.02813
3277.73384,0.02822
3275.67367,0.02802
3273.61350,0.02794
3271.55333,0.02795
3269.49315,0.02787
3267.43298,0.02790
3265.37281,0.02808
3263.31264,0.02812
3261.25246,0.02795
3259.19229,0.02788
3257.13212,0.02788
3255.07195,0.02775
3253.01178,0.02767
3250.95160,0.02787
3248.89143,0.02815
3246.83126,0.02829
3244.77109,0.02828
3242.71092,0.02825
3240.65074,0.02815
3238.59057,0.02791
3236.53040,0.02775
3234.47023,0.02784
3232.41005,0.02803
3230.34988,0.02800
3228.28971,0.02785
3226.22954,0.02788
3224.16937,0.02788
3222.10919,0.02771
3220.04902,0.02766
3217.98885,0.02772
3215.92868,0.02764
3213.86851,0.02765
3211.80833,0.02786
3209.74816,0.02788
3207.68799,0.02770
3205.62782,0.02765
3203.56765,0.02776
3201.50747,0.02780
3199.44730,0.02763
3197.38713,0.02745
3195.32696,0.02734
3193.26678,0.02718
3191.20661,0.02707
3189.14644,0.02706
3187.08627,0.02712
3185.02610,0.02720
3182.96592,0.02714
3180.90575,0.02688
3178.84558,0.02666
3176.78541,0.02669
3174.72524,0.02684
3172.66506,0.02695
3170.60489,0.02700
3168.54472,0.02705
3166.48455,0.02700
3164.42437,0.02673
3162.36420,0.02646
3160.30403,0.02648
3158.24386,0.02662
3156.18369,0.02665
3154.12351,0.02659
3152.06334,0.02640
3150.00317,0.02625
3147.94300,0.02636
3145.88283,0.02630
3143.82265,0.02587
3141.76248,0.02560
3139.70231,0.02561
3137.64214,0.02558
3135.58197,0.02549
3133.52179,0.02535
3131.46162,0.02523
3129.40145,0.02523
3127.34128,0.02532
3125.28110,0.02534
3123.22093,0.02517
3121.16076,0.02505
3119.10059,0.02518
3117.04042,0.02524
3114.98024,0.02495
3112.92007,0.02464
3110.85990,0.02457
3108.79973,0.02464
3106.73956,0.02463
3104.67938,0.02452
3102.61921,0.02442
3100.55904,0.02434
3098.49887,0.02425
3096.43870,0.02417
3094.37852,0.02413
3092.31835,0.02415
3090.25818,0.02421
3088.19801,0.02419
3086.13783,0.02401
3084.07766,0.02377
3082.01749,0.02364
3079.95732,0.02363
3077.89715,0.02367
3075.83697,0.02372
3073.77680,0.02354
3071.71663,0.02318
3069.65646,0.02294
3067.59629,0.02293
3065.53611,0.02298
3063.47594,0.02297
3061.41577,0.02290
3059.35560,0.02281
3057.29542,0.02276
3055.23525,0.02276
3053.17508,0.02264
3051.11491,0.02246
3049.05474,0.02238
3046.99456,0.02226
3044.93439,0.02206
3042.87422,0.02191
3040.81405,0.02183
3038.75388,0.02175
3036.69370,0.02155
3034.63353,0.02127
3032.57336,0.02099
3030.51319,0.02086
3028.45302,0.02080
3026.39284,0.02075
3024.33267,0.02088
3022.27250,0.02108
3020.21233,0.02102
3018.15215,0.02079
3016.09198,0.02070
3014.03181,0.02075
3011.97164,0.02066
3009.91147,0.02038
3007.85129,0.02007
3005.79112,0.01971
3003.73095,0.01948
3001.67078,0.01956
2999.61061,0.01985
2997.55043,0.02003
2995.49026,0.02003
2993.43009,0.01993
2991.36992,0.01980
2989.30975,0.01958
2987.24957,0.01932
2985.18940,0.01920
2983.12923,0.01927
2981.06906,0.01947
2979.00888,0.01976
2976.94871,0.01997
2974.88854,0.01989
2972.82837,0.01960
2970.76820,0.01935
2968.70802,0.01927
2966.64785,0.01924
2964.58768,0.01925
2962.52751,0.01926
2960.46734,0.01913
2958.40716,0.01901
2956.34699,0.01903
2954.28682,0.01905
2952.22665,0.01903
2950.16647,0.01899
2948.10630,0.01894
2946.04613,0.01897
2943.98596,0.01893
2941.92579,0.01879
2939.86561,0.01875
2937.80544,0.01875
2935.74527,0.01875
2933.68510,0.01876
2931.62493,0.01879
2929.56475,0.01883
2927.50458,0.01877
2925.44441,0.01861
2923.38424,0.01847
2921.32407,0.01844
2919.26389,0.01852
2917.20372,0.01850
2915.14355,0.01833
2913.08338,0.01820
2911.02320,0.01814
2908.96303,0.01802
2906.90286,0.01797
2904.84269,0.01803
2902.78252,0.01796
2900.72234,0.01777
2898.66217,0.01771
2896.60200,0.01776
2894.54183,0.01778
2892.48166,0.01765
2890.42148,0.01751
2888.36131,0.01755
2886.30114,0.01762
2884.24097,0.01755
2882.18080,0.01726
2880.12062,0.01695
2878.06045,0.01689
2876.00028,0.01708
2873.94011,0.01720
2871.87993,0.01711
2869.81976,0.01691
2867.75959,0.01682
2865.69942,0.01689
2863.63925,0.01694
2861.57907,0.01686
2859.51890,0.01677
2857.45873,0.01661
2855.39856,0.01630
2853.33839,0.01608
2851.27821,0.01598
2849.21804,0.01586
2847.15787,0.01577
2845.09770,0.01566
2843.03752,0.01540
2840.97735,0.01528
2838.91718,0.01543
2836.85701,0.01551
2834.79684,0.01544
2832.73666,0.01539
2830.67649,0.01530
2828.61632,0.01515
2826.55615,0.01502
2824.49598,0.01486
2822.43580,0.01467
2820.37563,0.01453
2818.31546,0.01449
2816.25529,0.01442
2814.19512,0.01423
2812.13494,0.01419
2810.07477,0.01432
2808.01460,0.01429
2805.95443,0.01419
2803.89425,0.01411
2801.83408,0.01402
2799.77391,0.01399
2797.71374,0.01404
2795.65357,0.01403
2793.59339,0.01395
2791.53322,0.01379
2789.47305,0.01345
2787.41288,0.01313
2785.35271,0.01311
2783.29253,0.01318
2781.23236,0.01308
2779.17219,0.01298
2777.11202,0.01305
2775.05184,0.01302
2772.99167,0.01281
2770.93150,0.01275
2768.87133,0.01280
2766.81116,0.01271
2764.75098,0.01253
2762.69081,0.01247
2760.63064,0.01255
2758.57047,0.01263
2756.51030,0.01245
2754.45012,0.01207
2752.38995,0.01189
2750.32978,0.01183
2748.26961,0.01166
2746.20944,0.01159
2744.14926,0.01168
2742.08909,0.01174
2740.02892,0.01163
2737.96875,0.01145
2735.90857,0.01143
2733.84840,0.01149
2731.78823,0.01130
2729.72806,0.01100
2727.66789,0.01100
2725.60771,0.01117
2723.54754,0.01112
2721.48737,0.01095
2719.42720,0.01090
2717.36703,0.01097
2715.30685,0.01099
2713.24668,0.01085
2711.18651,0.01067
2709.12634,0.01054
2707.06617,0.01033
2705.00599,0.01019
2702.94582,0.01020
2700.88565,0.01020
2698.82548,0.01009
2696.76530,0.00997
2694.70513,0.00992
2692.64496,0.00989
2690.58479,0.00981
2688.52462,0.00965
2686.46444,0.00950
2684.40427,0.00943
2682.34410,0.00948
2680.28393,0.00962
2678.22376,0.00974
2676.16358,0.00973
2674.10341,0.00953
2672.04324,0.00931
2669.98307,0.00926
2667.92289,0.00935
2665.86272,0.00946
2663.80255,0.00952
2661.74238,0.00948
2659.68221,0.00939
2657.62203,0.00926
2655.56186,0.00910
2653.50169,0.00897
2651.44152,0.00888
2649.38135,0.00887
2647.32117,0.00884
2645.26100,0.00876
2643.20083,0.00875
2641.14066,0.00882
2639.08049,0.00883
2637.02031,0.00876
2634.96014,0.00871
2632.89997,0.00873
2630.83980,0.00870
2628.77962,0.00852
2626.71945,0.00828
2624.65928,0.00826
2622.59911,0.00839
2620.53894,0.00836
2618.47876,0.00818
2616.41859,0.00807
2614.35842,0.00815
2612.29825,0.00830
2610.23808,0.00815
2608.17790,0.00787
2606.11773,0.00784
2604.05756,0.00784
2601.99739,0.00772
2599.93722,0.00750
2597.87704,0.00722
2595.81687,0.00712
2593.75670,0.00733
2591.69653,0.00760
2589.63635,0.00767
2587.57618,0.00763
2585.51601,0.00770
2583.45584,0.00784
2581.39567,0.00780
2579.33549,0.00772
2577.27532,0.00776
2575.21515,0.00766
2573.15498,0.00750
2571.09481,0.00761
2569.03463,0.00787
2566.97446,0.00789
2564.91429,0.00766
2562.85412,0.00752
2560.79394,0.00757
2558.73377,0.00758
2556.67360,0.00758
2554.61343,0.00777
2552.55326,0.00790
2550.49308,0.00778
2548.43291,0.00758
2546.37274,0.00750
2544.31257,0.00764
2542.25240,0.00776
2540.19222,0.00761
2538.13205,0.00753
2536.07188,0.00766
2534.01171,0.00766
2531.95154,0.00743
2529.89136,0.00721
2527.83119,0.00712
2525.77102,0.00715
2523.71085,0.00744
2521.65067,0.00785
2519.59050,0.00801
2517.53033,0.00803
2515.47016,0.00793
2513.40999,0.00767
2511.34981,0.00759
2509.28964,0.00770
2507.22947,0.00768
2505.16930,0.00762
2503.10913,0.00768
2501.04895,0.00779
2498.98878,0.00789
2496.92861,0.00800
2494.86844,0.00808
2492.80827,0.00806
2490.74809,0.00790
2488.68792,0.00773
2486.62775,0.00769
2484.56758,0.00773
2482.50740,0.00793
2480.44723,0.00820
2478.38706,0.00839
2476.32689,0.00848
2474.26672,0.00862
2472.20654,0.00866
2470.14637,0.00837
2468.08620,0.00834
2466.02603,0.00881
2463.96586,0.00901
2461.90568,0.00865
2459.84551,0.00842
2457.78534,0.00849
2455.72517,0.00854
2453.66499,0.00866
2451.60482,0.00891
2449.54465,0.00902
2447.48448,0.00885
2445.42431,0.00863
2443.36413,0.00875
2441.30396,0.00889
2439.24379,0.00879
2437.18362,0.00868
2435.12345,0.00862
2433.06327,0.00859
2431.00310,0.00847
2428.94293,0.00827
2426.88276,0.00826
2424.82259,0.00851
2422.76241,0.00863
2420.70224,0.00847
2418.64207,0.00851
2416.58190,0.00886
2414.52172,0.00904
2412.46155,0.00887
2410.40138,0.00866
2408.34121,0.00858
2406.28104,0.00854
2404.22086,0.00847
2402.16069,0.00847
2400.10052,0.00847
2398.04035,0.00819
2395.98018,0.00811
2393.92000,0.00837
2391.85983,0.00855
2389.79966,0.00841
2387.73949,0.00815
2385.67931,0.00803
2383.61914,0.00806
2381.55897,0.00804
2379.49880,0.00779
2377.43863,0.00746
2375.37845,0.00721
2373.31828,0.00725
2371.25811,0.00758
2369.19794,0.00794
2367.13777,0.00851
2365.07759,0.00993
2363.01742,0.01131
2360.95725,0.01176
2358.89708,0.01072
2356.83691,0.00945
2354.77673,0.00839
2352.71656,0.00779
2350.65639,0.00849
2348.59622,0.00913
2346.53604,0.00835
2344.47587,0.00902
2342.41570,0.01037
2340.35553,0.01106
2338.29536,0.01105
2336.23518,0.01057
2334.17501,0.01024
2332.11484,0.00989
2330.05467,0.00946
2327.99450,0.00923
2325.93432,0.00952
2323.87415,0.00928
2321.81398,0.00856
2319.75381,0.00752
2317.69364,0.00689
2315.63346,0.00665
2313.57329,0.00660
2311.51312,0.00651
2309.45295,0.00636
2307.39277,0.00634
2305.33260,0.00643
2303.27243,0.00650
2301.21226,0.00650
2299.15209,0.00670
2297.09191,0.00704
2295.03174,0.00734
2292.97157,0.00760
2290.91140,0.00773
2288.85123,0.00766
2286.79105,0.00743
2284.73088,0.00720
2282.67071,0.00722
2280.61054,0.00749
2278.55036,0.00767
2276.49019,0.00758
2274.43002,0.00752
2272.36985,0.00757
2270.30968,0.00749
2268.24950,0.00738
2266.18933,0.00743
2264.12916,0.00734
2262.06899,0.00697
2260.00882,0.00695
2257.94864,0.00725
2255.88847,0.00691
2253.82830,0.00606
2251.76813,0.00580
2249.70796,0.00616
2247.64778,0.00633
2245.58761,0.00636
2243.52744,0.00642
2241.46727,0.00644
2239.40709,0.00677
2237.34692,0.00705
2235.28675,0.00682
2233.22658,0.00628
2231.16641,0.00597
2229.10623,0.00594
2227.04606,0.00533
2224.98589,0.00459
2222.92572,0.00466
2220.86555,0.00465
2218.80537,0.00414
2216.74520,0.00412
2214.68503,0.00498
2212.62486,0.00603
2210.56469,0.00640
2208.50451,0.00637
2206.44434,0.00624
2204.38417,0.00561
2202.32400,0.00462
2200.26382,0.00424
2198.20365,0.00483
2196.14348,0.00546
2194.08331,0.00550
2192.02314,0.00535
2189.96296,0.00541
2187.90279,0.00530
2185.84262,0.00475
2183.78245,0.00405
2181.72228,0.00335
2179.66210,0.00307
2177.60193,0.00376
2175.54176,0.00459
2173.48159,0.00436
2171.42141,0.00400
2169.36124,0.00449
2167.30107,0.00477
2165.24090,0.00462
2163.18073,0.00480
2161.12055,0.00421
2159.06038,0.00281
2157.00021,0.00220
2154.94004,0.00247
2152.87987,0.00306
2150.81969,0.00337
2148.75952,0.00355
2146.69935,0.00338
2144.63918,0.00293
2142.57901,0.00311
2140.51883,0.00339
2138.45866,0.00308
2136.39849,0.00245
2134.33832,0.00184
2132.27814,0.00150
2130.21797,0.00169
2128.15780,0.00203
2126.09763,0.00203
2124.03746,0.00228
2121.97728,0.00308
2119.91711,0.00359
2117.85694,0.00352
2115.79677,0.00342
2113.73660,0.00352
2111.67642,0.00362
2109.61625,0.00351
2107.55608,0.00331
2105.49591,0.00335
2103.43573,0.00378
2101.37556,0.00391
2099.31539,0.00334
2097.25522,0.00295
2095.19505,0.00315
2093.13487,0.00335
2091.07470,0.00348
2089.01453,0.00350
2086.95436,0.00341
2084.89419,0.00356
2082.83401,0.00411
2080.77384,0.00481
2078.71367,0.00494
2076.65350,0.00430
2074.59333,0.00369
2072.53315,0.00351
2070.47298,0.00313
2068.41281,0.00243
2066.35264,0.00214
2064.29246,0.00248
2062.23229,0.00293
2060.17212,0.00336
2058.11195,0.00375
2056.05178,0.00384
2053.99160,0.00387
2051.93143,0.00417
2049.87126,0.00427
2047.81109,0.00394
2045.75092,0.00348
2043.69074,0.00327
2041.63057,0.00377
2039.57040,0.00438
2037.51023,0.00391
2035.45006,0.00244
2033.38988,0.00106
2031.32971,0.00065
2029.26954,0.00149
2027.20937,0.00282
2025.14919,0.00317
2023.08902,0.00263
2021.02885,0.00277
2018.96868,0.00321
2016.90851,0.00281
2014.84833,0.00266
2012.78816,0.00327
2010.72799,0.00393
2008.66782,0.00424
2006.60765,0.00374
2004.54747,0.00317
2002.48730,0.00326
2000.42713,0.00339
1998.36696,0.00359
1996.30678,0.00405
1994.24661,0.00427
1992.18644,0.00394
1990.12627,0.00327
1988.06610,0.00270
1986.00592,0.00207
1983.94575,0.00169
1981.88558,0.00258
1979.82541,0.00399
1977.76524,0.00380
1975.70506,0.00184
1973.64489,0.00014
1971.58472,0.00012
1969.52455,0.00086
1967.46438,0.00092
1965.40420,0.00064
1963.34403,0.00071
1961.28386,0.00124
1959.22369,0.00197
1957.16351,0.00206
1955.10334,0.00139
1953.04317,0.00089
1950.98300,0.00100
1948.92283,0.00131
1946.86265,0.00166
1944.80248,0.00155
1942.74231,0.00061
1940.68214,0.00018
1938.62197,0.00094
1936.56179,0.00159
1934.50162,0.00138
1932.44145,0.00105
1930.38128,0.00120
1928.32111,0.00141
1926.26093,0.00126
1924.20076,0.00098
1922.14059,0.00103
1920.08042,0.00135
1918.02024,0.00169
1915.96007,0.00186
1913.89990,0.00192
1911.83973,0.00218
1909.77956,0.00261
1907.71938,0.00283
1905.65921,0.00285
1903.59904,0.00290
1901.53887,0.00292
1899.47870,0.00279
1897.41852,0.00257
1895.35835,0.00228
1893.29818,0.00196
1891.23801,0.00185
1889.17783,0.00193
1887.11766,0.00212
1885.05749,0.00239
1882.99732,0.00257
1880.93715,0.00246
1878.87697,0.00230
1876.81680,0.00241
1874.75663,0.00267
1872.69646,0.00283
1870.63629,0.00290
1868.57611,0.00294
1866.51594,0.00294
1864.45577,0.00296
1862.39560,0.00294
1860.33543,0.00269
1858.27525,0.00243
1856.21508,0.00242
1854.15491,0.00241
1852.09474,0.00219
1850.03456,0.00206
1847.97439,0.00221
1845.91422,0.00237
1843.85405,0.00241
1841.79388,0.00245
1839.73370,0.00252
1837.67353,0.00260
1835.61336,0.00263
1833.55319,0.00268
1831.49302,0.00292
1829.43284,0.00319
1827.37267,0.00321
1825.31250,0.00308
1823.25233,0.00301
1821.19216,0.00296
1819.13198,0.00278
1817.07181,0.00264
1815.01164,0.00272
1812.95147,0.00290
1810.89129,0.00301
1808.83112,0.00303
1806.77095,0.00310
1804.71078,0.00311
1802.65061,0.00295
1800.59043,0.00282
1798.53026,0.00284
1796.47009,0.00285
1794.40992,0.00285
1792.34975,0.00287
1790.28957,0.00288
1788.22940,0.00284
1786.16923,0.00270
1784.10906,0.00259
1782.04888,0.00268
1779.98871,0.00289
1777.92854,0.00303
1775.86837,0.00315
1773.80820,0.00342
1771.74802,0.00352
1769.68785,0.00314
1767.62768,0.00282
1765.56751,0.00295
1763.50734,0.00315
1761.44716,0.00314
1759.38699,0.00310
1757.32682,0.00325
1755.26665,0.00347
1753.20648,0.00361
1751.14630,0.00358
1749.08613,0.00337
1747.02596,0.00324
1744.96579,0.00338
1742.90561,0.00375
1740.84544,0.00417
1738.78527,0.00432
1736.72510,0.00412
1734.66493,0.00388
1732.60475,0.00381
1730.54458,0.00394
1728.48441,0.00411
1726.42424,0.00421
1724.36407,0.00433
1722.30389,0.00457
1720.24372,0.00485
1718.18355,0.00483
1716.12338,0.00441
1714.06320,0.00417
1712.00303,0.00426
1709.94286,0.00453
1707.88269,0.00494
1705.82252,0.00528
1703.76234,0.00538
1701.70217,0.00552
1699.64200,0.00593
1697.58183,0.00639
1695.52166,0.00673
1693.46148,0.00699
1691.40131,0.00725
1689.34114,0.00768
1687.28097,0.00849
1685.22080,0.00954
1683.16062,0.01009
1681.10045,0.01009
1679.04028,0.01027
1676.98011,0.01077
1674.91993,0.01128
1672.85976,0.01174
1670.79959,0.01229
1668.73942,0.01284
1666.67925,0.01331
1664.61907,0.01385
1662.55890,0.01431
1660.49873,0.01448
1658.43856,0.01465
1656.37839,0.01505
1654.31821,0.01565
1652.25804,0.01605
1650.19787,0.01618
1648.13770,0.01631
1646.07753,0.01633
1644.01735,0.01603
1641.95718,0.01577
1639.89701,0.01579
1637.83684,0.01595
1635.77666,0.01588
1633.71649,0.01558
1631.65632,0.01543
1629.59615,0.01540
1627.53598,0.01526
1625.47580,0.01511
1623.41563,0.01503
1621.35546,0.01493
1619.29529,0.01492
1617.23512,0.01490
1615.17494,0.01451
1613.11477,0.01402
1611.05460,0.01374
1608.99443,0.01357
1606.93425,0.01341
1604.87408,0.01326
1602.81391,0.01301
1600.75374,0.01266
1598.69357,0.01238
1596.63339,0.01217
1594.57322,0.01191
1592.51305,0.01159
1590.45288,0.01130
1588.39271,0.01111
1586.33253,0.01091
1584.27236,0.01052
1582.21219,0.01012
1580.15202,0.00999
1578.09185,0.01012
1576.03167,0.01007
1573.97150,0.00974
1571.91133,0.00945
1569.85116,0.00926
1567.79098,0.00903
1565.73081,0.00893
1563.67064,0.00905
1561.61047,0.00937
1559.55030,0.00963
1557.49012,0.00922
1555.42995,0.00855
1553.36978,0.00813
1551.30961,0.00797
1549.24944,0.00791
1547.18926,0.00790
1545.12909,0.00801
1543.06892,0.00836
1541.00875,0.00875
1538.94858,0.00856
1536.88840,0.00817
1534.82823,0.00801
1532.76806,0.00786
1530.70789,0.00762
1528.64771,0.00738
1526.58754,0.00716
1524.52737,0.00707
1522.46720,0.00700
1520.40703,0.00667
1518.34685,0.00635
1516.28668,0.00616
1514.22651,0.00600
1512.16634,0.00579
1510.10617,0.00544
1508.04599,0.00515
1505.98582,0.00514
1503.92565,0.00502
1501.86548,0.00466
1499.80530,0.00443
1497.74513,0.00442
1495.68496,0.00440
1493.62479,0.00431
1491.56462,0.00406
1489.50444,0.00353
1487.44427,0.00303
1485.38410,0.00291
1483.32393,0.00300
1481.26376,0.00309
1479.20358,0.00309
1477.14341,0.00299
1475.08324,0.00285
1473.02307,0.00283
1470.96290,0.00297
1468.90272,0.00309
1466.84255,0.00321
1464.78238,0.00342
1462.72221,0.00362
1460.66203,0.00379
1458.60186,0.00381
1456.54169,0.00355
1454.48152,0.00342
1452.42135,0.00358
1450.36117,0.00382
1448.30100,0.00398
1446.24083,0.00411
1444.18066,0.00421
1442.12049,0.00417
1440.06031,0.00410
1438.00014,0.00407
1435.93997,0.00404
1433.87980,0.00403
1431.81963,0.00412
1429.75945,0.00429
1427.69928,0.00451
1425.63911,0.00468
1423.57894,0.00473
1421.51876,0.00479
1419.45859,0.00484
1417.39842,0.00488
1415.33825,0.00509
1413.27808,0.00544
1411.21790,0.00576
1409.15773,0.00598
1407.09756,0.00607
1405.03739,0.00607
1402.97722,0.00603
1400.91704,0.00598
1398.85687,0.00582
1396.79670,0.00563
1394.73653,0.00562
1392.67635,0.00570
1390.61618,0.00573
1388.55601,0.00569
1386.49584,0.00564
1384.43567,0.00564
1382.37549,0.00561
1380.31532,0.00551
1378.25515,0.00549
1376.19498,0.00554
1374.13481,0.00543
1372.07463,0.00523
1370.01446,0.00517
1367.95429,0.00524
1365.89412,0.00528
1363.83395,0.00521
1361.77377,0.00511
1359.71360,0.00512
1357.65343,0.00516
1355.59326,0.00516
1353.53308,0.00512
1351.47291,0.00501
1349.41274,0.00480
1347.35257,0.00458
1345.29240,0.00439
1343.23222,0.00407
1341.17205,0.00355
1339.11188,0.00312
1337.05171,0.00313
1334.99154,0.00341
1332.93136,0.00360
1330.87119,0.00359
1328.81102,0.00346
1326.75085,0.00332
1324.69067,0.00320
1322.63050,0.00312
1320.57033,0.00301
1318.51016,0.00286
1316.44999,0.00281
1314.38981,0.00288
1312.32964,0.00300
1310.26947,0.00304
1308.20930,0.00290
1306.14913,0.00271
1304.08895,0.00266
1302.02878,0.00268
1299.96861,0.00267
1297.90844,0.00258
1295.84827,0.00253
1293.78809,0.00264
1291.72792,0.00279
1289.66775,0.00278
1287.60758,0.00268
1285.54740,0.00260
1283.48723,0.00251
1281.42706,0.00244
1279.36689,0.00247
1277.30672,0.00255
1275.24654,0.00255
1273.18637,0.00253
1271.12620,0.00254
1269.06603,0.00250
1267.00586,0.00236
1264.94568,0.00227
1262.88551,0.00235
1260.82534,0.00250
1258.76517,0.00264
1256.70500,0.00264
1254.64482,0.00256
1252.58465,0.00252
1250.52448,0.00255
1248.46431,0.00256
1246.40413,0.00252
1244.34396,0.00235
1242.28379,0.00213
1240.22362,0.00208
1238.16345,0.00217
1236.10327,0.00221
1234.04310,0.00211
1231.98293,0.00194
1229.92276,0.00176
1227.86259,0.00158
1225.80241,0.00136
1223.74224,0.00112
1221.68207,0.00098
1219.62190,0.00088
1217.56172,0.00066
1215.50155,0.00035
1213.44138,0.00019
1211.38121,0.00024
1209.32104,0.00031
1207.26086,0.00025
1205.20069,0.00013
1203.14052,0.00012
1201.08035,0.00027
1199.02018,0.00053
1196.96000,0.00085
1194.89983,0.00115
1192.83966,0.00149
1190.77949,0.00194
1188.71932,0.00253
1186.65914,0.00322
1184.59897,0.00394
1182.53880,0.00463
1180.47863,0.00530
1178.41845,0.00594
1176.35828,0.00654
1174.29811,0.00726
1172.23794,0.00815
1170.17777,0.00911
1168.11759,0.01003
1166.05742,0.01080
1163.99725,0.01147
1161.93708,0.01214
1159.87691,0.01289
1157.81673,0.01369
1155.75656,0.01448
1153.69639,0.01529
1151.63622,0.01609
1149.57605,0.01679
1147.51587,0.01745
1145.45570,0.01810
1143.39553,0.01868
1141.33536,0.01924
1139.27518,0.01984
1137.21501,0.02052
1135.15484,0.02124
1133.09467,0.02182
1131.03450,0.02222
1128.97432,0.02280
1126.91415,0.02354
1124.85398,0.02417
1122.79381,0.02474
1120.73364,0.02547
1118.67346,0.02629
1116.61329,0.02706
1114.55312,0.02785
1112.49295,0.02873
1110.43277,0.02964
1108.37260,0.03056
1106.31243,0.03137
1104.25226,0.03214
1102.19209,0.03295
1100.13191,0.03378
1098.07174,0.03471
1096.01157,0.03565
1093.95140,0.03644
1091.89123,0.03712
1089.83105,0.03793
1087.77088,0.03884
1085.71071,0.03953
1083.65054,0.04010
1081.59037,0.04085
1079.53019,0.04177
1077.47002,0.04268
1075.40985,0.04337
1073.34968,0.04379
1071.28950,0.04405
1069.22933,0.04420
1067.16916,0.04417
1065.10899,0.04394
1063.04882,0.04350
1060.98864,0.04297
1058.92847,0.04244
1056.86830,0.04164
1054.80813,0.04055
1052.74796,0.03950
1050.68778,0.03853
1048.62761,0.03745
1046.56744,0.03615
1044.50727,0.03466
1042.44710,0.03309
1040.38692,0.03156
1038.32675,0.03022
1036.26658,0.02911
1034.20641,0.02792
1032.14623,0.02655
1030.08606,0.02532
1028.02589,0.02427
1025.96572,0.02324
1023.90555,0.02227
1021.84537,0.02136
1019.78520,0.02054
1017.72503,0.01991
1015.66486,0.01958
1013.60469,0.01941
1011.54451,0.01927
1009.48434,0.01920
1007.42417,0.01927
1005.36400,0.01964
1003.30382,0.02029
1001.24365,0.02102
999.18348,0.02172
997.12331,0.02238
995.06314,0.02312
993.00296,0.02399
990.94279,0.02484
988.88262,0.02552
986.82245,0.02602
984.76228,0.02646
982.70210,0.02684
980.64193,0.02702
978.58176,0.02698
976.52159,0.02680
974.46142,0.02660
972.40124,0.02640
970.34107,0.02607
968.28090,0.02555
966.22073,0.02491
964.16055,0.02425
962.10038,0.02365
960.04021,0.02316
957.98004,0.02258
955.91987,0.02183
953.85969,0.02110
951.79952,0.02055
949.73935,0.02013
947.67918,0.01974
945.61901,0.01925
943.55883,0.01873
941.49866,0.01826
939.43849,0.01776
937.37832,0.01730
935.31814,0.01685
933.25797,0.01622
931.19780,0.01553
929.13763,0.01490
927.07746,0.01432
925.01728,0.01392
922.95711,0.01373
920.89694,0.01344
918.83677,0.01273
916.77660,0.01179
914.71642,0.01094
912.65625,0.01025
910.59608,0.00973
908.53591,0.00931
906.47574,0.00907
904.41556,0.00916
902.35539,0.00931
900.29522,0.00919
898.23505,0.00899
896.17487,0.00896
894.11470,0.00908
892.05453,0.00928
889.99436,0.00949
887.93419,0.00977
885.87401,0.01009
883.81384,0.01047
881.75367,0.01123
879.69350,0.01211
877.63333,0.01268
875.57315,0.01331
873.51298,0.01453
871.45281,0.01609
869.39264,0.01730
867.33247,0.01809
865.27229,0.01886
863.21212,0.01969
861.15195,0.02053
859.09178,0.02120
857.03160,0.02164
854.97143,0.02194
852.91126,0.02197
850.85109,0.02162
848.79092,0.02118
846.73074,0.02104
844.67057,0.02087
842.61040,0.02005
840.55023,0.01884
838.49006,0.01803
836.42988,0.01767
834.36971,0.01716
832.30954,0.01622
830.24937,0.01521
828.18919,0.01449
826.12902,0.01403
824.06885,0.01364
822.00868,0.01308
819.94851,0.01237
817.88833,0.01188
815.82816,0.01158
813.76799,0.01109
811.70782,0.01051
809.64765,0.01019
807.58747,0.01008
805.52730,0.00975
803.46713,0.00915
801.40696,0.00886
799.34679,0.00888
797.28661,0.00853
795.22644,0.00787
793.16627,0.00743
791.10610,0.00728
789.04592,0.00743
786.98575,0.00762
784.92558,0.00735
782.86541,0.00687
780.80524,0.00672
778.74506,0.00675
776.68489,0.00660
774.62472,0.00625
772.56455,0.00588
770.50438,0.00556
768.44420,0.00535
766.38403,0.00529
764.32386,0.00521
762.26369,0.00503
760.20352,0.00502
758.14334,0.00530
756.08317,0.00559
754.02300,0.00556
751.96283,0.00522
749.90265,0.00486
747.84248,0.00458
745.78231,0.00448
743.72214,0.00469
741.66197,0.00481
739.60179,0.00469
737.54162,0.00456
735.48145,0.00423
733.42128,0.00391
731.36111,0.00391
729.30093,0.00385
727.24076,0.00380
725.18059,0.00405
723.12042,0.00449
721.06024,0.00452
719.00007,0.00451
716.93990,0.00436
714.87973,0.00398
712.81956,0.00358
710.75938,0.00360
708.69921,0.00404
706.63904,0.00426
704.57887,0.00419
702.51870,0.00437
700.45852,0.00484
698.39835,0.00513
696.33818,0.00517
694.27801,0.00530
692.21784,0.00533
690.15766,0.00497
688.09749,0.00470
686.03732,0.00476
683.97715,0.00492
681.91697,0.00545
679.85680,0.00644
677.79663,0.00739
675.73646,0.00764
673.67629,0.00721
671.61611,0.00673
669.55594,0.00502
667.49577,0.00362
665.43560,0.00587
663.37543,0.00495
661.31525,0.00434
659.25508,0.00546
657.19491,0.00698
655.13474,0.00745
653.07457,0.00674
651.01439,0.00560
648.95422,0.00474
646.89405,0.00458
644.83388,0.00448
642.77370,0.00454
640.71353,0.00503
638.65336,0.00493
636.59319,0.00409
634.53302,0.00394
632.47284,0.00409
630.41267,0.00336
628.35250,0.00238
626.29233,0.00231
624.23216,0.00291
622.17198,0.00336
620.11181,0.00322
618.05164,0.00386
615.99147,0.00586
613.93129,0.00637
611.87112,0.00423
609.81095,0.00154
607.75078,0.00023
605.69061,0.00000
603.63043,0.00044
601.57026,0.00061
599.51009,0.00000
