3996.73391,0.00168
3994.67374,0.00163
3992.61357,0.00144
3990.55339,0.00125
3988.49322,0.00108
3986.43305,0.00096
3984.37288,0.00106
3982.31271,0.00131
3980.25253,0.00137
3978.19236,0.00122
3976.13219,0.00109
3974.07202,0.00117
3972.01184,0.00141
3969.95167,0.00154
3967.89150,0.00141
3965.83133,0.00118
3963.77116,0.00105
3961.71098,0.00100
3959.65081,0.00092
3957.59064,0.00086
3955.53047,0.00087
3953.47030,0.00076
3951.41012,0.00037
3949.34995,0.00000
3947.28978,0.00014
3945.22961,0.00070
3943.16943,0.00121
3941.10926,0.00129
3939.04909,0.00090
3936.98892,0.00060
3934.92875,0.00077
3932.86857,0.00110
3930.80840,0.00118
3928.74823,0.00097
3926.68806,0.00069
3924.62789,0.00070
3922.56771,0.00100
3920.50754,0.00108
3918.44737,0.00077
3916.38720,0.00072
3914.32703,0.00117
3912.26685,0.00155
3910.20668,0.00157
3908.14651,0.00130
3906.08634,0.00104
3904.02616,0.00107
3901.96599,0.00122
3899.90582,0.00113
3897.84565,0.00102
3895.78548,0.00097
3893.72530,0.00088
3891.66513,0.00088
3889.60496,0.00093
3887.54479,0.00091
3885.48462,0.00095
3883.42444,0.00087
3881.36427,0.00069
3879.30410,0.00075
3877.24393,0.00078
3875.18376,0.00059
3873.12358,0.00040
3871.06341,0.00036
3869.00324,0.00067
3866.94307,0.00115
3864.88289,0.00140
3862.82272,0.00126
3860.76255,0.00080
3858.70238,0.00050
3856.64221,0.00068
3854.58203,0.00126
3852.52186,0.00165
3850.46169,0.00147
3848.40152,0.00110
3846.34135,0.00088
3844.28117,0.00076
3842.22100,0.00070
3840.16083,0.00078
3838.10066,0.00104
3836.04048,0.00141
3833.98031,0.00158
3831.92014,0.00133
3829.85997,0.00084
3827.79980,0.00053
3825.73962,0.00059
3823.67945,0.00089
3821.61928,0.00128
3819.55911,0.00139
3817.49894,0.00107
3815.43876,0.00081
3813.37859,0.00070
3811.31842,0.00062
3809.25825,0.00070
3807.19808,0.00079
3805.13790,0.00076
3803.07773,0.00100
3801.01756,0.00149
3798.95739,0.00154
3796.89721,0.00137
3794.83704,0.00133
3792.77687,0.00118
3790.71670,0.00091
3788.65653,0.00089
3786.59635,0.00108
3784.53618,0.00114
3782.47601,0.00108
3780.41584,0.00125
3778.35567,0.00150
3776.29549,0.00147
3774.23532,0.00125
3772.17515,0.00122
3770.11498,0.00139
3768.05481,0.00137
3765.99463,0.00117
3763.93446,0.00102
3761.87429,0.00085
3759.81412,0.00069
3757.75394,0.00057
3755.69377,0.00038
3753.63360,0.00035
3751.57343,0.00071
3749.51326,0.00087
3747.45308,0.00055
3745.39291,0.00066
3743.33274,0.00128
3741.27257,0.00128
3739.21240,0.00063
3737.15222,0.00004
3735.09205,0.00000
3733.03188,0.00049
3730.97171,0.00075
3728.91153,0.00063
3726.85136,0.00074
3724.79119,0.00105
3722.73102,0.00106
3720.67085,0.00103
3718.61067,0.00094
3716.55050,0.00071
3714.49033,0.00065
3712.43016,0.00082
3710.36999,0.00093
3708.30981,0.00073
3706.24964,0.00051
3704.18947,0.00043
3702.12930,0.00057
3700.06913,0.00079
3698.00895,0.00092
3695.94878,0.00114
3693.88861,0.00135
3691.82844,0.00135
3689.76826,0.00108
3687.70809,0.00095
3685.64792,0.00114
3683.58775,0.00130
3681.52758,0.00118
3679.46740,0.00088
3677.40723,0.00064
3675.34706,0.00090
3673.28689,0.00148
3671.22672,0.00186
3669.16654,0.00203
3667.10637,0.00199
3665.04620,0.00183
3662.98603,0.00169
3660.92586,0.00147
3658.86568,0.00115
3656.80551,0.00092
3654.74534,0.00085
3652.68517,0.00097
3650.62499,0.00163
3648.56482,0.00255
3646.50465,0.00270
3644.44448,0.00226
3642.38431,0.00214
3640.32413,0.00239
3638.26396,0.00260
3636.20379,0.00269
3634.14362,0.00262
3632.08345,0.00240
3630.02327,0.00251
3627.96310,0.00327
3625.90293,0.00376
3623.84276,0.00373
3621.78258,0.00381
3619.72241,0.00434
3617.66224,0.00503
3615.60207,0.00541
3613.54190,0.00537
3611.48172,0.00484
3609.42155,0.00443
3607.36138,0.00488
3605.30121,0.00569
3603.24104,0.00615
3601.18086,0.00636
3599.12069,0.00671
3597.06052,0.00700
3595.00035,0.00711
3592.94018,0.00708
3590.88000,0.00697
3588.81983,0.00687
3586.75966,0.00714
3584.69949,0.00763
3582.63931,0.00803
3580.57914,0.00831
3578.51897,0.00848
3576.45880,0.00873
3574.39863,0.00911
3572.33845,0.00920
3570.27828,0.00879
3568.21811,0.00842
3566.15794,0.00869
3564.09777,0.00936
3562.03759,0.00988
3559.97742,0.01020
3557.91725,0.01044
3555.85708,0.01061
3553.79690,0.01080
3551.73673,0.01101
3549.67656,0.01103
3547.61639,0.01087
3545.55622,0.01088
3543.49604,0.01128
3541.43587,0.01183
3539.37570,0.01223
3537.31553,0.01246
3535.25536,0.01263
3533.19518,0.01284
3531.13501,0.01301
3529.07484,0.01295
3527.01467,0.01284
3524.95450,0.01302
3522.89432,0.01343
3520.83415,0.01380
3518.77398,0.01408
3516.71381,0.01433
3514.65363,0.01448
3512.59346,0.01453
3510.53329,0.01457
3508.47312,0.01478
3506.41295,0.01516
3504.35277,0.01538
3502.29260,0.01534
3500.23243,0.01546
3498.17226,0.01599
3496.11209,0.01657
3494.05191,0.01680
3491.99174,0.01673
3489.93157,0.01668
3487.87140,0.01683
3485.81123,0.01714
3483.75105,0.01735
3481.69088,0.01740
3479.63071,0.01751
3477.57054,0.01782
3475.51036,0.01824
3473.45019,0.01856
3471.39002,0.01848
3469.32985,0.01824
3467.26968,0.01829
3465.20950,0.01859
3463.14933,0.01895
3461.08916,0.01936
3459.02899,0.01969
3456.96882,0.01964
3454.90864,0.01941
3452.84847,0.01944
3450.78830,0.01966
3448.72813,0.01994
3446.66795,0.02032
3444.60778,0.02067
3442.54761,0.02098
3440.48744,0.02116
3438.42727,0.02120
3436.36709,0.02135
3434.30692,0.02145
3432.24675,0.02139
3430.18658,0.02143
3428.12641,0.02163
3426.06623,0.02185
3424.00606,0.02189
3421.94589,0.02179
3419.88572,0.02191
3417.82555,0.02215
3415.76537,0.02224
3413.70520,0.02239
3411.64503,0.02254
3409.58486,0.02247
3407.52468,0.02262
3405.46451,0.02308
3403.40434,0.02326
3401.34417,0.02311
3399.28400,0.02302
3397.22382,0.02327
3395.16365,0.02348
3393.10348,0.02360
3391.04331,0.02366
3388.98314,0.02360
3386.92296,0.02365
3384.86279,0.02394
3382.80262,0.02417
3380.74245,0.02429
3378.68228,0.02437
3376.62210,0.02436
3374.56193,0.02436
3372.50176,0.02454
3370.44159,0.02484
3368.38141,0.02511
3366.32124,0.02518
3364.26107,0.02494
3362.20090,0.02457
3360.14073,0.02452
3358.08055,0.02486
3356.02038,0.02508
3353.96021,0.02496
3351.90004,0.02485
3349.83987,0.02494
3347.77969,0.02511
3345.71952,0.02542
3343.65935,0.02579
3341.59918,0.02590
3339.53900,0.02580
3337.47883,0.02578
3335.41866,0.02589
3333.35849,0.02602
3331.29832,0.02605
3329.23814,0.02604
3327.17797,0.02609
3325.11780,0.02623
3323.05763,0.02645
3320.99746,0.02664
3318.93728,0.02675
3316.87711,0.02685
3314.81694,0.02694
3312.75677,0.02695
3310.69660,0.02692
3308.63642,0.02697
3306.57625,0.02710
3304.51608,0.02723
3302.45591,0.02734
3300.39573,0.02741
3298.33556,0.02735
3296.27539,0.02730
3294.21522,0.02743
3292.15505,0.02758
3290.09487,0.02750
3288.03470,0.02734
3285.97453,0.02734
3283.91436,0.02756
3281.85419,0.02786
3279.79401,0.02797
3277.73384,0.02781
3275.67367,0.02763
3273.61350,0.02763
3271.55333,0.02771
3269.49315,0.02768
3267.43298,0.02769
3265.37281,0.02780
3263.31264,0.02788
3261.25246,0.02791
3259.19229,0.02786
3257.13212,0.02772
3255.07195,0.02768
3253.01178,0.02771
3250.95160,0.02781
3248.89143,0.02813
3246.83126,0.02835
3244.77109,0.02829
3242.71092,0.02821
3240.65074,0.02822
3238.59057,0.02823
3236.53040,0.02827
3234.47023,0.02826
3232.41005,0.02811
3230.34988,0.02792
3228.28971,0.02772
3226.22954,0.02757
3224.16937,0.02753
3222.10919,0.02754
3220.04902,0.02756
3217.98885,0.02755
3215.92868,0.02754
3213.86851,0.02762
3211.80833,0.02775
3209.74816,0.02774
3207.68799,0.02766
3205.62782,0.02777
3203.56765,0.02795
3201.50747,0.02798
3199.44730,0.02789
3197.38713,0.02780
3195.32696,0.02766
3193.26678,0.02742
3191.20661,0.02726
3189.14644,0.02727
3187.08627,0.02733
3185.02610,0.02733
3182.96592,0.02728
3180.90575,0.02718
3178.84558,0.02712
3176.78541,0.02713
3174.72524,0.02700
3172.66506,0.02672
3170.60489,0.02667
3168.54472,0.02686
3166.48455,0.02697
3164.42437,0.02688
3162.36420,0.02669
3160.30403,0.02657
3158.24386,0.02648
3156.18369,0.02644
3154.12351,0.02649
3152.06334,0.02643
3150.00317,0.02625
3147.94300,0.02622
3145.88283,0.02635
3143.82265,0.02635
3141.76248,0.02614
3139.70231,0.02581
3137.64214,0.02548
3135.58197,0.02538
3133.52179,0.02550
3131.46162,0.02565
3129.40145,0.02575
3127.34128,0.02576
3125.28110,0.02563
3123.22093,0.02542
3121.16076,0.02532
3119.10059,0.02533
3117.04042,0.02517
3114.98024,0.02473
3112.92007,0.02436
3110.85990,0.02436
3108.79973,0.02459
3106.73956,0.02467
3104.67938,0.02456
3102.61921,0.02439
3100.55904,0.02431
3098.49887,0.02438
3096.43870,0.02430
3094.37852,0.02400
3092.31835,0.02385
3090.25818,0.02398
3088.19801,0.02418
3086.13783,0.02423
3084.07766,0.02412
3082.01749,0.02401
3079.95732,0.02390
3077.89715,0.02375
3075.83697,0.02370
3073.77680,0.02366
3071.71663,0.02341
3069.65646,0.02310
3067.59629,0.02293
3065.53611,0.02289
3063.47594,0.02285
3061.41577,0.02273
3059.35560,0.02266
3057.29542,0.02274
3055.23525,0.02274
3053.17508,0.02255
3051.11491,0.02235
3049.05474,0.02227
3046.99456,0.02219
3044.93439,0.02201
3042.87422,0.02179
3040.81405,0.02161
3038.75388,0.02146
3036.69370,0.02141
3034.63353,0.02144
3032.57336,0.02134
3030.51319,0.02128
3028.45302,0.02125
3026.39284,0.02106
3024.33267,0.02096
3022.27250,0.02110
3020.21233,0.02112
3018.15215,0.02091
3016.09198,0.02073
3014.03181,0.02067
3011.97164,0.02058
3009.91147,0.02044
3007.85129,0.02027
3005.79112,0.01999
3003.73095,0.01969
3001.67078,0.01962
2999.61061,0.01978
2997.55043,0.01978
2995.49026,0.01961
2993.43009,0.01950
2991.36992,0.01949
2989.30975,0.01946
2987.24957,0.01933
2985.18940,0.01930
2983.12923,0.01940
2981.06906,0.01939
2979.00888,0.01932
2976.94871,0.01948
2974.88854,0.01964
2972.82837,0.01958
2970.76820,0.01951
2968.70802,0.01948
2966.64785,0.01937
2964.58768,0.01932
2962.52751,0.01927
2960.46734,0.01892
2958.40716,0.01861
2956.34699,0.01876
2954.28682,0.01906
2952.22665,0.01914
2950.16647,0.01906
2948.10630,0.01898
2946.04613,0.01893
2943.98596,0.01887
2941.92579,0.01883
2939.86561,0.01879
2937.80544,0.01869
2935.74527,0.01855
2933.68510,0.01846
2931.62493,0.01845
2929.56475,0.01843
2927.50458,0.01842
2925.44441,0.01845
2923.38424,0.01845
2921.32407,0.01853
2919.26389,0.01873
2917.20372,0.01880
2915.14355,0.01855
2913.08338,0.01824
2911.02320,0.01818
2908.96303,0.01809
2906.90286,0.01783
2904.84269,0.01770
2902.78252,0.01777
2900.72234,0.01780
2898.66217,0.01768
2896.60200,0.01750
2894.54183,0.01735
2892.48166,0.01716
2890.42148,0.01705
2888.36131,0.01716
2886.30114,0.01733
2884.24097,0.01728
2882.18080,0.01696
2880.12062,0.01671
2878.06045,0.01672
2876.00028,0.01685
2873.94011,0.01697
2871.87993,0.01696
2869.81976,0.01679
2867.75959,0.01665
2865.69942,0.01661
2863.63925,0.01651
2861.57907,0.01636
2859.51890,0.01634
2857.45873,0.01638
2855.39856,0.01624
2853.33839,0.01608
2851.27821,0.01605
2849.21804,0.01590
2847.15787,0.01565
2845.09770,0.01557
2843.03752,0.01552
2840.97735,0.01540
2838.91718,0.01532
2836.85701,0.01527
2834.79684,0.01517
2832.73666,0.01504
2830.67649,0.01491
2828.61632,0.01476
2826.55615,0.01462
2824.49598,0.01455
2822.43580,0.01449
2820.37563,0.01441
2818.31546,0.01437
2816.25529,0.01438
2814.19512,0.01431
2812.13494,0.01430
2810.07477,0.01443
2808.01460,0.01441
2805.95443,0.01420
2803.89425,0.01405
2801.83408,0.01396
2799.77391,0.01386
2797.71374,0.01381
2795.65357,0.01377
2793.59339,0.01370
2791.53322,0.01368
2789.47305,0.01355
2787.41288,0.01319
2785.35271,0.01292
2783.29253,0.01287
2781.23236,0.01279
2779.17219,0.01274
2777.11202,0.01275
2775.05184,0.01261
2772.99167,0.01247
2770.93150,0.01252
2768.87133,0.01257
2766.81116,0.01245
2764.75098,0.01220
2762.69081,0.01198
2760.63064,0.01205
2758.57047,0.01224
2756.51030,0.01218
2754.45012,0.01193
2752.38995,0.01178
2750.32978,0.01169
2748.26961,0.01158
2746.20944,0.01161
2744.14926,0.01173
2742.08909,0.01175
2740.02892,0.01157
2737.96875,0.01125
2735.90857,0.01106
2733.84840,0.01106
2731.78823,0.01104
2729.72806,0.01093
2727.66789,0.01091
2725.60771,0.01090
2723.54754,0.01069
2721.48737,0.01046
2719.42720,0.01048
2717.36703,0.01062
2715.30685,0.01065
2713.24668,0.01052
2711.18651,0.01034
2709.12634,0.01015
2707.06617,0.00998
2705.00599,0.00995
2702.94582,0.00995
2700.88565,0.00984
2698.82548,0.00979
2696.76530,0.00983
2694.70513,0.00981
2692.64496,0.00981
2690.58479,0.00983
2688.52462,0.00976
2686.46444,0.00957
2684.40427,0.00929
2682.34410,0.00917
2680.28393,0.00930
2678.22376,0.00941
2676.16358,0.00934
2674.10341,0.00928
2672.04324,0.00932
2669.98307,0.00931
2667.92289,0.00919
2665.86272,0.00903
2663.80255,0.00894
2661.74238,0.00894
2659.68221,0.00898
2657.62203,0.00892
2655.56186,0.00874
2653.50169,0.00848
2651.44152,0.00837
2649.38135,0.00853
2647.32117,0.00868
2645.26100,0.00862
2643.20083,0.00848
2641.14066,0.00843
2639.08049,0.00847
2637.02031,0.00845
2634.96014,0.00844
2632.89997,0.00851
2630.83980,0.00850
2628.77962,0.00838
2626.71945,0.00811
2624.65928,0.00784
2622.59911,0.00785
2620.53894,0.00795
2618.47876,0.00778
2616.41859,0.00762
2614.35842,0.00762
2612.29825,0.00753
2610.23808,0.00738
2608.17790,0.00738
2606.11773,0.00751
2604.05756,0.00753
2601.99739,0.00749
2599.93722,0.00749
2597.87704,0.00747
2595.81687,0.00748
2593.75670,0.00752
2591.69653,0.00765
2589.63635,0.00778
2587.57618,0.00765
2585.51601,0.00741
2583.45584,0.00727
2581.39567,0.00710
2579.33549,0.00703
2577.27532,0.00712
2575.21515,0.00712
2573.15498,0.00715
2571.09481,0.00742
2569.03463,0.00767
2566.97446,0.00764
2564.91429,0.00742
2562.85412,0.00724
2560.79394,0.00730
2558.73377,0.00757
2556.67360,0.00768
2554.61343,0.00751
2552.55326,0.00728
2550.49308,0.00709
2548.43291,0.00695
2546.37274,0.00694
2544.31257,0.00700
2542.25240,0.00711
2540.19222,0.00723
2538.13205,0.00719
2536.07188,0.00701
2534.01171,0.00702
2531.95154,0.00728
2529.89136,0.00745
2527.83119,0.00728
2525.77102,0.00696
2523.71085,0.00695
2521.65067,0.00715
2519.59050,0.00719
2517.53033,0.00721
2515.47016,0.00732
2513.40999,0.00732
2511.34981,0.00735
2509.28964,0.00762
2507.22947,0.00773
2505.16930,0.00752
2503.10913,0.00743
2501.04895,0.00748
2498.98878,0.00757
2496.92861,0.00773
2494.86844,0.00764
2492.80827,0.00751
2490.74809,0.00769
2488.68792,0.00781
2486.62775,0.00772
2484.56758,0.00776
2482.50740,0.00799
2480.44723,0.00811
2478.38706,0.00811
2476.32689,0.00824
2474.26672,0.00839
2472.20654,0.00832
2470.14637,0.00809
2468.08620,0.00799
2466.02603,0.00814
2463.96586,0.00830
2461.90568,0.00832
2459.84551,0.00825
2457.78534,0.00818
2455.72517,0.00824
2453.66499,0.00845
2451.60482,0.00865
2449.54465,0.00863
2447.48448,0.00831
2445.42431,0.00801
2443.36413,0.00812
2441.30396,0.00836
2439.24379,0.00836
2437.18362,0.00833
2435.12345,0.00852
2433.06327,0.00864
2431.00310,0.00848
2428.94293,0.00829
2426.88276,0.00831
2424.82259,0.00851
2422.76241,0.00850
2420.70224,0.00832
2418.64207,0.00835
2416.58190,0.00848
2414.52172,0.00849
2412.46155,0.00858
2410.40138,0.00876
2408.34121,0.00874
2406.28104,0.00852
2404.22086,0.00844
2402.16069,0.00850
2400.10052,0.00834
2398.04035,0.00788
2395.98018,0.00771
2393.92000,0.00794
2391.85983,0.00821
2389.79966,0.00823
2387.73949,0.00820
2385.67931,0.00830
2383.61914,0.00825
2381.55897,0.00785
2379.49880,0.00732
2377.43863,0.00709
2375.37845,0.00693
2373.31828,0.00713
2371.25811,0.00792
2369.19794,0.00864
2367.13777,0.00986
2365.07759,0.01157
2363.01742,0.01151
2360.95725,0.01174
2358.89708,0.01031
2356.83691,0.00846
2354.77673,0.00706
2352.71656,0.00728
2350.65639,0.01120
2348.59622,0.01322
2346.53604,0.00829
2344.47587,0.00717
2342.41570,0.00884
2340.35553,0.01025
2338.29536,0.01114
2336.23518,0.01059
2334.17501,0.00952
2332.11484,0.00841
2330.05467,0.00805
2327.99450,0.00834
2325.93432,0.00974
2323.87415,0.00959
2321.81398,0.00850
2319.75381,0.00702
2317.69364,0.00703
2315.63346,0.00705
2313.57329,0.00680
2311.51312,0.00671
2309.45295,0.00664
2307.39277,0.00672
2305.33260,0.00697
2303.27243,0.00722
2301.21226,0.00706
2299.15209,0.00679
2297.09191,0.00664
2295.03174,0.00673
2292.97157,0.00709
2290.91140,0.00742
2288.85123,0.00748
2286.79105,0.00722
2284.73088,0.00688
2282.67071,0.00670
2280.61054,0.00670
2278.55036,0.00688
2276.49019,0.00712
2274.43002,0.00718
2272.36985,0.00687
2270.30968,0.00656
2268.24950,0.00657
2266.18933,0.00680
2264.12916,0.00680
2262.06899,0.00646
2260.00882,0.00640
2257.94864,0.00682
2255.88847,0.00655
2253.82830,0.00575
2251.76813,0.00571
2249.70796,0.00616
2247.64778,0.00645
2245.58761,0.00675
2243.52744,0.00663
2241.46727,0.00621
2239.40709,0.00630
2237.34692,0.00625
2235.28675,0.00569
2233.22658,0.00541
2231.16641,0.00560
2229.10623,0.00545
2227.04606,0.00453
2224.98589,0.00422
2222.92572,0.00484
2220.86555,0.00477
2218.80537,0.00426
2216.74520,0.00426
2214.68503,0.00450
2212.62486,0.00480
2210.56469,0.00491
2208.50451,0.00484
2206.44434,0.00497
2204.38417,0.00502
2202.32400,0.00451
2200.26382,0.00396
2198.20365,0.00422
2196.14348,0.00497
2194.08331,0.00528
2192.02314,0.00496
2189.96296,0.00471
2187.90279,0.00488
2185.84262,0.00481
2183.78245,0.00391
2181.72228,0.00288
2179.66210,0.00290
2177.60193,0.00369
2175.54176,0.00404
2173.48159,0.00353
2171.42141,0.00315
2169.36124,0.00360
2167.30107,0.00406
2165.24090,0.00394
2163.18073,0.00317
2161.12055,0.00148
2159.06038,0.00000
2157.00021,0.00006
2154.94004,0.00125
2152.87987,0.00266
2150.81969,0.00320
2148.75952,0.00291
2146.69935,0.00269
2144.63918,0.00311
2142.57901,0.00377
2140.51883,0.00378
2138.45866,0.00315
2136.39849,0.00246
2134.33832,0.00193
2132.27814,0.00167
2130.21797,0.00181
2128.15780,0.00208
2126.09763,0.00241
2124.03746,0.00300
2121.97728,0.00350
2119.91711,0.00350
2117.85694,0.00299
2115.79677,0.00240
2113.73660,0.00228
2111.67642,0.00249
2109.61625,0.00267
2107.55608,0.00305
2105.49591,0.00358
2103.43573,0.00394
2101.37556,0.00357
2099.31539,0.00283
2097.25522,0.00283
2095.19505,0.00327
2093.13487,0.00328
2091.07470,0.00313
2089.01453,0.00321
2086.95436,0.00357
2084.89419,0.00392
2082.83401,0.00407
2080.77384,0.00416
2078.71367,0.00399
2076.65350,0.00344
2074.59333,0.00297
2072.53315,0.00298
2070.47298,0.00302
2068.41281,0.00277
2066.35264,0.00254
2064.29246,0.00225
2062.23229,0.00209
2060.17212,0.00251
2058.11195,0.00273
2056.05178,0.00223
2053.99160,0.00202
2051.93143,0.00228
2049.87126,0.00263
2047.81109,0.00326
2045.75092,0.00347
2043.69074,0.00326
2041.63057,0.00362
2039.57040,0.00400
2037.51023,0.00344
2035.45006,0.00239
2033.38988,0.00179
2031.32971,0.00179
2029.26954,0.00196
2027.20937,0.00205
2025.14919,0.00186
2023.08902,0.00137
2021.02885,0.00154
2018.96868,0.00256
2016.90851,0.00326
2014.84833,0.00343
2012.78816,0.00341
2010.72799,0.00325
2008.66782,0.00282
2006.60765,0.00187
2004.54747,0.00116
2002.48730,0.00096
2000.42713,0.00071
1998.36696,0.00101
1996.30678,0.00168
1994.24661,0.00175
1992.18644,0.00153
1990.12627,0.00203
1988.06610,0.00310
1986.00592,0.00304
1983.94575,0.00206
1981.88558,0.00236
1979.82541,0.00333
1977.76524,0.00302
1975.70506,0.00162
1973.64489,0.00054
1971.58472,0.00096
1969.52455,0.00210
1967.46438,0.00231
1965.40420,0.00152
1963.34403,0.00056
1961.28386,0.00037
1959.22369,0.00088
1957.16351,0.00091
1955.10334,0.00033
1953.04317,0.00000
1950.98300,0.00023
1948.92283,0.00055
1946.86265,0.00052
1944.80248,0.00050
1942.74231,0.00105
1940.68214,0.00182
1938.62197,0.00225
1936.56179,0.00239
1934.50162,0.00222
1932.44145,0.00190
1930.38128,0.00182
1928.32111,0.00173
1926.26093,0.00134
1924.20076,0.00100
1922.14059,0.00110
1920.08042,0.00154
1918.02024,0.00177
1915.96007,0.00155
1913.89990,0.00142
1911.83973,0.00164
1909.77956,0.00192
1907.71938,0.00218
1905.65921,0.00234
1903.59904,0.00234
1901.53887,0.00238
1899.47870,0.00241
1897.41852,0.00240
1895.35835,0.00230
1893.29818,0.00206
1891.23801,0.00201
1889.17783,0.00216
1887.11766,0.00213
1885.05749,0.00208
1882.99732,0.00233
1880.93715,0.00258
1878.87697,0.00249
1876.81680,0.00226
1874.75663,0.00227
1872.69646,0.00253
1870.63629,0.00271
1868.57611,0.00263
1866.51594,0.00248
1864.45577,0.00243
1862.39560,0.00246
1860.33543,0.00249
1858.27525,0.00259
1856.21508,0.00271
1854.15491,0.00265
1852.09474,0.00245
1850.03456,0.00240
1847.97439,0.00247
1845.91422,0.00246
1843.85405,0.00244
1841.79388,0.00254
1839.73370,0.00262
1837.67353,0.00258
1835.61336,0.00260
1833.55319,0.00278
1831.49302,0.00291
1829.43284,0.00277
1827.37267,0.00259
1825.31250,0.00261
1823.25233,0.00275
1821.19216,0.00278
1819.13198,0.00260
1817.07181,0.00248
1815.01164,0.00263
1812.95147,0.00293
1810.89129,0.00309
1808.83112,0.00303
1806.77095,0.00293
1804.71078,0.00301
1802.65061,0.00327
1800.59043,0.00343
1798.53026,0.00325
1796.47009,0.00297
1794.40992,0.00299
1792.34975,0.00313
1790.28957,0.00294
1788.22940,0.00266
1786.16923,0.00261
1784.10906,0.00275
1782.04888,0.00289
1779.98871,0.00288
1777.92854,0.00288
1775.86837,0.00315
1773.80820,0.00357
1771.74802,0.00371
1769.68785,0.00344
1767.62768,0.00318
1765.56751,0.00320
1763.50734,0.00329
1761.44716,0.00328
1759.38699,0.00325
1757.32682,0.00334
1755.26665,0.00347
1753.20648,0.00352
1751.14630,0.00344
1749.08613,0.00337
1747.02596,0.00352
1744.96579,0.00385
1742.90561,0.00421
1740.84544,0.00439
1738.78527,0.00427
1736.72510,0.00401
1734.66493,0.00391
1732.60475,0.00408
1730.54458,0.00432
1728.48441,0.00443
1726.42424,0.00444
1724.36407,0.00450
1722.30389,0.00469
1720.24372,0.00497
1718.18355,0.00507
1716.12338,0.00475
1714.06320,0.00443
1712.00303,0.00437
1709.94286,0.00454
1707.88269,0.00488
1705.82252,0.00518
1703.76234,0.00540
1701.70217,0.00580
1699.64200,0.00635
1697.58183,0.00665
1695.52166,0.00687
1693.46148,0.00722
1691.40131,0.00764
1689.34114,0.00818
1687.28097,0.00899
1685.22080,0.00992
1683.16062,0.01031
1681.10045,0.01029
1679.04028,0.01052
1676.98011,0.01097
1674.91993,0.01135
1672.85976,0.01175
1670.79959,0.01234
1668.73942,0.01295
1666.67925,0.01347
1664.61907,0.01401
1662.55890,0.01442
1660.49873,0.01458
1658.43856,0.01474
1656.37839,0.01513
1654.31821,0.01572
1652.25804,0.01613
1650.19787,0.01629
1648.13770,0.01639
1646.07753,0.01627
1644.01735,0.01589
1641.95718,0.01573
1639.89701,0.01594
1637.83684,0.01626
1635.77666,0.01610
1633.71649,0.01550
1631.65632,0.01515
1629.59615,0.01513
1627.53598,0.01516
1625.47580,0.01518
1623.41563,0.01521
1621.35546,0.01514
1619.29529,0.01508
1617.23512,0.01497
1615.17494,0.01460
1613.11477,0.01421
1611.05460,0.01395
1608.99443,0.01366
1606.93425,0.01335
1604.87408,0.01317
1602.81391,0.01299
1600.75374,0.01272
1598.69357,0.01250
1596.63339,0.01235
1594.57322,0.01210
1592.51305,0.01164
1590.45288,0.01116
1588.39271,0.01088
1586.33253,0.01068
1584.27236,0.01039
1582.21219,0.01014
1580.15202,0.01018
1578.09185,0.01050
1576.03167,0.01052
1573.97150,0.00997
1571.91133,0.00953
1569.85116,0.00937
1567.79098,0.00920
1565.73081,0.00907
1563.67064,0.00916
1561.61047,0.00952
1559.55030,0.00981
1557.49012,0.00941
1555.42995,0.00875
1553.36978,0.00827
1551.30961,0.00796
1549.24944,0.00783
1547.18926,0.00799
1545.12909,0.00837
1543.06892,0.00888
1541.00875,0.00922
1538.94858,0.00882
1536.88840,0.00814
1534.82823,0.00773
1532.76806,0.00749
1530.70789,0.00733
1528.64771,0.00727
1526.58754,0.00733
1524.52737,0.00754
1522.46720,0.00752
1520.40703,0.00701
1518.34685,0.00661
1516.28668,0.00642
1514.22651,0.00614
1512.16634,0.00587
1510.10617,0.00577
1508.04599,0.00579
1505.98582,0.00570
1503.92565,0.00531
1501.86548,0.00496
1499.80530,0.00496
1497.74513,0.00501
1495.68496,0.00473
1493.62479,0.00440
1491.56462,0.00418
1489.50444,0.00373
1487.44427,0.00319
1485.38410,0.00296
1483.32393,0.00301
1481.26376,0.00311
1479.20358,0.00317
1477.14341,0.00320
1475.08324,0.00321
1473.02307,0.00316
1470.96290,0.00309
1468.90272,0.00315
1466.84255,0.00342
1464.78238,0.00369
1462.72221,0.00378
1460.66203,0.00385
1458.60186,0.00393
1456.54169,0.00381
1454.48152,0.00367
1452.42135,0.00375
1450.36117,0.00395
1448.30100,0.00404
1446.24083,0.00405
1444.18066,0.00411
1442.12049,0.00419
1440.06031,0.00424
1438.00014,0.00420
1435.93997,0.00404
1433.87980,0.00396
1431.81963,0.00407
1429.75945,0.00425
1427.69928,0.00443
1425.63911,0.00460
1423.57894,0.00465
1421.51876,0.00469
1419.45859,0.00487
1417.39842,0.00517
1415.33825,0.00548
1413.27808,0.00571
1411.21790,0.00586
1409.15773,0.00598
1407.09756,0.00605
1405.03739,0.00605
1402.97722,0.00608
1400.91704,0.00614
1398.85687,0.00607
1396.79670,0.00583
1394.73653,0.00565
1392.67635,0.00565
1390.61618,0.00570
1388.55601,0.00558
1386.49584,0.00541
1384.43567,0.00542
1382.37549,0.00551
1380.31532,0.00556
1378.25515,0.00562
1376.19498,0.00567
1374.13481,0.00557
1372.07463,0.00543
1370.01446,0.00544
1367.95429,0.00550
1365.89412,0.00547
1363.83395,0.00528
1361.77377,0.00505
1359.71360,0.00496
1357.65343,0.00501
1355.59326,0.00501
1353.53308,0.00487
1351.47291,0.00468
1349.41274,0.00456
1347.35257,0.00448
1345.29240,0.00439
1343.23222,0.00424
1341.17205,0.00391
1339.11188,0.00352
1337.05171,0.00345
1334.99154,0.00362
1332.93136,0.00365
1330.87119,0.00350
1328.81102,0.00336
1326.75085,0.00329
1324.69067,0.00320
1322.63050,0.00306
1320.57033,0.00289
1318.51016,0.00281
1316.44999,0.00285
1314.38981,0.00288
1312.32964,0.00290
1310.26947,0.00294
1308.20930,0.00293
1306.14913,0.00281
1304.08895,0.00273
1302.02878,0.00277
1299.96861,0.00284
1297.90844,0.00278
1295.84827,0.00270
1293.78809,0.00278
1291.72792,0.00289
1289.66775,0.00293
1287.60758,0.00290
1285.54740,0.00278
1283.48723,0.00264
1281.42706,0.00262
1279.36689,0.00268
1277.30672,0.00269
1275.24654,0.00262
1273.18637,0.00252
1271.12620,0.00250
1269.06603,0.00253
1267.00586,0.00252
1264.94568,0.00242
1262.88551,0.00230
1260.82534,0.00232
1258.76517,0.00245
1256.70500,0.00253
1254.64482,0.00252
1252.58465,0.00255
1250.52448,0.00265
1248.46431,0.00270
1246.40413,0.00266
1244.34396,0.00257
1242.28379,0.00245
1240.22362,0.00236
1238.16345,0.00235
1236.10327,0.00234
1234.04310,0.00225
1231.98293,0.00207
1229.92276,0.00188
1227.86259,0.00179
1225.80241,0.00165
1223.74224,0.00140
1221.68207,0.00119
1219.62190,0.00100
1217.56172,0.00078
1215.50155,0.00054
1213.44138,0.00037
1211.38121,0.00030
1209.32104,0.00026
1207.26086,0.00018
1205.20069,0.00016
1203.14052,0.00025
1201.08035,0.00039
1199.02018,0.00057
1196.96000,0.00080
1194.89983,0.00105
1192.83966,0.00139
1190.77949,0.00189
1188.71932,0.00256
1186.65914,0.00335
1184.59897,0.00403
1182.53880,0.00457
1180.47863,0.00513
1178.41845,0.00578
1176.35828,0.00644
1174.29811,0.00714
1172.23794,0.00799
1170.17777,0.00890
1168.11759,0.00968
1166.05742,0.01036
1163.99725,0.01102
1161.93708,0.01175
1159.87691,0.01261
1157.81673,0.01356
1155.75656,0.01434
1153.69639,0.01490
1151.63622,0.01553
1149.57605,0.01637
1147.51587,0.01721
1145.45570,0.01797
1143.39553,0.01879
1141.33536,0.01956
1139.27518,0.02012
1137.21501,0.02066
1135.15484,0.02129
1133.09467,0.02181
1131.03450,0.02237
1128.97432,0.02314
1126.91415,0.02390
1124.85398,0.02456
1122.79381,0.02527
1120.73364,0.02614
1118.67346,0.02706
1116.61329,0.02787
1114.55312,0.02859
1112.49295,0.02938
1110.43277,0.03033
1108.37260,0.03146
1106.31243,0.03257
1104.25226,0.03346
1102.19209,0.03416
1100.13191,0.03487
1098.07174,0.03568
1096.01157,0.03655
1093.95140,0.03747
1091.89123,0.03837
1089.83105,0.03911
1087.77088,0.03976
1085.71071,0.04046
1083.65054,0.04114
1081.59037,0.04181
1079.53019,0.04261
1077.47002,0.04354
1075.40985,0.04437
1073.34968,0.04497
1071.28950,0.04528
1069.22933,0.04528
1067.16916,0.04508
1065.10899,0.04485
1063.04882,0.04457
1060.98864,0.04409
1058.92847,0.04350
1056.86830,0.04272
1054.80813,0.04157
1052.74796,0.04027
1050.68778,0.03909
1048.62761,0.03796
1046.56744,0.03664
1044.50727,0.03516
1042.44710,0.03371
1040.38692,0.03225
1038.32675,0.03091
1036.26658,0.02978
1034.20641,0.02858
1032.14623,0.02723
1030.08606,0.02599
1028.02589,0.02488
1025.96572,0.02378
1023.90555,0.02275
1021.84537,0.02199
1019.78520,0.02137
1017.72503,0.02073
1015.66486,0.02025
1013.60469,0.01997
1011.54451,0.01977
1009.48434,0.01965
1007.42417,0.01978
1005.36400,0.02035
1003.30382,0.02119
1001.24365,0.02199
999.18348,0.02256
997.12331,0.02302
995.06314,0.02375
993.00296,0.02481
990.94279,0.02581
988.88262,0.02649
986.82245,0.02694
984.76228,0.02732
982.70210,0.02763
980.64193,0.02775
978.58176,0.02766
976.52159,0.02756
974.46142,0.02753
972.40124,0.02741
970.34107,0.02700
968.28090,0.02634
966.22073,0.02567
964.16055,0.02516
962.10038,0.02470
960.04021,0.02404
957.98004,0.02313
955.91987,0.02233
953.85969,0.02177
951.79952,0.02126
949.73935,0.02073
947.67918,0.02021
945.61901,0.01966
943.55883,0.01914
941.49866,0.01869
939.43849,0.01819
937.37832,0.01763
935.31814,0.01704
933.25797,0.01633
931.19780,0.01557
929.13763,0.01493
927.07746,0.01450
925.01728,0.01418
922.95711,0.01379
920.89694,0.01327
918.83677,0.01260
916.77660,0.01183
914.71642,0.01115
912.65625,0.01061
910.59608,0.01007
908.53591,0.00961
906.47574,0.00930
904.41556,0.00914
902.35539,0.00913
900.29522,0.00918
898.23505,0.00929
896.17487,0.00942
894.11470,0.00976
892.05453,0.01024
889.99436,0.01052
887.93419,0.01072
885.87401,0.01096
883.81384,0.01126
881.75367,0.01197
879.69350,0.01288
877.63333,0.01351
875.57315,0.01427
873.51298,0.01549
871.45281,0.01678
869.39264,0.01781
867.33247,0.01865
865.27229,0.01939
863.21212,0.02020
861.15195,0.02107
859.09178,0.02179
857.03160,0.02224
854.97143,0.02236
852.91126,0.02220
850.85109,0.02192
848.79092,0.02148
846.73074,0.02108
844.67057,0.02091
842.61040,0.02039
840.55023,0.01947
838.49006,0.01867
836.42988,0.01797
834.36971,0.01713
832.30954,0.01618
830.24937,0.01546
828.18919,0.01506
826.12902,0.01463
824.06885,0.01406
822.00868,0.01352
819.94851,0.01297
817.88833,0.01235
815.82816,0.01176
813.76799,0.01123
811.70782,0.01076
809.64765,0.01047
807.58747,0.01027
805.52730,0.00986
803.46713,0.00931
801.40696,0.00906
799.34679,0.00910
797.28661,0.00897
795.22644,0.00853
793.16627,0.00799
791.10610,0.00766
789.04592,0.00775
786.98575,0.00783
784.92558,0.00761
782.86541,0.00740
780.80524,0.00735
778.74506,0.00738
776.68489,0.00726
774.62472,0.00682
772.56455,0.00647
770.50438,0.00643
768.44420,0.00633
766.38403,0.00592
764.32386,0.00547
762.26369,0.00531
760.20352,0.00554
758.14334,0.00589
756.08317,0.00601
754.02300,0.00600
751.96283,0.00584
749.90265,0.00538
747.84248,0.00506
745.78231,0.00519
743.72214,0.00520
741.66197,0.00449
739.60179,0.00386
737.54162,0.00405
735.48145,0.00443
733.42128,0.00441
731.36111,0.00433
729.30093,0.00452
727.24076,0.00480
725.18059,0.00498
723.12042,0.00526
721.06024,0.00468
719.00007,0.00493
716.93990,0.00509
714.87973,0.00471
712.81956,0.00456
710.75938,0.00457
708.69921,0.00456
706.63904,0.00469
704.57887,0.00512
702.51870,0.00570
700.45852,0.00616
698.39835,0.00635
696.33818,0.00641
694.27801,0.00636
692.21784,0.00609
690.15766,0.00583
688.09749,0.00597
686.03732,0.00634
683.97715,0.00656
681.91697,0.00687
679.85680,0.00753
677.79663,0.00797
675.73646,0.00786
673.67629,0.00889
671.61611,0.01114
669.55594,0.00576
667.49577,0.00000
665.43560,0.00973
663.37543,0.00796
661.31525,0.00553
659.25508,0.00679
657.19491,0.00850
655.13474,0.00826
653.07457,0.00668
651.01439,0.00546
648.95422,0.00496
646.89405,0.00515
644.83388,0.00510
642.77370,0.00504
640.71353,0.00519
638.65336,0.00501
636.59319,0.00427
634.53302,0.00379
632.47284,0.00374
630.41267,0.00363
628.35250,0.00356
626.29233,0.00393
624.23216,0.00430
622.17198,0.00395
620.11181,0.00280
618.05164,0.00297
615.99147,0.00524
613.93129,0.00603
611.87112,0.00365
609.81095,0.00157
607.75078,0.00139
605.69061,0.00135
603.63043,0.00126
601.57026,0.00110
599.51009,0.00000
