3996.73391,0.00110
3994.67374,0.00121
3992.61357,0.00126
3990.55339,0.00112
3988.49322,0.00080
3986.43305,0.00055
3984.37288,0.00057
3982.31271,0.00076
3980.25253,0.00095
3978.19236,0.00111
3976.13219,0.00110
3974.07202,0.00092
3972.01184,0.00080
3969.95167,0.00087
3967.89150,0.00107
3965.83133,0.00121
3963.77116,0.00125
3961.71098,0.00118
3959.65081,0.00100
3957.59064,0.00090
3955.53047,0.00115
3953.47030,0.00138
3951.41012,0.00100
3949.34995,0.00024
3947.28978,0.00000
3945.22961,0.00040
3943.16943,0.00081
3941.10926,0.00101
3939.04909,0.00109
3936.98892,0.00103
3934.92875,0.00085
3932.86857,0.00059
3930.80840,0.00050
3928.74823,0.00082
3926.68806,0.00123
3924.62789,0.00142
3922.56771,0.00141
3920.50754,0.00121
3918.44737,0.00078
3916.38720,0.00059
3914.32703,0.00093
3912.26685,0.00152
3910.20668,0.00195
3908.14651,0.00203
3906.08634,0.00168
3904.02616,0.00092
3901.96599,0.00018
3899.90582,0.00000
3897.84565,0.00048
3895.78548,0.00114
3893.72530,0.00133
3891.66513,0.00094
3889.60496,0.00061
3887.54479,0.00058
3885.48462,0.00052
3883.42444,0.00049
3881.36427,0.00056
3879.30410,0.00064
3877.24393,0.00090
3875.18376,0.00120
3873.12358,0.00138
3871.06341,0.00140
3869.00324,0.00118
3866.94307,0.00096
3864.88289,0.00085
3862.82272,0.00078
3860.76255,0.00085
3858.70238,0.00106
3856.64221,0.00132
3854.58203,0.00149
3852.52186,0.00097
3850.46169,0.00034
3848.40152,0.00034
3846.34135,0.00085
3844.28117,0.00147
3842.22100,0.00177
3840.16083,0.00149
3838.10066,0.00081
3836.04048,0.00061
3833.98031,0.00105
3831.92014,0.00129
3829.85997,0.00109
3827.79980,0.00095
3825.73962,0.00123
3823.67945,0.00189
3821.61928,0.00236
3819.55911,0.00218
3817.49894,0.00174
3815.43876,0.00115
3813.37859,0.00066
3811.31842,0.00065
3809.25825,0.00093
3807.19808,0.00091
3805.13790,0.00057
3803.07773,0.00064
3801.01756,0.00112
3798.95739,0.00153
3796.89721,0.00160
3794.83704,0.00131
3792.77687,0.00110
3790.71670,0.00134
3788.65653,0.00183
3786.59635,0.00214
3784.53618,0.00207
3782.47601,0.00188
3780.41584,0.00175
3778.35567,0.00162
3776.29549,0.00160
3774.23532,0.00187
3772.17515,0.00227
3770.11498,0.00239
3768.05481,0.00203
3765.99463,0.00148
3763.93446,0.00106
3761.87429,0.00076
3759.81412,0.00033
3757.75394,0.00004
3755.69377,0.00034
3753.63360,0.00089
3751.57343,0.00093
3749.51326,0.00033
3747.45308,0.00013
3745.39291,0.00023
3743.33274,0.00012
3741.27257,0.00005
3739.21240,0.00021
3737.15222,0.00027
3735.09205,0.00005
3733.03188,0.00001
3730.97171,0.00025
3728.91153,0.00056
3726.85136,0.00083
3724.79119,0.00091
3722.73102,0.00091
3720.67085,0.00104
3718.61067,0.00117
3716.55050,0.00135
3714.49033,0.00176
3712.43016,0.00204
3710.36999,0.00167
3708.30981,0.00125
3706.24964,0.00138
3704.18947,0.00170
3702.12930,0.00177
3700.06913,0.00156
3698.00895,0.00148
3695.94878,0.00165
3693.88861,0.00197
3691.82844,0.00220
3689.76826,0.00183
3687.70809,0.00116
3685.64792,0.00108
3683.58775,0.00140
3681.52758,0.00172
3679.46740,0.00195
3677.40723,0.00194
3675.34706,0.00162
3673.28689,0.00155
3671.22672,0.00174
3669.16654,0.00154
3667.10637,0.00129
3665.04620,0.00149
3662.98603,0.00178
3660.92586,0.00186
3658.86568,0.00191
3656.80551,0.00210
3654.74534,0.00240
3652.68517,0.00292
3650.62499,0.00320
3648.56482,0.00260
3646.50465,0.00190
3644.44448,0.00175
3642.38431,0.00207
3640.32413,0.00264
3638.26396,0.00311
3636.20379,0.00330
3634.14362,0.00329
3632.08345,0.00322
3630.02327,0.00312
3627.96310,0.00312
3625.90293,0.00354
3623.84276,0.00423
3621.78258,0.00486
3619.72241,0.00521
3617.66224,0.00522
3615.60207,0.00505
3613.54190,0.00461
3611.48172,0.00402
3609.42155,0.00403
3607.36138,0.00484
3605.30121,0.00579
3603.24104,0.00639
3601.18086,0.00668
3599.12069,0.00684
3597.06052,0.00688
3595.00035,0.00690
3592.94018,0.00700
3590.88000,0.00700
3588.81983,0.00675
3586.75966,0.00669
3584.69949,0.00730
3582.63931,0.00817
3580.57914,0.00876
3578.51897,0.00888
3576.45880,0.00872
3574.39863,0.00871
3572.33845,0.00901
3570.27828,0.00920
3568.21811,0.00891
3566.15794,0.00871
3564.09777,0.00929
3562.03759,0.01008
3559.97742,0.01064
3557.91725,0.01103
3555.85708,0.01122
3553.79690,0.01127
3551.73673,0.01123
3549.67656,0.01109
3547.61639,0.01090
3545.55622,0.01097
3543.49604,0.01143
3541.43587,0.01187
3539.37570,0.01205
3537.31553,0.01218
3535.25536,0.01254
3533.19518,0.01305
3531.13501,0.01338
3529.07484,0.01342
3527.01467,0.01334
3524.95450,0.01348
3522.89432,0.01402
3520.83415,0.01464
3518.77398,0.01490
3516.71381,0.01482
3514.65363,0.01469
3512.59346,0.01466
3510.53329,0.01470
3508.47312,0.01480
3506.41295,0.01500
3504.35277,0.01522
3502.29260,0.01541
3500.23243,0.01581
3498.17226,0.01644
3496.11209,0.01686
3494.05191,0.01696
3491.99174,0.01704
3489.93157,0.01724
3487.87140,0.01751
3485.81123,0.01774
3483.75105,0.01777
3481.69088,0.01772
3479.63071,0.01785
3477.57054,0.01813
3475.51036,0.01838
3473.45019,0.01864
3471.39002,0.01877
3469.32985,0.01870
3467.26968,0.01866
3465.20950,0.01883
3463.14933,0.01923
3461.08916,0.01960
3459.02899,0.01974
3456.96882,0.01968
3454.90864,0.01966
3452.84847,0.01995
3450.78830,0.02034
3448.72813,0.02049
3446.66795,0.02041
3444.60778,0.02044
3442.54761,0.02075
3440.48744,0.02111
3438.42727,0.02133
3436.36709,0.02152
3434.30692,0.02162
3432.24675,0.02156
3430.18658,0.02163
3428.12641,0.02193
3426.06623,0.02221
3424.00606,0.02226
3421.94589,0.02209
3419.88572,0.02202
3417.82555,0.02232
3415.76537,0.02276
3413.70520,0.02307
3411.64503,0.02311
3409.58486,0.02311
3407.52468,0.02340
3405.46451,0.02366
3403.40434,0.02359
3401.34417,0.02343
3399.28400,0.02322
3397.22382,0.02340
3395.16365,0.02380
3393.10348,0.02427
3391.04331,0.02451
3388.98314,0.02449
3386.92296,0.02450
3384.86279,0.02461
3382.80262,0.02457
3380.74245,0.02447
3378.68228,0.02451
3376.62210,0.02455
3374.56193,0.02461
3372.50176,0.02484
3370.44159,0.02517
3368.38141,0.02534
3366.32124,0.02524
3364.26107,0.02510
3362.20090,0.02505
3360.14073,0.02516
3358.08055,0.02550
3356.02038,0.02575
3353.96021,0.02576
3351.90004,0.02581
3349.83987,0.02594
3347.77969,0.02606
3345.71952,0.02623
3343.65935,0.02643
3341.59918,0.02656
3339.53900,0.02664
3337.47883,0.02673
3335.41866,0.02670
3333.35849,0.02652
3331.29832,0.02643
3329.23814,0.02647
3327.17797,0.02654
3325.11780,0.02671
3323.05763,0.02688
3320.99746,0.02697
3318.93728,0.02718
3316.87711,0.02741
3314.81694,0.02751
3312.75677,0.02752
3310.69660,0.02755
3308.63642,0.02763
3306.57625,0.02771
3304.51608,0.02787
3302.45591,0.02817
3300.39573,0.02835
3298.33556,0.02821
3296.27539,0.02801
3294.21522,0.02801
3292.15505,0.02807
3290.09487,0.02802
3288.03470,0.02798
3285.97453,0.02803
3283.91436,0.02815
3281.85419,0.02829
3279.79401,0.02838
3277.73384,0.02846
3275.67367,0.02855
3273.61350,0.02859
3271.55333,0.02864
3269.49315,0.02879
3267.43298,0.02885
3265.37281,0.02872
3263.31264,0.02867
3261.25246,0.02881
3259.19229,0.02887
3257.13212,0.02879
3255.07195,0.02866
3253.01178,0.02848
3250.95160,0.02844
3248.89143,0.02870
3246.83126,0.02902
3244.77109,0.02911
3242.71092,0.02913
3240.65074,0.02915
3238.59057,0.02894
3236.53040,0.02858
3234.47023,0.02834
3232.41005,0.02825
3230.34988,0.02817
3228.28971,0.02816
3226.22954,0.02822
3224.16937,0.02811
3222.10919,0.02794
3220.04902,0.02799
3217.98885,0.02806
3215.92868,0.02804
3213.86851,0.02797
3211.80833,0.02792
3209.74816,0.02783
3207.68799,0.02767
3205.62782,0.02770
3203.56765,0.02794
3201.50747,0.02802
3199.44730,0.02783
3197.38713,0.02770
3195.32696,0.02765
3193.26678,0.02739
3191.20661,0.02713
3189.14644,0.02720
3187.08627,0.02743
3185.02610,0.02750
3182.96592,0.02737
3180.90575,0.02712
3178.84558,0.02689
3176.78541,0.02677
3174.72524,0.02674
3172.66506,0.02679
3170.60489,0.02685
3168.54472,0.02681
3166.48455,0.02666
3164.42437,0.02644
3162.36420,0.02633
3160.30403,0.02641
3158.24386,0.02656
3156.18369,0.02657
3154.12351,0.02641
3152.06334,0.02624
3150.00317,0.02608
3147.94300,0.02598
3145.88283,0.02586
3143.82265,0.02550
3141.76248,0.02517
3139.70231,0.02512
3137.64214,0.02519
3135.58197,0.02524
3133.52179,0.02530
3131.46162,0.02535
3129.40145,0.02528
3127.34128,0.02514
3125.28110,0.02503
3123.22093,0.02483
3121.16076,0.02465
3119.10059,0.02466
3117.04042,0.02465
3114.98024,0.02449
3112.92007,0.02421
3110.85990,0.02398
3108.79973,0.02388
3106.73956,0.02390
3104.67938,0.02391
3102.61921,0.02378
3100.55904,0.02362
3098.49887,0.02365
3096.43870,0.02376
3094.37852,0.02372
3092.31835,0.02359
3090.25818,0.02361
3088.19801,0.02371
3086.13783,0.02371
3084.07766,0.02351
3082.01749,0.02323
3079.95732,0.02311
3077.89715,0.02316
3075.83697,0.02315
3073.77680,0.02300
3071.71663,0.02289
3069.65646,0.02284
3067.59629,0.02271
3065.53611,0.02249
3063.47594,0.02235
3061.41577,0.02228
3059.35560,0.02225
3057.29542,0.02228
3055.23525,0.02241
3053.17508,0.02238
3051.11491,0.02207
3049.05474,0.02175
3046.99456,0.02162
3044.93439,0.02156
3042.87422,0.02143
3040.81405,0.02124
3038.75388,0.02107
3036.69370,0.02097
3034.63353,0.02081
3032.57336,0.02060
3030.51319,0.02062
3028.45302,0.02080
3026.39284,0.02078
3024.33267,0.02065
3022.27250,0.02055
3020.21233,0.02050
3018.15215,0.02045
3016.09198,0.02032
3014.03181,0.02010
3011.97164,0.01985
3009.91147,0.01969
3007.85129,0.01974
3005.79112,0.01971
3003.73095,0.01952
3001.67078,0.01946
2999.61061,0.01952
2997.55043,0.01941
2995.49026,0.01931
2993.43009,0.01928
2991.36992,0.01926
2989.30975,0.01925
2987.24957,0.01915
2985.18940,0.01913
2983.12923,0.01931
2981.06906,0.01949
2979.00888,0.01961
2976.94871,0.01975
2974.88854,0.01983
2972.82837,0.01975
2970.76820,0.01972
2968.70802,0.01984
2966.64785,0.01989
2964.58768,0.01989
2962.52751,0.01991
2960.46734,0.01972
2958.40716,0.01951
2956.34699,0.01954
2954.28682,0.01957
2952.22665,0.01947
2950.16647,0.01937
2948.10630,0.01934
2946.04613,0.01944
2943.98596,0.01968
2941.92579,0.01992
2939.86561,0.02000
2937.80544,0.01998
2935.74527,0.01998
2933.68510,0.01996
2931.62493,0.01982
2929.56475,0.01964
2927.50458,0.01968
2925.44441,0.01992
2923.38424,0.02006
2921.32407,0.02003
2919.26389,0.01994
2917.20372,0.01978
2915.14355,0.01956
2913.08338,0.01944
2911.02320,0.01942
2908.96303,0.01928
2906.90286,0.01903
2904.84269,0.01884
2902.78252,0.01867
2900.72234,0.01849
2898.66217,0.01844
2896.60200,0.01849
2894.54183,0.01839
2892.48166,0.01810
2890.42148,0.01799
2888.36131,0.01807
2886.30114,0.01803
2884.24097,0.01789
2882.18080,0.01772
2880.12062,0.01763
2878.06045,0.01774
2876.00028,0.01789
2873.94011,0.01798
2871.87993,0.01792
2869.81976,0.01767
2867.75959,0.01745
2865.69942,0.01746
2863.63925,0.01765
2861.57907,0.01778
2859.51890,0.01769
2857.45873,0.01740
2855.39856,0.01708
2853.33839,0.01700
2851.27821,0.01700
2849.21804,0.01687
2847.15787,0.01669
2845.09770,0.01648
2843.03752,0.01617
2840.97735,0.01591
2838.91718,0.01590
2836.85701,0.01598
2834.79684,0.01588
2832.73666,0.01566
2830.67649,0.01545
2828.61632,0.01531
2826.55615,0.01528
2824.49598,0.01525
2822.43580,0.01509
2820.37563,0.01484
2818.31546,0.01474
2816.25529,0.01476
2814.19512,0.01464
2812.13494,0.01451
2810.07477,0.01458
2808.01460,0.01467
2805.95443,0.01464
2803.89425,0.01447
2801.83408,0.01433
2799.77391,0.01426
2797.71374,0.01421
2795.65357,0.01419
2793.59339,0.01414
2791.53322,0.01396
2789.47305,0.01370
2787.41288,0.01356
2785.35271,0.01351
2783.29253,0.01339
2781.23236,0.01326
2779.17219,0.01314
2777.11202,0.01299
2775.05184,0.01286
2772.99167,0.01273
2770.93150,0.01265
2768.87133,0.01254
2766.81116,0.01240
2764.75098,0.01230
2762.69081,0.01229
2760.63064,0.01234
2758.57047,0.01230
2756.51030,0.01203
2754.45012,0.01180
2752.38995,0.01176
2750.32978,0.01162
2748.26961,0.01139
2746.20944,0.01147
2744.14926,0.01171
2742.08909,0.01166
2740.02892,0.01140
2737.96875,0.01120
2735.90857,0.01119
2733.84840,0.01128
2731.78823,0.01128
2729.72806,0.01118
2727.66789,0.01118
2725.60771,0.01122
2723.54754,0.01102
2721.48737,0.01071
2719.42720,0.01060
2717.36703,0.01060
2715.30685,0.01049
2713.24668,0.01034
2711.18651,0.01027
2709.12634,0.01022
2707.06617,0.01009
2705.00599,0.00996
2702.94582,0.00999
2700.88565,0.01005
2698.82548,0.00997
2696.76530,0.00980
2694.70513,0.00972
2692.64496,0.00982
2690.58479,0.00983
2688.52462,0.00967
2686.46444,0.00954
2684.40427,0.00948
2682.34410,0.00953
2680.28393,0.00965
2678.22376,0.00958
2676.16358,0.00935
2674.10341,0.00921
2672.04324,0.00918
2669.98307,0.00917
2667.92289,0.00917
2665.86272,0.00924
2663.80255,0.00933
2661.74238,0.00939
2659.68221,0.00940
2657.62203,0.00935
2655.56186,0.00925
2653.50169,0.00909
2651.44152,0.00899
2649.38135,0.00912
2647.32117,0.00929
2645.26100,0.00925
2643.20083,0.00915
2641.14066,0.00914
2639.08049,0.00909
2637.02031,0.00904
2634.96014,0.00909
2632.89997,0.00911
2630.83980,0.00897
2628.77962,0.00871
2626.71945,0.00844
2624.65928,0.00835
2622.59911,0.00839
2620.53894,0.00835
2618.47876,0.00813
2616.41859,0.00801
2614.35842,0.00816
2612.29825,0.00823
2610.23808,0.00818
2608.17790,0.00827
2606.11773,0.00838
2604.05756,0.00830
2601.99739,0.00814
2599.93722,0.00806
2597.87704,0.00802
2595.81687,0.00802
2593.75670,0.00800
2591.69653,0.00804
2589.63635,0.00818
2587.57618,0.00811
2585.51601,0.00799
2583.45584,0.00808
2581.39567,0.00794
2579.33549,0.00752
2577.27532,0.00751
2575.21515,0.00790
2573.15498,0.00805
2571.09481,0.00789
2569.03463,0.00778
2566.97446,0.00772
2564.91429,0.00764
2562.85412,0.00759
2560.79394,0.00770
2558.73377,0.00786
2556.67360,0.00783
2554.61343,0.00779
2552.55326,0.00789
2550.49308,0.00786
2548.43291,0.00759
2546.37274,0.00742
2544.31257,0.00746
2542.25240,0.00753
2540.19222,0.00768
2538.13205,0.00788
2536.07188,0.00785
2534.01171,0.00775
2531.95154,0.00777
2529.89136,0.00775
2527.83119,0.00753
2525.77102,0.00721
2523.71085,0.00719
2521.65067,0.00750
2519.59050,0.00775
2517.53033,0.00788
2515.47016,0.00789
2513.40999,0.00790
2511.34981,0.00809
2509.28964,0.00831
2507.22947,0.00822
2505.16930,0.00804
2503.10913,0.00823
2501.04895,0.00842
2498.98878,0.00840
2496.92861,0.00843
2494.86844,0.00839
2492.80827,0.00830
2490.74809,0.00838
2488.68792,0.00851
2486.62775,0.00860
2484.56758,0.00867
2482.50740,0.00866
2480.44723,0.00854
2478.38706,0.00851
2476.32689,0.00877
2474.26672,0.00903
2472.20654,0.00898
2470.14637,0.00880
2468.08620,0.00885
2466.02603,0.00920
2463.96586,0.00944
2461.90568,0.00929
2459.84551,0.00916
2457.78534,0.00927
2455.72517,0.00934
2453.66499,0.00929
2451.60482,0.00924
2449.54465,0.00922
2447.48448,0.00913
2445.42431,0.00906
2443.36413,0.00919
2441.30396,0.00921
2439.24379,0.00895
2437.18362,0.00874
2435.12345,0.00876
2433.06327,0.00890
2431.00310,0.00898
2428.94293,0.00888
2426.88276,0.00872
2424.82259,0.00883
2422.76241,0.00899
2420.70224,0.00899
2418.64207,0.00909
2416.58190,0.00930
2414.52172,0.00928
2412.46155,0.00909
2410.40138,0.00903
2408.34121,0.00901
2406.28104,0.00887
2404.22086,0.00882
2402.16069,0.00896
2400.10052,0.00892
2398.04035,0.00837
2395.98018,0.00805
2393.92000,0.00824
2391.85983,0.00862
2389.79966,0.00875
2387.73949,0.00856
2385.67931,0.00834
2383.61914,0.00818
2381.55897,0.00787
2379.49880,0.00746
2377.43863,0.00721
2375.37845,0.00719
2373.31828,0.00776
2371.25811,0.00883
2369.19794,0.00951
2367.13777,0.01010
2365.07759,0.01166
2363.01742,0.01304
2360.95725,0.01348
2358.89708,0.01238
2356.83691,0.01031
2354.77673,0.00842
2352.71656,0.00783
2350.65639,0.00892
2348.59622,0.00974
2346.53604,0.00848
2344.47587,0.00786
2342.41570,0.00806
2340.35553,0.00874
2338.29536,0.00970
2336.23518,0.01033
2334.17501,0.01033
2332.11484,0.00959
2330.05467,0.00882
2327.99450,0.00866
2325.93432,0.00913
2323.87415,0.00883
2321.81398,0.00786
2319.75381,0.00681
2317.69364,0.00640
2315.63346,0.00626
2313.57329,0.00638
2311.51312,0.00653
2309.45295,0.00638
2307.39277,0.00627
2305.33260,0.00652
2303.27243,0.00689
2301.21226,0.00699
2299.15209,0.00703
2297.09191,0.00718
2295.03174,0.00735
2292.97157,0.00753
2290.91140,0.00772
2288.85123,0.00788
2286.79105,0.00781
2284.73088,0.00746
2282.67071,0.00716
2280.61054,0.00720
2278.55036,0.00749
2276.49019,0.00784
2274.43002,0.00819
2272.36985,0.00823
2270.30968,0.00780
2268.24950,0.00718
2266.18933,0.00682
2264.12916,0.00684
2262.06899,0.00725
2260.00882,0.00802
2257.94864,0.00846
2255.88847,0.00780
2253.82830,0.00657
2251.76813,0.00600
2249.70796,0.00637
2247.64778,0.00685
2245.58761,0.00676
2243.52744,0.00625
2241.46727,0.00587
2239.40709,0.00593
2237.34692,0.00596
2235.28675,0.00604
2233.22658,0.00662
2231.16641,0.00704
2229.10623,0.00648
2227.04606,0.00533
2224.98589,0.00476
2222.92572,0.00511
2220.86555,0.00555
2218.80537,0.00547
2216.74520,0.00490
2214.68503,0.00447
2212.62486,0.00491
2210.56469,0.00561
2208.50451,0.00561
2206.44434,0.00539
2204.38417,0.00526
2202.32400,0.00468
2200.26382,0.00424
2198.20365,0.00464
2196.14348,0.00517
2194.08331,0.00510
2192.02314,0.00496
2189.96296,0.00556
2187.90279,0.00606
2185.84262,0.00555
2183.78245,0.00466
2181.72228,0.00398
2179.66210,0.00372
2177.60193,0.00374
2175.54176,0.00353
2173.48159,0.00340
2171.42141,0.00395
2169.36124,0.00444
2167.30107,0.00430
2165.24090,0.00443
2163.18073,0.00498
2161.12055,0.00382
2159.06038,0.00125
2157.00021,0.00055
2154.94004,0.00147
2152.87987,0.00179
2150.81969,0.00124
2148.75952,0.00087
2146.69935,0.00138
2144.63918,0.00240
2142.57901,0.00273
2140.51883,0.00227
2138.45866,0.00211
2136.39849,0.00226
2134.33832,0.00215
2132.27814,0.00183
2130.21797,0.00177
2128.15780,0.00202
2126.09763,0.00233
2124.03746,0.00282
2121.97728,0.00344
2119.91711,0.00369
2117.85694,0.00357
2115.79677,0.00335
2113.73660,0.00321
2111.67642,0.00309
2109.61625,0.00287
2107.55608,0.00284
2105.49591,0.00310
2103.43573,0.00349
2101.37556,0.00349
2099.31539,0.00303
2097.25522,0.00263
2095.19505,0.00250
2093.13487,0.00255
2091.07470,0.00294
2089.01453,0.00320
2086.95436,0.00295
2084.89419,0.00277
2082.83401,0.00308
2080.77384,0.00375
2078.71367,0.00412
2076.65350,0.00379
2074.59333,0.00336
2072.53315,0.00329
2070.47298,0.00318
2068.41281,0.00296
2066.35264,0.00269
2064.29246,0.00203
2062.23229,0.00133
2060.17212,0.00167
2058.11195,0.00275
2056.05178,0.00334
2053.99160,0.00374
2051.93143,0.00398
2049.87126,0.00341
2047.81109,0.00278
2045.75092,0.00288
2043.69074,0.00346
2041.63057,0.00426
2039.57040,0.00484
2037.51023,0.00465
2035.45006,0.00371
2033.38988,0.00282
2031.32971,0.00288
2029.26954,0.00340
2027.20937,0.00318
2025.14919,0.00242
2023.08902,0.00239
2021.02885,0.00341
2018.96868,0.00408
2016.90851,0.00363
2014.84833,0.00280
2012.78816,0.00215
2010.72799,0.00221
2008.66782,0.00266
2006.60765,0.00240
2004.54747,0.00210
2002.48730,0.00218
2000.42713,0.00179
1998.36696,0.00160
1996.30678,0.00254
1994.24661,0.00352
1992.18644,0.00339
1990.12627,0.00307
1988.06610,0.00345
1986.00592,0.00372
1983.94575,0.00347
1981.88558,0.00366
1979.82541,0.00426
1977.76524,0.00399
1975.70506,0.00296
1973.64489,0.00254
1971.58472,0.00293
1969.52455,0.00273
1967.46438,0.00139
1965.40420,0.00028
1963.34403,0.00006
1961.28386,0.00056
1959.22369,0.00151
1957.16351,0.00193
1955.10334,0.00160
1953.04317,0.00113
1950.98300,0.00093
1948.92283,0.00116
1946.86265,0.00142
1944.80248,0.00109
1942.74231,0.00030
1940.68214,0.00000
1938.62197,0.00070
1936.56179,0.00150
1934.50162,0.00151
1932.44145,0.00111
1930.38128,0.00099
1928.32111,0.00120
1926.26093,0.00133
1924.20076,0.00106
1922.14059,0.00076
1920.08042,0.00104
1918.02024,0.00156
1915.96007,0.00164
1913.89990,0.00161
1911.83973,0.00190
1909.77956,0.00213
1907.71938,0.00201
1905.65921,0.00189
1903.59904,0.00207
1901.53887,0.00237
1899.47870,0.00251
1897.41852,0.00256
1895.35835,0.00256
1893.29818,0.00245
1891.23801,0.00227
1889.17783,0.00206
1887.11766,0.00196
1885.05749,0.00219
1882.99732,0.00253
1880.93715,0.00256
1878.87697,0.00242
1876.81680,0.00248
1874.75663,0.00259
1872.69646,0.00249
1870.63629,0.00220
1868.57611,0.00204
1866.51594,0.00213
1864.45577,0.00231
1862.39560,0.00250
1860.33543,0.00271
1858.27525,0.00290
1856.21508,0.00294
1854.15491,0.00270
1852.09474,0.00240
1850.03456,0.00244
1847.97439,0.00268
1845.91422,0.00259
1843.85405,0.00222
1841.79388,0.00219
1839.73370,0.00255
1837.67353,0.00280
1835.61336,0.00274
1833.55319,0.00266
1831.49302,0.00284
1829.43284,0.00306
1827.37267,0.00308
1825.31250,0.00303
1823.25233,0.00302
1821.19216,0.00300
1819.13198,0.00280
1817.07181,0.00254
1815.01164,0.00257
1812.95147,0.00283
1810.89129,0.00295
1808.83112,0.00287
1806.77095,0.00285
1804.71078,0.00288
1802.65061,0.00280
1800.59043,0.00270
1798.53026,0.00270
1796.47009,0.00280
1794.40992,0.00295
1792.34975,0.00293
1790.28957,0.00275
1788.22940,0.00267
1786.16923,0.00264
1784.10906,0.00270
1782.04888,0.00288
1779.98871,0.00288
1777.92854,0.00277
1775.86837,0.00289
1773.80820,0.00320
1771.74802,0.00313
1769.68785,0.00255
1767.62768,0.00220
1765.56751,0.00245
1763.50734,0.00281
1761.44716,0.00273
1759.38699,0.00247
1757.32682,0.00250
1755.26665,0.00272
1753.20648,0.00280
1751.14630,0.00265
1749.08613,0.00263
1747.02596,0.00296
1744.96579,0.00342
1742.90561,0.00389
1740.84544,0.00419
1738.78527,0.00412
1736.72510,0.00376
1734.66493,0.00330
1732.60475,0.00306
1730.54458,0.00326
1728.48441,0.00355
1726.42424,0.00373
1724.36407,0.00385
1722.30389,0.00404
1720.24372,0.00431
1718.18355,0.00427
1716.12338,0.00374
1714.06320,0.00350
1712.00303,0.00365
1709.94286,0.00402
1707.88269,0.00447
1705.82252,0.00478
1703.76234,0.00502
1701.70217,0.00558
1699.64200,0.00625
1697.58183,0.00664
1695.52166,0.00694
1693.46148,0.00736
1691.40131,0.00788
1689.34114,0.00856
1687.28097,0.00949
1685.22080,0.01049
1683.16062,0.01085
1681.10045,0.01090
1679.04028,0.01139
1676.98011,0.01216
1674.91993,0.01281
1672.85976,0.01333
1670.79959,0.01394
1668.73942,0.01459
1666.67925,0.01526
1664.61907,0.01601
1662.55890,0.01652
1660.49873,0.01671
1658.43856,0.01703
1656.37839,0.01771
1654.31821,0.01852
1652.25804,0.01895
1650.19787,0.01918
1648.13770,0.01940
1646.07753,0.01927
1644.01735,0.01881
1641.95718,0.01864
1639.89701,0.01890
1637.83684,0.01922
1635.77666,0.01896
1633.71649,0.01832
1631.65632,0.01806
1629.59615,0.01821
1627.53598,0.01840
1625.47580,0.01840
1623.41563,0.01822
1621.35546,0.01800
1619.29529,0.01800
1617.23512,0.01800
1615.17494,0.01755
1613.11477,0.01696
1611.05460,0.01657
1608.99443,0.01622
1606.93425,0.01581
1604.87408,0.01542
1602.81391,0.01504
1600.75374,0.01459
1598.69357,0.01419
1596.63339,0.01390
1594.57322,0.01368
1592.51305,0.01338
1590.45288,0.01302
1588.39271,0.01269
1586.33253,0.01237
1584.27236,0.01198
1582.21219,0.01169
1580.15202,0.01178
1578.09185,0.01203
1576.03167,0.01190
1573.97150,0.01145
1571.91133,0.01133
1569.85116,0.01135
1567.79098,0.01106
1565.73081,0.01076
1563.67064,0.01085
1561.61047,0.01129
1559.55030,0.01143
1557.49012,0.01070
1555.42995,0.01010
1553.36978,0.00986
1551.30961,0.00967
1549.24944,0.00953
1547.18926,0.00963
1545.12909,0.01008
1543.06892,0.01093
1541.00875,0.01169
1538.94858,0.01130
1536.88840,0.01046
1534.82823,0.01002
1532.76806,0.00988
1530.70789,0.00980
1528.64771,0.00971
1526.58754,0.00956
1524.52737,0.00958
1522.46720,0.00956
1520.40703,0.00905
1518.34685,0.00853
1516.28668,0.00827
1514.22651,0.00797
1512.16634,0.00753
1510.10617,0.00708
1508.04599,0.00677
1505.98582,0.00669
1503.92565,0.00666
1501.86548,0.00655
1499.80530,0.00646
1497.74513,0.00621
1495.68496,0.00574
1493.62479,0.00546
1491.56462,0.00526
1489.50444,0.00472
1487.44427,0.00409
1485.38410,0.00381
1483.32393,0.00375
1481.26376,0.00371
1479.20358,0.00362
1477.14341,0.00346
1475.08324,0.00326
1473.02307,0.00321
1470.96290,0.00347
1468.90272,0.00383
1466.84255,0.00410
1464.78238,0.00424
1462.72221,0.00432
1460.66203,0.00444
1458.60186,0.00443
1456.54169,0.00423
1454.48152,0.00431
1452.42135,0.00460
1450.36117,0.00489
1448.30100,0.00511
1446.24083,0.00527
1444.18066,0.00539
1442.12049,0.00547
1440.06031,0.00549
1438.00014,0.00531
1435.93997,0.00495
1433.87980,0.00480
1431.81963,0.00495
1429.75945,0.00521
1427.69928,0.00547
1425.63911,0.00572
1423.57894,0.00589
1421.51876,0.00593
1419.45859,0.00587
1417.39842,0.00601
1415.33825,0.00656
1413.27808,0.00715
1411.21790,0.00754
1409.15773,0.00779
1407.09756,0.00799
1405.03739,0.00811
1402.97722,0.00819
1400.91704,0.00819
1398.85687,0.00798
1396.79670,0.00770
1394.73653,0.00765
1392.67635,0.00784
1390.61618,0.00800
1388.55601,0.00792
1386.49584,0.00777
1384.43567,0.00786
1382.37549,0.00801
1380.31532,0.00797
1378.25515,0.00789
1376.19498,0.00784
1374.13481,0.00764
1372.07463,0.00745
1370.01446,0.00747
1367.95429,0.00754
1365.89412,0.00746
1363.83395,0.00726
1361.77377,0.00713
1359.71360,0.00718
1357.65343,0.00727
1355.59326,0.00726
1353.53308,0.00716
1351.47291,0.00697
1349.41274,0.00673
1347.35257,0.00650
1345.29240,0.00630
1343.23222,0.00595
1341.17205,0.00527
1339.11188,0.00456
1337.05171,0.00439
1334.99154,0.00465
1332.93136,0.00481
1330.87119,0.00471
1328.81102,0.00447
1326.75085,0.00422
1324.69067,0.00406
1322.63050,0.00400
1320.57033,0.00392
1318.51016,0.00370
1316.44999,0.00339
1314.38981,0.00313
1312.32964,0.00308
1310.26947,0.00323
1308.20930,0.00341
1306.14913,0.00345
1304.08895,0.00336
1302.02878,0.00323
1299.96861,0.00312
1297.90844,0.00300
1295.84827,0.00289
1293.78809,0.00291
1291.72792,0.00299
1289.66775,0.00300
1287.60758,0.00294
1285.54740,0.00286
1283.48723,0.00274
1281.42706,0.00268
1279.36689,0.00272
1277.30672,0.00274
1275.24654,0.00264
1273.18637,0.00253
1271.12620,0.00253
1269.06603,0.00257
1267.00586,0.00250
1264.94568,0.00241
1262.88551,0.00243
1260.82534,0.00254
1258.76517,0.00264
1256.70500,0.00267
1254.64482,0.00269
1252.58465,0.00282
1250.52448,0.00294
1248.46431,0.00292
1246.40413,0.00288
1244.34396,0.00282
1242.28379,0.00274
1240.22362,0.00265
1238.16345,0.00262
1236.10327,0.00263
1234.04310,0.00258
1231.98293,0.00239
1229.92276,0.00212
1227.86259,0.00193
1225.80241,0.00173
1223.74224,0.00147
1221.68207,0.00130
1219.62190,0.00121
1217.56172,0.00101
1215.50155,0.00066
1213.44138,0.00038
1211.38121,0.00034
1209.32104,0.00039
1207.26086,0.00031
1205.20069,0.00023
1203.14052,0.00039
1201.08035,0.00073
1199.02018,0.00115
1196.96000,0.00163
1194.89983,0.00212
1192.83966,0.00263
1190.77949,0.00325
1188.71932,0.00411
1186.65914,0.00517
1184.59897,0.00620
1182.53880,0.00709
1180.47863,0.00801
1178.41845,0.00910
1176.35828,0.01022
1174.29811,0.01133
1172.23794,0.01245
1170.17777,0.01353
1168.11759,0.01456
1166.05742,0.01546
1163.99725,0.01623
1161.93708,0.01712
1159.87691,0.01818
1157.81673,0.01914
1155.75656,0.01988
1153.69639,0.02053
1151.63622,0.02121
1149.57605,0.02196
1147.51587,0.02268
1145.45570,0.02329
1143.39553,0.02382
1141.33536,0.02436
1139.27518,0.02483
1137.21501,0.02515
1135.15484,0.02543
1133.09467,0.02570
1131.03450,0.02599
1128.97432,0.02639
1126.91415,0.02683
1124.85398,0.02726
1122.79381,0.02771
1120.73364,0.02821
1118.67346,0.02877
1116.61329,0.02940
1114.55312,0.03008
1112.49295,0.03085
1110.43277,0.03177
1108.37260,0.03272
1106.31243,0.03362
1104.25226,0.03446
1102.19209,0.03522
1100.13191,0.03597
1098.07174,0.03693
1096.01157,0.03815
1093.95140,0.03930
1091.89123,0.04020
1089.83105,0.04102
1087.77088,0.04192
1085.71071,0.04287
1083.65054,0.04377
1081.59037,0.04454
1079.53019,0.04525
1077.47002,0.04609
1075.40985,0.04696
1073.34968,0.04752
1071.28950,0.04764
1069.22933,0.04751
1067.16916,0.04739
1065.10899,0.04723
1063.04882,0.04684
1060.98864,0.04636
1058.92847,0.04590
1056.86830,0.04529
1054.80813,0.04431
1052.74796,0.04303
1050.68778,0.04167
1048.62761,0.04035
1046.56744,0.03911
1044.50727,0.03784
1042.44710,0.03641
1040.38692,0.03498
1038.32675,0.03370
1036.26658,0.03237
1034.20641,0.03088
1032.14623,0.02946
1030.08606,0.02828
1028.02589,0.02720
1025.96572,0.02609
1023.90555,0.02514
1021.84537,0.02444
1019.78520,0.02367
1017.72503,0.02280
1015.66486,0.02209
1013.60469,0.02164
1011.54451,0.02148
1009.48434,0.02151
1007.42417,0.02151
1005.36400,0.02156
1003.30382,0.02184
1001.24365,0.02232
999.18348,0.02298
997.12331,0.02377
995.06314,0.02453
993.00296,0.02524
990.94279,0.02598
988.88262,0.02652
986.82245,0.02677
984.76228,0.02700
982.70210,0.02725
980.64193,0.02737
978.58176,0.02732
976.52159,0.02729
974.46142,0.02736
972.40124,0.02739
970.34107,0.02710
968.28090,0.02650
966.22073,0.02598
964.16055,0.02568
962.10038,0.02527
960.04021,0.02467
957.98004,0.02410
955.91987,0.02371
953.85969,0.02358
951.79952,0.02352
949.73935,0.02324
947.67918,0.02289
945.61901,0.02258
943.55883,0.02225
941.49866,0.02197
939.43849,0.02160
937.37832,0.02101
935.31814,0.02035
933.25797,0.01949
931.19780,0.01863
929.13763,0.01808
927.07746,0.01764
925.01728,0.01713
922.95711,0.01652
920.89694,0.01573
918.83677,0.01480
916.77660,0.01389
914.71642,0.01298
912.65625,0.01201
910.59608,0.01124
908.53591,0.01090
906.47574,0.01062
904.41556,0.01022
902.35539,0.00987
900.29522,0.00959
898.23505,0.00948
896.17487,0.00954
894.11470,0.00969
892.05453,0.00995
889.99436,0.01023
887.93419,0.01050
885.87401,0.01072
883.81384,0.01106
881.75367,0.01192
879.69350,0.01308
877.63333,0.01425
875.57315,0.01549
873.51298,0.01695
871.45281,0.01852
869.39264,0.01983
867.33247,0.02083
865.27229,0.02200
863.21212,0.02334
861.15195,0.02432
859.09178,0.02508
857.03160,0.02600
854.97143,0.02668
852.91126,0.02677
850.85109,0.02633
848.79092,0.02564
846.73074,0.02507
844.67057,0.02450
842.61040,0.02360
840.55023,0.02258
838.49006,0.02161
836.42988,0.02070
834.36971,0.01976
832.30954,0.01864
830.24937,0.01768
828.18919,0.01711
826.12902,0.01662
824.06885,0.01595
822.00868,0.01506
819.94851,0.01414
817.88833,0.01348
815.82816,0.01315
813.76799,0.01280
811.70782,0.01227
809.64765,0.01175
807.58747,0.01138
805.52730,0.01098
803.46713,0.01042
801.40696,0.00993
799.34679,0.00953
797.28661,0.00902
795.22644,0.00857
793.16627,0.00825
791.10610,0.00800
789.04592,0.00804
786.98575,0.00827
784.92558,0.00826
782.86541,0.00785
780.80524,0.00732
778.74506,0.00709
776.68489,0.00707
774.62472,0.00701
772.56455,0.00695
770.50438,0.00681
768.44420,0.00641
766.38403,0.00592
764.32386,0.00541
762.26369,0.00487
760.20352,0.00475
758.14334,0.00488
756.08317,0.00482
754.02300,0.00478
751.96283,0.00500
749.90265,0.00503
747.84248,0.00442
745.78231,0.00383
743.72214,0.00399
741.66197,0.00437
739.60179,0.00450
737.54162,0.00449
735.48145,0.00428
733.42128,0.00403
731.36111,0.00381
729.30093,0.00352
727.24076,0.00360
725.18059,0.00403
723.12042,0.00429
721.06024,0.00390
719.00007,0.00369
716.93990,0.00381
714.87973,0.00414
712.81956,0.00429
710.75938,0.00391
708.69921,0.00357
706.63904,0.00374
704.57887,0.00401
702.51870,0.00403
700.45852,0.00381
698.39835,0.00347
696.33818,0.00334
694.27801,0.00373
692.21784,0.00415
690.15766,0.00405
688.09749,0.00371
686.03732,0.00371
683.97715,0.00407
681.91697,0.00456
679.85680,0.00511
677.79663,0.00574
675.73646,0.00604
673.67629,0.00558
671.61611,0.00458
669.55594,0.00243
667.49577,0.00155
665.43560,0.00453
663.37543,0.00372
661.31525,0.00260
659.25508,0.00307
657.19491,0.00434
655.13474,0.00503
653.07457,0.00492
651.01439,0.00469
648.95422,0.00424
646.89405,0.00343
644.83388,0.00261
642.77370,0.00234
640.71353,0.00235
638.65336,0.00206
636.59319,0.00216
634.53302,0.00309
632.47284,0.00332
630.41267,0.00238
628.35250,0.00146
626.29233,0.00108
624.23216,0.00133
622.17198,0.00183
620.11181,0.00091
618.05164,0.00053
615.99147,0.00271
613.93129,0.00378
611.87112,0.00180
609.81095,0.00000
607.75078,0.00006
605.69061,0.00070
603.63043,0.00077
601.57026,0.00040
599.51009,0.00000
