3996.73391,0.00044
3994.67374,0.00066
3992.61357,0.00087
3990.55339,0.00082
3988.49322,0.00048
3986.43305,0.00022
3984.37288,0.00034
3982.31271,0.00067
3980.25253,0.00081
3978.19236,0.00074
3976.13219,0.00066
3974.07202,0.00071
3972.01184,0.00090
3969.95167,0.00107
3967.89150,0.00094
3965.83133,0.00066
3963.77116,0.00057
3961.71098,0.00060
3959.65081,0.00046
3957.59064,0.00024
3955.53047,0.00031
3953.47030,0.00056
3951.41012,0.00055
3949.34995,0.00023
3947.28978,0.00000
3945.22961,0.00011
3943.16943,0.00049
3941.10926,0.00076
3939.04909,0.00058
3936.98892,0.00024
3934.92875,0.00016
3932.86857,0.00016
3930.80840,0.00009
3928.74823,0.00008
3926.68806,0.00018
3924.62789,0.00037
3922.56771,0.00046
3920.50754,0.00028
3918.44737,0.00008
3916.38720,0.00030
3914.32703,0.00077
3912.26685,0.00098
3910.20668,0.00093
3908.14651,0.00078
3906.08634,0.00065
3904.02616,0.00055
3901.96599,0.00050
3899.90582,0.00060
3897.84565,0.00081
3895.78548,0.00084
3893.72530,0.00070
3891.66513,0.00061
3889.60496,0.00058
3887.54479,0.00050
3885.48462,0.00047
3883.42444,0.00034
3881.36427,0.00017
3879.30410,0.00020
3877.24393,0.00014
3875.18376,0.00000
3873.12358,0.00013
3871.06341,0.00048
3869.00324,0.00078
3866.94307,0.00090
3864.88289,0.00096
3862.82272,0.00105
3860.76255,0.00089
3858.70238,0.00048
3856.64221,0.00022
3854.58203,0.00070
3852.52186,0.00152
3850.46169,0.00167
3848.40152,0.00125
3846.34135,0.00096
3844.28117,0.00102
3842.22100,0.00126
3840.16083,0.00141
3838.10066,0.00121
3836.04048,0.00084
3833.98031,0.00074
3831.92014,0.00083
3829.85997,0.00084
3827.79980,0.00080
3825.73962,0.00093
3823.67945,0.00132
3821.61928,0.00196
3819.55911,0.00227
3817.49894,0.00193
3815.43876,0.00140
3813.37859,0.00104
3811.31842,0.00086
3809.25825,0.00089
3807.19808,0.00094
3805.13790,0.00094
3803.07773,0.00134
3801.01756,0.00203
3798.95739,0.00217
3796.89721,0.00163
3794.83704,0.00099
3792.77687,0.00065
3790.71670,0.00067
3788.65653,0.00091
3786.59635,0.00118
3784.53618,0.00124
3782.47601,0.00115
3780.41584,0.00117
3778.35567,0.00114
3776.29549,0.00083
3774.23532,0.00052
3772.17515,0.00060
3770.11498,0.00101
3768.05481,0.00133
3765.99463,0.00131
3763.93446,0.00099
3761.87429,0.00063
3759.81412,0.00056
3757.75394,0.00073
3755.69377,0.00070
3753.63360,0.00066
3751.57343,0.00103
3749.51326,0.00117
3747.45308,0.00079
3745.39291,0.00046
3743.33274,0.00038
3741.27257,0.00020
3739.21240,0.00000
3737.15222,0.00021
3735.09205,0.00095
3733.03188,0.00167
3730.97171,0.00159
3728.91153,0.00103
3726.85136,0.00064
3724.79119,0.00050
3722.73102,0.00047
3720.67085,0.00073
3718.61067,0.00094
3716.55050,0.00089
3714.49033,0.00087
3712.43016,0.00097
3710.36999,0.00082
3708.30981,0.00048
3706.24964,0.00045
3704.18947,0.00062
3702.12930,0.00082
3700.06913,0.00104
3698.00895,0.00124
3695.94878,0.00141
3693.88861,0.00151
3691.82844,0.00170
3689.76826,0.00170
3687.70809,0.00131
3685.64792,0.00099
3683.58775,0.00085
3681.52758,0.00076
3679.46740,0.00084
3677.40723,0.00120
3675.34706,0.00165
3673.28689,0.00179
3671.22672,0.00179
3669.16654,0.00179
3667.10637,0.00157
3665.04620,0.00123
3662.98603,0.00097
3660.92586,0.00076
3658.86568,0.00072
3656.80551,0.00092
3654.74534,0.00108
3652.68517,0.00115
3650.62499,0.00169
3648.56482,0.00250
3646.50465,0.00258
3644.44448,0.00203
3642.38431,0.00165
3640.32413,0.00170
3638.26396,0.00195
3636.20379,0.00218
3634.14362,0.00210
3632.08345,0.00183
3630.02327,0.00203
3627.96310,0.00291
3625.90293,0.00353
3623.84276,0.00367
3621.78258,0.00384
3619.72241,0.00421
3617.66224,0.00451
3615.60207,0.00444
3613.54190,0.00404
3611.48172,0.00347
3609.42155,0.00344
3607.36138,0.00419
3605.30121,0.00490
3603.24104,0.00522
3601.18086,0.00554
3599.12069,0.00591
3597.06052,0.00595
3595.00035,0.00581
3592.94018,0.00577
3590.88000,0.00574
3588.81983,0.00568
3586.75966,0.00601
3584.69949,0.00668
3582.63931,0.00719
3580.57914,0.00746
3578.51897,0.00761
3576.45880,0.00777
3574.39863,0.00787
3572.33845,0.00774
3570.27828,0.00738
3568.21811,0.00724
3566.15794,0.00779
3564.09777,0.00862
3562.03759,0.00910
3559.97742,0.00930
3557.91725,0.00944
3555.85708,0.00947
3553.79690,0.00950
3551.73673,0.00957
3549.67656,0.00945
3547.61639,0.00914
3545.55622,0.00913
3543.49604,0.00960
3541.43587,0.01010
3539.37570,0.01033
3537.31553,0.01039
3535.25536,0.01043
3533.19518,0.01052
3531.13501,0.01078
3529.07484,0.01115
3527.01467,0.01144
3524.95450,0.01178
3522.89432,0.01229
3520.83415,0.01269
3518.77398,0.01290
3516.71381,0.01306
3514.65363,0.01302
3512.59346,0.01266
3510.53329,0.01231
3508.47312,0.01234
3506.41295,0.01273
3504.35277,0.01312
3502.29260,0.01331
3500.23243,0.01366
3498.17226,0.01415
3496.11209,0.01437
3494.05191,0.01435
3491.99174,0.01437
3489.93157,0.01449
3487.87140,0.01460
3485.81123,0.01456
3483.75105,0.01452
3481.69088,0.01483
3479.63071,0.01538
3477.57054,0.01567
3475.51036,0.01560
3473.45019,0.01549
3471.39002,0.01554
3469.32985,0.01579
3467.26968,0.01610
3465.20950,0.01625
3463.14933,0.01640
3461.08916,0.01674
3459.02899,0.01701
3456.96882,0.01698
3454.90864,0.01688
3452.84847,0.01707
3450.78830,0.01739
3448.72813,0.01753
3446.66795,0.01764
3444.60778,0.01789
3442.54761,0.01829
3440.48744,0.01853
3438.42727,0.01850
3436.36709,0.01847
3434.30692,0.01849
3432.24675,0.01857
3430.18658,0.01873
3428.12641,0.01883
3426.06623,0.01901
3424.00606,0.01920
3421.94589,0.01914
3419.88572,0.01917
3417.82555,0.01951
3415.76537,0.01972
3413.70520,0.01967
3411.64503,0.01959
3409.58486,0.01962
3407.52468,0.01978
3405.46451,0.01998
3403.40434,0.02012
3401.34417,0.02011
3399.28400,0.01985
3397.22382,0.01998
3395.16365,0.02038
3393.10348,0.02070
3391.04331,0.02073
3388.98314,0.02057
3386.92296,0.02063
3384.86279,0.02093
3382.80262,0.02108
3380.74245,0.02103
3378.68228,0.02111
3376.62210,0.02129
3374.56193,0.02136
3372.50176,0.02134
3370.44159,0.02144
3368.38141,0.02160
3366.32124,0.02162
3364.26107,0.02140
3362.20090,0.02116
3360.14073,0.02132
3358.08055,0.02174
3356.02038,0.02188
3353.96021,0.02176
3351.90004,0.02175
3349.83987,0.02191
3347.77969,0.02210
3345.71952,0.02224
3343.65935,0.02231
3341.59918,0.02230
3339.53900,0.02233
3337.47883,0.02249
3335.41866,0.02268
3333.35849,0.02271
3331.29832,0.02251
3329.23814,0.02232
3327.17797,0.02244
3325.11780,0.02283
3323.05763,0.02313
3320.99746,0.02311
3318.93728,0.02304
3316.87711,0.02309
3314.81694,0.02305
3312.75677,0.02281
3310.69660,0.02281
3308.63642,0.02313
3306.57625,0.02333
3304.51608,0.02343
3302.45591,0.02361
3300.39573,0.02366
3298.33556,0.02347
3296.27539,0.02323
3294.21522,0.02324
3292.15505,0.02353
3290.09487,0.02374
3288.03470,0.02366
3285.97453,0.02345
3283.91436,0.02342
3281.85419,0.02368
3279.79401,0.02393
3277.73384,0.02389
3275.67367,0.02375
3273.61350,0.02380
3271.55333,0.02390
3269.49315,0.02381
3267.43298,0.02372
3265.37281,0.02378
3263.31264,0.02390
3261.25246,0.02396
3259.19229,0.02396
3257.13212,0.02394
3255.07195,0.02391
3253.01178,0.02380
3250.95160,0.02379
3248.89143,0.02396
3246.83126,0.02412
3244.77109,0.02424
3242.71092,0.02445
3240.65074,0.02453
3238.59057,0.02430
3236.53040,0.02407
3234.47023,0.02397
3232.41005,0.02390
3230.34988,0.02391
3228.28971,0.02399
3226.22954,0.02401
3224.16937,0.02383
3222.10919,0.02353
3220.04902,0.02336
3217.98885,0.02336
3215.92868,0.02344
3213.86851,0.02361
3211.80833,0.02389
3209.74816,0.02400
3207.68799,0.02387
3205.62782,0.02384
3203.56765,0.02390
3201.50747,0.02385
3199.44730,0.02386
3197.38713,0.02403
3195.32696,0.02401
3193.26678,0.02368
3191.20661,0.02347
3189.14644,0.02354
3187.08627,0.02363
3185.02610,0.02364
3182.96592,0.02356
3180.90575,0.02330
3178.84558,0.02303
3176.78541,0.02295
3174.72524,0.02301
3172.66506,0.02315
3170.60489,0.02330
3168.54472,0.02322
3166.48455,0.02297
3164.42437,0.02280
3162.36420,0.02265
3160.30403,0.02262
3158.24386,0.02289
3156.18369,0.02325
3154.12351,0.02332
3152.06334,0.02303
3150.00317,0.02269
3147.94300,0.02259
3145.88283,0.02265
3143.82265,0.02258
3141.76248,0.02241
3139.70231,0.02226
3137.64214,0.02220
3135.58197,0.02213
3133.52179,0.02201
3131.46162,0.02205
3129.40145,0.02215
3127.34128,0.02209
3125.28110,0.02196
3123.22093,0.02186
3121.16076,0.02186
3119.10059,0.02197
3117.04042,0.02189
3114.98024,0.02159
3112.92007,0.02136
3110.85990,0.02130
3108.79973,0.02139
3106.73956,0.02144
3104.67938,0.02140
3102.61921,0.02132
3100.55904,0.02118
3098.49887,0.02110
3096.43870,0.02112
3094.37852,0.02105
3092.31835,0.02088
3090.25818,0.02088
3088.19801,0.02100
3086.13783,0.02102
3084.07766,0.02097
3082.01749,0.02090
3079.95732,0.02073
3077.89715,0.02056
3075.83697,0.02050
3073.77680,0.02041
3071.71663,0.02017
3069.65646,0.01992
3067.59629,0.01978
3065.53611,0.01975
3063.47594,0.01978
3061.41577,0.01978
3059.35560,0.01966
3057.29542,0.01949
3055.23525,0.01941
3053.17508,0.01942
3051.11491,0.01937
3049.05474,0.01928
3046.99456,0.01916
3044.93439,0.01903
3042.87422,0.01898
3040.81405,0.01894
3038.75388,0.01877
3036.69370,0.01845
3034.63353,0.01812
3032.57336,0.01789
3030.51319,0.01783
3028.45302,0.01799
3026.39284,0.01812
3024.33267,0.01809
3022.27250,0.01809
3020.21233,0.01811
3018.15215,0.01797
3016.09198,0.01780
3014.03181,0.01783
3011.97164,0.01785
3009.91147,0.01771
3007.85129,0.01754
3005.79112,0.01733
3003.73095,0.01715
3001.67078,0.01705
2999.61061,0.01700
2997.55043,0.01696
2995.49026,0.01701
2993.43009,0.01703
2991.36992,0.01700
2989.30975,0.01696
2987.24957,0.01692
2985.18940,0.01691
2983.12923,0.01695
2981.06906,0.01696
2979.00888,0.01697
2976.94871,0.01712
2974.88854,0.01723
2972.82837,0.01708
2970.76820,0.01689
2968.70802,0.01679
2966.64785,0.01675
2964.58768,0.01687
2962.52751,0.01698
2960.46734,0.01686
2958.40716,0.01663
2956.34699,0.01641
2954.28682,0.01621
2952.22665,0.01618
2950.16647,0.01639
2948.10630,0.01654
2946.04613,0.01653
2943.98596,0.01651
2941.92579,0.01650
2939.86561,0.01650
2937.80544,0.01642
2935.74527,0.01616
2933.68510,0.01603
2931.62493,0.01615
2929.56475,0.01616
2927.50458,0.01607
2925.44441,0.01611
2923.38424,0.01613
2921.32407,0.01602
2919.26389,0.01600
2917.20372,0.01606
2915.14355,0.01595
2913.08338,0.01575
2911.02320,0.01582
2908.96303,0.01589
2906.90286,0.01573
2904.84269,0.01543
2902.78252,0.01516
2900.72234,0.01507
2898.66217,0.01519
2896.60200,0.01537
2894.54183,0.01544
2892.48166,0.01529
2890.42148,0.01511
2888.36131,0.01514
2886.30114,0.01531
2884.24097,0.01535
2882.18080,0.01509
2880.12062,0.01475
2878.06045,0.01470
2876.00028,0.01492
2873.94011,0.01510
2871.87993,0.01501
2869.81976,0.01472
2867.75959,0.01454
2865.69942,0.01462
2863.63925,0.01477
2861.57907,0.01478
2859.51890,0.01470
2857.45873,0.01460
2855.39856,0.01445
2853.33839,0.01432
2851.27821,0.01423
2849.21804,0.01403
2847.15787,0.01386
2845.09770,0.01391
2843.03752,0.01391
2840.97735,0.01374
2838.91718,0.01355
2836.85701,0.01341
2834.79684,0.01326
2832.73666,0.01314
2830.67649,0.01302
2828.61632,0.01288
2826.55615,0.01286
2824.49598,0.01297
2822.43580,0.01299
2820.37563,0.01278
2818.31546,0.01252
2816.25529,0.01246
2814.19512,0.01246
2812.13494,0.01249
2810.07477,0.01267
2808.01460,0.01275
2805.95443,0.01265
2803.89425,0.01251
2801.83408,0.01242
2799.77391,0.01239
2797.71374,0.01242
2795.65357,0.01239
2793.59339,0.01226
2791.53322,0.01207
2789.47305,0.01185
2787.41288,0.01163
2785.35271,0.01157
2783.29253,0.01163
2781.23236,0.01168
2779.17219,0.01170
2777.11202,0.01169
2775.05184,0.01156
2772.99167,0.01132
2770.93150,0.01119
2768.87133,0.01121
2766.81116,0.01123
2764.75098,0.01110
2762.69081,0.01088
2760.63064,0.01084
2758.57047,0.01097
2756.51030,0.01094
2754.45012,0.01073
2752.38995,0.01062
2750.32978,0.01058
2748.26961,0.01044
2746.20944,0.01039
2744.14926,0.01044
2742.08909,0.01038
2740.02892,0.01015
2737.96875,0.00998
2735.90857,0.00988
2733.84840,0.00987
2731.78823,0.00994
2729.72806,0.00999
2727.66789,0.01010
2725.60771,0.01019
2723.54754,0.00998
2721.48737,0.00965
2719.42720,0.00952
2717.36703,0.00951
2715.30685,0.00947
2713.24668,0.00937
2711.18651,0.00929
2709.12634,0.00920
2707.06617,0.00909
2705.00599,0.00903
2702.94582,0.00901
2700.88565,0.00895
2698.82548,0.00898
2696.76530,0.00904
2694.70513,0.00898
2692.64496,0.00886
2690.58479,0.00874
2688.52462,0.00863
2686.46444,0.00851
2684.40427,0.00836
2682.34410,0.00839
2680.28393,0.00858
2678.22376,0.00868
2676.16358,0.00857
2674.10341,0.00839
2672.04324,0.00833
2669.98307,0.00841
2667.92289,0.00848
2665.86272,0.00846
2663.80255,0.00837
2661.74238,0.00829
2659.68221,0.00830
2657.62203,0.00842
2655.56186,0.00847
2653.50169,0.00826
2651.44152,0.00798
2649.38135,0.00793
2647.32117,0.00799
2645.26100,0.00790
2643.20083,0.00779
2641.14066,0.00789
2639.08049,0.00797
2637.02031,0.00789
2634.96014,0.00775
2632.89997,0.00761
2630.83980,0.00756
2628.77962,0.00751
2626.71945,0.00732
2624.65928,0.00720
2622.59911,0.00718
2620.53894,0.00716
2618.47876,0.00715
2616.41859,0.00715
2614.35842,0.00718
2612.29825,0.00718
2610.23808,0.00705
2608.17790,0.00691
2606.11773,0.00689
2604.05756,0.00695
2601.99739,0.00703
2599.93722,0.00705
2597.87704,0.00703
2595.81687,0.00704
2593.75670,0.00709
2591.69653,0.00726
2589.63635,0.00730
2587.57618,0.00700
2585.51601,0.00679
2583.45584,0.00679
2581.39567,0.00667
2579.33549,0.00654
2577.27532,0.00668
2575.21515,0.00682
2573.15498,0.00670
2571.09481,0.00653
2569.03463,0.00644
2566.97446,0.00648
2564.91429,0.00672
2562.85412,0.00695
2560.79394,0.00706
2558.73377,0.00712
2556.67360,0.00718
2554.61343,0.00728
2552.55326,0.00737
2550.49308,0.00729
2548.43291,0.00695
2546.37274,0.00663
2544.31257,0.00662
2542.25240,0.00670
2540.19222,0.00680
2538.13205,0.00694
2536.07188,0.00673
2534.01171,0.00640
2531.95154,0.00661
2529.89136,0.00708
2527.83119,0.00704
2525.77102,0.00659
2523.71085,0.00641
2521.65067,0.00673
2519.59050,0.00704
2517.53033,0.00686
2515.47016,0.00641
2513.40999,0.00635
2511.34981,0.00670
2509.28964,0.00704
2507.22947,0.00713
2505.16930,0.00705
2503.10913,0.00716
2501.04895,0.00743
2498.98878,0.00763
2496.92861,0.00765
2494.86844,0.00749
2492.80827,0.00735
2490.74809,0.00728
2488.68792,0.00720
2486.62775,0.00725
2484.56758,0.00744
2482.50740,0.00755
2480.44723,0.00754
2478.38706,0.00756
2476.32689,0.00774
2474.26672,0.00803
2472.20654,0.00823
2470.14637,0.00804
2468.08620,0.00777
2466.02603,0.00777
2463.96586,0.00786
2461.90568,0.00779
2459.84551,0.00775
2457.78534,0.00797
2455.72517,0.00824
2453.66499,0.00838
2451.60482,0.00838
2449.54465,0.00826
2447.48448,0.00809
2445.42431,0.00809
2443.36413,0.00830
2441.30396,0.00825
2439.24379,0.00795
2437.18362,0.00787
2435.12345,0.00806
2433.06327,0.00824
2431.00310,0.00818
2428.94293,0.00788
2426.88276,0.00764
2424.82259,0.00756
2422.76241,0.00751
2420.70224,0.00747
2418.64207,0.00763
2416.58190,0.00792
2414.52172,0.00800
2412.46155,0.00799
2410.40138,0.00809
2408.34121,0.00810
2406.28104,0.00788
2404.22086,0.00767
2402.16069,0.00758
2400.10052,0.00729
2398.04035,0.00682
2395.98018,0.00687
2393.92000,0.00736
2391.85983,0.00774
2389.79966,0.00779
2387.73949,0.00765
2385.67931,0.00757
2383.61914,0.00742
2381.55897,0.00706
2379.49880,0.00654
2377.43863,0.00613
2375.37845,0.00582
2373.31828,0.00608
2371.25811,0.00689
2369.19794,0.00710
2367.13777,0.00725
2365.07759,0.00817
2363.01742,0.00847
2360.95725,0.00943
2358.89708,0.00865
2356.83691,0.00665
2354.77673,0.00537
2352.71656,0.00622
2350.65639,0.00978
2348.59622,0.01118
2346.53604,0.00709
2344.47587,0.00628
2342.41570,0.00824
2340.35553,0.00989
2338.29536,0.01050
2336.23518,0.00974
2334.17501,0.00870
2332.11484,0.00771
2330.05467,0.00739
2327.99450,0.00752
2325.93432,0.00797
2323.87415,0.00728
2321.81398,0.00663
2319.75381,0.00624
2317.69364,0.00670
2315.63346,0.00674
2313.57329,0.00644
2311.51312,0.00617
2309.45295,0.00584
2307.39277,0.00584
2305.33260,0.00624
2303.27243,0.00665
2301.21226,0.00662
2299.15209,0.00649
2297.09191,0.00643
2295.03174,0.00655
2292.97157,0.00681
2290.91140,0.00706
2288.85123,0.00727
2286.79105,0.00738
2284.73088,0.00721
2282.67071,0.00687
2280.61054,0.00668
2278.55036,0.00676
2276.49019,0.00689
2274.43002,0.00703
2272.36985,0.00705
2270.30968,0.00685
2268.24950,0.00656
2266.18933,0.00643
2264.12916,0.00658
2262.06899,0.00690
2260.00882,0.00719
2257.94864,0.00728
2255.88847,0.00695
2253.82830,0.00650
2251.76813,0.00638
2249.70796,0.00629
2247.64778,0.00623
2245.58761,0.00628
2243.52744,0.00606
2241.46727,0.00574
2239.40709,0.00596
2237.34692,0.00637
2235.28675,0.00649
2233.22658,0.00641
2231.16641,0.00634
2229.10623,0.00610
2227.04606,0.00532
2224.98589,0.00487
2222.92572,0.00543
2220.86555,0.00577
2218.80537,0.00524
2216.74520,0.00492
2214.68503,0.00525
2212.62486,0.00547
2210.56469,0.00527
2208.50451,0.00507
2206.44434,0.00494
2204.38417,0.00465
2202.32400,0.00438
2200.26382,0.00459
2198.20365,0.00542
2196.14348,0.00610
2194.08331,0.00560
2192.02314,0.00484
2189.96296,0.00548
2187.90279,0.00647
2185.84262,0.00603
2183.78245,0.00469
2181.72228,0.00352
2179.66210,0.00319
2177.60193,0.00369
2175.54176,0.00421
2173.48159,0.00444
2171.42141,0.00465
2169.36124,0.00488
2167.30107,0.00491
2165.24090,0.00509
2163.18073,0.00541
2161.12055,0.00429
2159.06038,0.00211
2157.00021,0.00135
2154.94004,0.00183
2152.87987,0.00203
2150.81969,0.00175
2148.75952,0.00191
2146.69935,0.00232
2144.63918,0.00252
2142.57901,0.00276
2140.51883,0.00265
2138.45866,0.00222
2136.39849,0.00192
2134.33832,0.00172
2132.27814,0.00185
2130.21797,0.00229
2128.15780,0.00269
2126.09763,0.00299
2124.03746,0.00315
2121.97728,0.00328
2119.91711,0.00338
2117.85694,0.00326
2115.79677,0.00319
2113.73660,0.00331
2111.67642,0.00319
2109.61625,0.00274
2107.55608,0.00244
2105.49591,0.00261
2103.43573,0.00330
2101.37556,0.00359
2099.31539,0.00305
2097.25522,0.00285
2095.19505,0.00338
2093.13487,0.00372
2091.07470,0.00379
2089.01453,0.00372
2086.95436,0.00373
2084.89419,0.00416
2082.83401,0.00468
2080.77384,0.00477
2078.71367,0.00443
2076.65350,0.00405
2074.59333,0.00360
2072.53315,0.00293
2070.47298,0.00246
2068.41281,0.00251
2066.35264,0.00277
2064.29246,0.00283
2062.23229,0.00293
2060.17212,0.00358
2058.11195,0.00405
2056.05178,0.00373
2053.99160,0.00371
2051.93143,0.00413
2049.87126,0.00391
2047.81109,0.00326
2045.75092,0.00280
2043.69074,0.00253
2041.63057,0.00296
2039.57040,0.00400
2037.51023,0.00423
2035.45006,0.00340
2033.38988,0.00258
2031.32971,0.00256
2029.26954,0.00350
2027.20937,0.00462
2025.14919,0.00464
2023.08902,0.00368
2021.02885,0.00322
2018.96868,0.00358
2016.90851,0.00342
2014.84833,0.00281
2012.78816,0.00315
2010.72799,0.00397
2008.66782,0.00379
2006.60765,0.00275
2004.54747,0.00200
2002.48730,0.00173
2000.42713,0.00160
1998.36696,0.00199
1996.30678,0.00288
1994.24661,0.00341
1992.18644,0.00308
1990.12627,0.00234
1988.06610,0.00213
1986.00592,0.00213
1983.94575,0.00191
1981.88558,0.00238
1979.82541,0.00354
1977.76524,0.00369
1975.70506,0.00238
1973.64489,0.00118
1971.58472,0.00132
1969.52455,0.00195
1967.46438,0.00161
1965.40420,0.00057
1963.34403,0.00000
1961.28386,0.00053
1959.22369,0.00177
1957.16351,0.00257
1955.10334,0.00236
1953.04317,0.00160
1950.98300,0.00117
1948.92283,0.00151
1946.86265,0.00205
1944.80248,0.00189
1942.74231,0.00104
1940.68214,0.00068
1938.62197,0.00135
1936.56179,0.00216
1934.50162,0.00218
1932.44145,0.00172
1930.38128,0.00148
1928.32111,0.00145
1926.26093,0.00150
1924.20076,0.00162
1922.14059,0.00176
1920.08042,0.00196
1918.02024,0.00207
1915.96007,0.00194
1913.89990,0.00185
1911.83973,0.00192
1909.77956,0.00201
1907.71938,0.00226
1905.65921,0.00268
1903.59904,0.00312
1901.53887,0.00342
1899.47870,0.00340
1897.41852,0.00311
1895.35835,0.00270
1893.29818,0.00236
1891.23801,0.00240
1889.17783,0.00257
1887.11766,0.00256
1885.05749,0.00258
1882.99732,0.00279
1880.93715,0.00288
1878.87697,0.00279
1876.81680,0.00286
1874.75663,0.00311
1872.69646,0.00315
1870.63629,0.00295
1868.57611,0.00293
1866.51594,0.00313
1864.45577,0.00330
1862.39560,0.00338
1860.33543,0.00330
1858.27525,0.00312
1856.21508,0.00300
1854.15491,0.00292
1852.09474,0.00287
1850.03456,0.00295
1847.97439,0.00313
1845.91422,0.00320
1843.85405,0.00303
1841.79388,0.00283
1839.73370,0.00278
1837.67353,0.00280
1835.61336,0.00277
1833.55319,0.00286
1831.49302,0.00317
1829.43284,0.00349
1827.37267,0.00359
1825.31250,0.00357
1823.25233,0.00347
1821.19216,0.00326
1819.13198,0.00300
1817.07181,0.00280
1815.01164,0.00279
1812.95147,0.00300
1810.89129,0.00327
1808.83112,0.00344
1806.77095,0.00351
1804.71078,0.00348
1802.65061,0.00336
1800.59043,0.00333
1798.53026,0.00342
1796.47009,0.00352
1794.40992,0.00365
1792.34975,0.00367
1790.28957,0.00338
1788.22940,0.00303
1786.16923,0.00285
1784.10906,0.00296
1782.04888,0.00332
1779.98871,0.00357
1777.92854,0.00356
1775.86837,0.00361
1773.80820,0.00392
1771.74802,0.00399
1769.68785,0.00355
1767.62768,0.00319
1765.56751,0.00329
1763.50734,0.00356
1761.44716,0.00362
1759.38699,0.00350
1757.32682,0.00347
1755.26665,0.00350
1753.20648,0.00353
1751.14630,0.00374
1749.08613,0.00411
1747.02596,0.00435
1744.96579,0.00448
1742.90561,0.00470
1740.84544,0.00483
1738.78527,0.00467
1736.72510,0.00442
1734.66493,0.00433
1732.60475,0.00427
1730.54458,0.00418
1728.48441,0.00416
1726.42424,0.00425
1724.36407,0.00432
1722.30389,0.00434
1720.24372,0.00457
1718.18355,0.00503
1716.12338,0.00512
1714.06320,0.00470
1712.00303,0.00432
1709.94286,0.00435
1707.88269,0.00472
1705.82252,0.00496
1703.76234,0.00487
1701.70217,0.00496
1699.64200,0.00545
1697.58183,0.00594
1695.52166,0.00621
1693.46148,0.00637
1691.40131,0.00659
1689.34114,0.00695
1687.28097,0.00754
1685.22080,0.00831
1683.16062,0.00869
1681.10045,0.00865
1679.04028,0.00877
1676.98011,0.00917
1674.91993,0.00966
1672.85976,0.01011
1670.79959,0.01051
1668.73942,0.01073
1666.67925,0.01091
1664.61907,0.01141
1662.55890,0.01189
1660.49873,0.01191
1658.43856,0.01177
1656.37839,0.01192
1654.31821,0.01250
1652.25804,0.01310
1650.19787,0.01347
1648.13770,0.01380
1646.07753,0.01368
1644.01735,0.01294
1641.95718,0.01247
1639.89701,0.01259
1637.83684,0.01288
1635.77666,0.01274
1633.71649,0.01223
1631.65632,0.01199
1629.59615,0.01206
1627.53598,0.01213
1625.47580,0.01207
1623.41563,0.01193
1621.35546,0.01172
1619.29529,0.01174
1617.23512,0.01196
1615.17494,0.01174
1613.11477,0.01125
1611.05460,0.01101
1608.99443,0.01096
1606.93425,0.01085
1604.87408,0.01073
1602.81391,0.01060
1600.75374,0.01036
1598.69357,0.01017
1596.63339,0.01012
1594.57322,0.01002
1592.51305,0.00970
1590.45288,0.00927
1588.39271,0.00896
1586.33253,0.00878
1584.27236,0.00854
1582.21219,0.00830
1580.15202,0.00835
1578.09185,0.00870
1576.03167,0.00871
1573.97150,0.00818
1571.91133,0.00790
1569.85116,0.00791
1567.79098,0.00763
1565.73081,0.00724
1563.67064,0.00716
1561.61047,0.00750
1559.55030,0.00793
1557.49012,0.00759
1555.42995,0.00681
1553.36978,0.00625
1551.30961,0.00593
1549.24944,0.00573
1547.18926,0.00574
1545.12909,0.00618
1543.06892,0.00699
1541.00875,0.00756
1538.94858,0.00700
1536.88840,0.00608
1534.82823,0.00564
1532.76806,0.00540
1530.70789,0.00508
1528.64771,0.00487
1526.58754,0.00486
1524.52737,0.00501
1522.46720,0.00502
1520.40703,0.00465
1518.34685,0.00432
1516.28668,0.00410
1514.22651,0.00373
1512.16634,0.00345
1510.10617,0.00355
1508.04599,0.00385
1505.98582,0.00370
1503.92565,0.00309
1501.86548,0.00268
1499.80530,0.00279
1497.74513,0.00308
1495.68496,0.00305
1493.62479,0.00294
1491.56462,0.00306
1489.50444,0.00306
1487.44427,0.00264
1485.38410,0.00215
1483.32393,0.00196
1481.26376,0.00203
1479.20358,0.00212
1477.14341,0.00216
1475.08324,0.00227
1473.02307,0.00249
1470.96290,0.00256
1468.90272,0.00251
1466.84255,0.00262
1464.78238,0.00279
1462.72221,0.00285
1460.66203,0.00302
1458.60186,0.00329
1456.54169,0.00317
1454.48152,0.00283
1452.42135,0.00273
1450.36117,0.00289
1448.30100,0.00305
1446.24083,0.00308
1444.18066,0.00305
1442.12049,0.00305
1440.06031,0.00311
1438.00014,0.00314
1435.93997,0.00308
1433.87980,0.00308
1431.81963,0.00323
1429.75945,0.00343
1427.69928,0.00360
1425.63911,0.00382
1423.57894,0.00403
1421.51876,0.00410
1419.45859,0.00413
1417.39842,0.00419
1415.33825,0.00432
1413.27808,0.00448
1411.21790,0.00462
1409.15773,0.00477
1407.09756,0.00494
1405.03739,0.00501
1402.97722,0.00498
1400.91704,0.00488
1398.85687,0.00468
1396.79670,0.00443
1394.73653,0.00432
1392.67635,0.00436
1390.61618,0.00441
1388.55601,0.00440
1386.49584,0.00438
1384.43567,0.00442
1382.37549,0.00445
1380.31532,0.00444
1378.25515,0.00454
1376.19498,0.00475
1374.13481,0.00476
1372.07463,0.00459
1370.01446,0.00456
1367.95429,0.00466
1365.89412,0.00468
1363.83395,0.00452
1361.77377,0.00432
1359.71360,0.00431
1357.65343,0.00442
1355.59326,0.00444
1353.53308,0.00436
1351.47291,0.00427
1349.41274,0.00419
1347.35257,0.00409
1345.29240,0.00396
1343.23222,0.00373
1341.17205,0.00335
1339.11188,0.00297
1337.05171,0.00289
1334.99154,0.00302
1332.93136,0.00306
1330.87119,0.00296
1328.81102,0.00286
1326.75085,0.00283
1324.69067,0.00282
1322.63050,0.00282
1320.57033,0.00275
1318.51016,0.00264
1316.44999,0.00257
1314.38981,0.00253
1312.32964,0.00252
1310.26947,0.00253
1308.20930,0.00248
1306.14913,0.00240
1304.08895,0.00238
1302.02878,0.00240
1299.96861,0.00238
1297.90844,0.00228
1295.84827,0.00223
1293.78809,0.00231
1291.72792,0.00241
1289.66775,0.00240
1287.60758,0.00238
1285.54740,0.00239
1283.48723,0.00234
1281.42706,0.00217
1279.36689,0.00204
1277.30672,0.00206
1275.24654,0.00215
1273.18637,0.00215
1271.12620,0.00210
1269.06603,0.00211
1267.00586,0.00210
1264.94568,0.00207
1262.88551,0.00213
1260.82534,0.00227
1258.76517,0.00238
1256.70500,0.00230
1254.64482,0.00212
1252.58465,0.00206
1250.52448,0.00214
1248.46431,0.00218
1246.40413,0.00212
1244.34396,0.00194
1242.28379,0.00173
1240.22362,0.00162
1238.16345,0.00162
1236.10327,0.00167
1234.04310,0.00165
1231.98293,0.00147
1229.92276,0.00139
1227.86259,0.00143
1225.80241,0.00132
1223.74224,0.00104
1221.68207,0.00081
1219.62190,0.00068
1217.56172,0.00057
1215.50155,0.00042
1213.44138,0.00024
1211.38121,0.00009
1209.32104,0.00005
1207.26086,0.00004
1205.20069,0.00008
1203.14052,0.00024
1201.08035,0.00048
1199.02018,0.00071
1196.96000,0.00093
1194.89983,0.00122
1192.83966,0.00167
1190.77949,0.00217
1188.71932,0.00272
1186.65914,0.00336
1184.59897,0.00401
1182.53880,0.00463
1180.47863,0.00519
1178.41845,0.00578
1176.35828,0.00643
1174.29811,0.00712
1172.23794,0.00788
1170.17777,0.00865
1168.11759,0.00944
1166.05742,0.01017
1163.99725,0.01078
1161.93708,0.01144
1159.87691,0.01229
1157.81673,0.01322
1155.75656,0.01407
1153.69639,0.01478
1151.63622,0.01541
1149.57605,0.01604
1147.51587,0.01668
1145.45570,0.01736
1143.39553,0.01807
1141.33536,0.01868
1139.27518,0.01920
1137.21501,0.01972
1135.15484,0.02020
1133.09467,0.02067
1131.03450,0.02126
1128.97432,0.02195
1126.91415,0.02259
1124.85398,0.02313
1122.79381,0.02366
1120.73364,0.02419
1118.67346,0.02479
1116.61329,0.02555
1114.55312,0.02637
1112.49295,0.02722
1110.43277,0.02809
1108.37260,0.02892
1106.31243,0.02966
1104.25226,0.03037
1102.19209,0.03106
1100.13191,0.03177
1098.07174,0.03260
1096.01157,0.03352
1093.95140,0.03427
1091.89123,0.03479
1089.83105,0.03541
1087.77088,0.03619
1085.71071,0.03692
1083.65054,0.03754
1081.59037,0.03820
1079.53019,0.03902
1077.47002,0.03987
1075.40985,0.04048
1073.34968,0.04082
1071.28950,0.04104
1069.22933,0.04116
1067.16916,0.04107
1065.10899,0.04073
1063.04882,0.04030
1060.98864,0.03989
1058.92847,0.03947
1056.86830,0.03887
1054.80813,0.03792
1052.74796,0.03678
1050.68778,0.03571
1048.62761,0.03462
1046.56744,0.03339
1044.50727,0.03215
1042.44710,0.03096
1040.38692,0.02968
1038.32675,0.02839
1036.26658,0.02723
1034.20641,0.02610
1032.14623,0.02506
1030.08606,0.02410
1028.02589,0.02306
1025.96572,0.02200
1023.90555,0.02109
1021.84537,0.02043
1019.78520,0.01985
1017.72503,0.01934
1015.66486,0.01897
1013.60469,0.01871
1011.54451,0.01857
1009.48434,0.01851
1007.42417,0.01857
1005.36400,0.01897
1003.30382,0.01964
1001.24365,0.02029
999.18348,0.02076
997.12331,0.02116
995.06314,0.02177
993.00296,0.02255
990.94279,0.02330
988.88262,0.02392
986.82245,0.02439
984.76228,0.02480
982.70210,0.02520
980.64193,0.02542
978.58176,0.02543
976.52159,0.02534
974.46142,0.02516
972.40124,0.02490
970.34107,0.02451
968.28090,0.02403
966.22073,0.02359
964.16055,0.02314
962.10038,0.02269
960.04021,0.02225
957.98004,0.02165
955.91987,0.02099
953.85969,0.02055
951.79952,0.02024
949.73935,0.01979
947.67918,0.01922
945.61901,0.01871
943.55883,0.01830
941.49866,0.01789
939.43849,0.01753
937.37832,0.01721
935.31814,0.01667
933.25797,0.01592
931.19780,0.01533
929.13763,0.01492
927.07746,0.01452
925.01728,0.01419
922.95711,0.01395
920.89694,0.01363
918.83677,0.01313
916.77660,0.01236
914.71642,0.01146
912.65625,0.01072
910.59608,0.01025
908.53591,0.00992
906.47574,0.00964
904.41556,0.00947
902.35539,0.00949
900.29522,0.00958
898.23505,0.00956
896.17487,0.00947
894.11470,0.00946
892.05453,0.00961
889.99436,0.01000
887.93419,0.01048
885.87401,0.01082
883.81384,0.01102
881.75367,0.01140
879.69350,0.01210
877.63333,0.01303
875.57315,0.01405
873.51298,0.01496
871.45281,0.01565
869.39264,0.01628
867.33247,0.01724
865.27229,0.01850
863.21212,0.01943
861.15195,0.01988
859.09178,0.02040
857.03160,0.02111
854.97143,0.02152
852.91126,0.02156
850.85109,0.02138
848.79092,0.02100
846.73074,0.02066
844.67057,0.02029
842.61040,0.01948
840.55023,0.01849
838.49006,0.01784
836.42988,0.01746
834.36971,0.01685
832.30954,0.01583
830.24937,0.01502
828.18919,0.01460
826.12902,0.01408
824.06885,0.01336
822.00868,0.01259
819.94851,0.01189
817.88833,0.01137
815.82816,0.01095
813.76799,0.01056
811.70782,0.01025
809.64765,0.01004
807.58747,0.00987
805.52730,0.00954
803.46713,0.00902
801.40696,0.00857
799.34679,0.00826
797.28661,0.00805
795.22644,0.00779
793.16627,0.00726
791.10610,0.00668
789.04592,0.00664
786.98575,0.00711
784.92558,0.00733
782.86541,0.00719
780.80524,0.00722
778.74506,0.00718
776.68489,0.00678
774.62472,0.00647
772.56455,0.00638
770.50438,0.00621
768.44420,0.00584
766.38403,0.00561
764.32386,0.00545
762.26369,0.00502
760.20352,0.00461
758.14334,0.00434
756.08317,0.00427
754.02300,0.00461
751.96283,0.00497
749.90265,0.00497
747.84248,0.00470
745.78231,0.00451
743.72214,0.00465
741.66197,0.00480
739.60179,0.00471
737.54162,0.00453
735.48145,0.00413
733.42128,0.00356
731.36111,0.00342
729.30093,0.00377
727.24076,0.00401
725.18059,0.00393
723.12042,0.00398
721.06024,0.00347
719.00007,0.00382
716.93990,0.00440
714.87973,0.00448
712.81956,0.00438
710.75938,0.00416
708.69921,0.00397
706.63904,0.00406
704.57887,0.00441
702.51870,0.00454
700.45852,0.00421
698.39835,0.00387
696.33818,0.00397
694.27801,0.00434
692.21784,0.00453
690.15766,0.00433
688.09749,0.00388
686.03732,0.00372
683.97715,0.00424
681.91697,0.00515
679.85680,0.00593
677.79663,0.00625
675.73646,0.00615
673.67629,0.00671
671.61611,0.00796
669.55594,0.00380
667.49577,0.00000
665.43560,0.00736
663.37543,0.00607
661.31525,0.00433
659.25508,0.00494
657.19491,0.00549
655.13474,0.00539
653.07457,0.00555
651.01439,0.00586
648.95422,0.00552
646.89405,0.00468
644.83388,0.00358
642.77370,0.00304
640.71353,0.00296
638.65336,0.00271
636.59319,0.00257
634.53302,0.00287
632.47284,0.00266
630.41267,0.00143
628.35250,0.00024
626.29233,0.00075
624.23216,0.00267
622.17198,0.00247
620.11181,0.00008
618.05164,0.00000
615.99147,0.00294
613.93129,0.00457
611.87112,0.00315
609.81095,0.00130
607.75078,0.00106
605.69061,0.00133
603.63043,0.00079
601.57026,0.00030
599.51009,0.00000
