3996.73391,0.00128
3994.67373,0.00093
3992.61356,0.00064
3990.55339,0.00071
3988.49322,0.00110
3986.43305,0.00126
3984.37287,0.00106
3982.31270,0.00111
3980.25253,0.00146
3978.19236,0.00139
3976.13219,0.00076
3974.07201,0.00012
3972.01184,0.00000
3969.95167,0.00045
3967.89150,0.00098
3965.83133,0.00106
3963.77115,0.00084
3961.71098,0.00101
3959.65081,0.00157
3957.59064,0.00187
3955.53046,0.00191
3953.47029,0.00178
3951.41012,0.00127
3949.34995,0.00085
3947.28978,0.00094
3945.22960,0.00097
3943.16943,0.00067
3941.10926,0.00066
3939.04909,0.00105
3936.98892,0.00125
3934.92874,0.00106
3932.86857,0.00073
3930.80840,0.00062
3928.74823,0.00069
3926.68805,0.00058
3924.62788,0.00038
3922.56771,0.00026
3920.50754,0.00008
3918.44737,0.00008
3916.38719,0.00025
3914.32702,0.00036
3912.26685,0.00048
3910.20668,0.00066
3908.14651,0.00089
3906.08633,0.00119
3904.02616,0.00131
3901.96599,0.00095
3899.90582,0.00061
3897.84565,0.00070
3895.78547,0.00089
3893.72530,0.00099
3891.66513,0.00099
3889.60496,0.00103
3887.54478,0.00125
3885.48461,0.00145
3883.42444,0.00143
3881.36427,0.00138
3879.30410,0.00142
3877.24392,0.00150
3875.18375,0.00163
3873.12358,0.00177
3871.06341,0.00178
3869.00324,0.00147
3866.94306,0.00093
3864.88289,0.00067
3862.82272,0.00106
3860.76255,0.00158
3858.70237,0.00155
3856.64220,0.00110
3854.58203,0.00072
3852.52186,0.00080
3850.46169,0.00126
3848.40151,0.00147
3846.34134,0.00116
3844.28117,0.00061
3842.22100,0.00014
3840.16083,0.00000
3838.10065,0.00032
3836.04048,0.00088
3833.98031,0.00150
3831.92014,0.00200
3829.85997,0.00203
3827.79979,0.00163
3825.73962,0.00107
3823.67945,0.00040
3821.61928,0.00001
3819.55910,0.00037
3817.49893,0.00091
3815.43876,0.00115
3813.37859,0.00138
3811.31842,0.00173
3809.25824,0.00197
3807.19807,0.00202
3805.13790,0.00197
3803.07773,0.00198
3801.01756,0.00226
3798.95738,0.00250
3796.89721,0.00214
3794.83704,0.00155
3792.77687,0.00142
3790.71670,0.00164
3788.65652,0.00172
3786.59635,0.00152
3784.53618,0.00123
3782.47601,0.00111
3780.41583,0.00110
3778.35566,0.00107
3776.29549,0.00106
3774.23532,0.00105
3772.17515,0.00093
3770.11497,0.00082
3768.05480,0.00084
3765.99463,0.00095
3763.93446,0.00113
3761.87429,0.00142
3759.81411,0.00166
3757.75394,0.00170
3755.69377,0.00166
3753.63360,0.00156
3751.57342,0.00132
3749.51325,0.00116
3747.45308,0.00124
3745.39291,0.00175
3743.33274,0.00213
3741.27256,0.00165
3739.21239,0.00078
3737.15222,0.00028
3735.09205,0.00024
3733.03188,0.00051
3730.97170,0.00110
3728.91153,0.00169
3726.85136,0.00190
3724.79119,0.00165
3722.73102,0.00159
3720.67084,0.00216
3718.61067,0.00259
3716.55050,0.00237
3714.49033,0.00205
3712.43015,0.00207
3710.36998,0.00221
3708.30981,0.00225
3706.24964,0.00246
3704.18947,0.00241
3702.12929,0.00155
3700.06912,0.00052
3698.00895,0.00034
3695.94878,0.00095
3693.88861,0.00166
3691.82843,0.00200
3689.76826,0.00201
3687.70809,0.00221
3685.64792,0.00253
3683.58775,0.00242
3681.52757,0.00206
3679.46740,0.00193
3677.40723,0.00163
3675.34706,0.00091
3673.28688,0.00084
3671.22671,0.00170
3669.16654,0.00249
3667.10637,0.00257
3665.04620,0.00229
3662.98602,0.00219
3660.92585,0.00238
3658.86568,0.00268
3656.80551,0.00302
3654.74534,0.00336
3652.68516,0.00343
3650.62499,0.00342
3648.56482,0.00358
3646.50465,0.00385
3644.44447,0.00398
3642.38430,0.00397
3640.32413,0.00397
3638.26396,0.00394
3636.20379,0.00391
3634.14361,0.00412
3632.08344,0.00471
3630.02327,0.00536
3627.96310,0.00534
3625.90293,0.00468
3623.84275,0.00419
3621.78258,0.00387
3619.72241,0.00352
3617.66224,0.00368
3615.60207,0.00434
3613.54189,0.00469
3611.48172,0.00450
3609.42155,0.00447
3607.36138,0.00488
3605.30120,0.00526
3603.24103,0.00557
3601.18086,0.00586
3599.12069,0.00605
3597.06052,0.00629
3595.00034,0.00660
3592.94017,0.00658
3590.88000,0.00607
3588.81983,0.00530
3586.75966,0.00503
3584.69948,0.00548
3582.63931,0.00620
3580.57914,0.00699
3578.51897,0.00759
3576.45879,0.00776
3574.39862,0.00765
3572.33845,0.00745
3570.27828,0.00715
3568.21811,0.00699
3566.15793,0.00729
3564.09776,0.00788
3562.03759,0.00833
3559.97742,0.00863
3557.91725,0.00876
3555.85707,0.00854
3553.79690,0.00820
3551.73673,0.00832
3549.67656,0.00900
3547.61639,0.00955
3545.55621,0.00936
3543.49604,0.00876
3541.43587,0.00847
3539.37570,0.00869
3537.31552,0.00912
3535.25535,0.00934
3533.19518,0.00920
3531.13501,0.00892
3529.07484,0.00877
3527.01466,0.00897
3524.95449,0.00939
3522.89432,0.00973
3520.83415,0.00978
3518.77398,0.00963
3516.71380,0.00959
3514.65363,0.00985
3512.59346,0.01033
3510.53329,0.01074
3508.47312,0.01092
3506.41294,0.01086
3504.35277,0.01064
3502.29260,0.01057
3500.23243,0.01098
3498.17225,0.01162
3496.11208,0.01217
3494.05191,0.01253
3491.99174,0.01267
3489.93157,0.01262
3487.87139,0.01237
3485.81122,0.01211
3483.75105,0.01203
3481.69088,0.01187
3479.63071,0.01172
3477.57053,0.01195
3475.51036,0.01243
3473.45019,0.01275
3471.39002,0.01266
3469.32984,0.01238
3467.26967,0.01225
3465.20950,0.01226
3463.14933,0.01248
3461.08916,0.01290
3459.02898,0.01332
3456.96881,0.01375
3454.90864,0.01399
3452.84847,0.01402
3450.78830,0.01421
3448.72812,0.01451
3446.66795,0.01449
3444.60778,0.01419
3442.54761,0.01394
3440.48744,0.01402
3438.42726,0.01415
3436.36709,0.01409
3434.30692,0.01432
3432.24675,0.01465
3430.18657,0.01449
3428.12640,0.01430
3426.06623,0.01430
3424.00606,0.01440
3421.94589,0.01468
3419.88571,0.01492
3417.82554,0.01498
3415.76537,0.01479
3413.70520,0.01458
3411.64503,0.01485
3409.58485,0.01531
3407.52468,0.01540
3405.46451,0.01524
3403.40434,0.01528
3401.34416,0.01544
3399.28399,0.01558
3397.22382,0.01594
3395.16365,0.01651
3393.10348,0.01693
3391.04330,0.01689
3388.98313,0.01628
3386.92296,0.01574
3384.86279,0.01590
3382.80262,0.01645
3380.74244,0.01667
3378.68227,0.01631
3376.62210,0.01589
3374.56193,0.01597
3372.50176,0.01651
3370.44158,0.01716
3368.38141,0.01731
3366.32124,0.01668
3364.26107,0.01611
3362.20089,0.01631
3360.14072,0.01698
3358.08055,0.01770
3356.02038,0.01805
3353.96021,0.01764
3351.90003,0.01686
3349.83986,0.01662
3347.77969,0.01714
3345.71952,0.01750
3343.65935,0.01726
3341.59917,0.01704
3339.53900,0.01707
3337.47883,0.01714
3335.41866,0.01743
3333.35849,0.01773
3331.29831,0.01771
3329.23814,0.01770
3327.17797,0.01789
3325.11780,0.01793
3323.05762,0.01766
3320.99745,0.01740
3318.93728,0.01749
3316.87711,0.01760
3314.81694,0.01737
3312.75676,0.01716
3310.69659,0.01750
3308.63642,0.01821
3306.57625,0.01857
3304.51608,0.01847
3302.45590,0.01826
3300.39573,0.01799
3298.33556,0.01792
3296.27539,0.01833
3294.21521,0.01890
3292.15504,0.01914
3290.09487,0.01907
3288.03470,0.01897
3285.97453,0.01894
3283.91435,0.01883
3281.85418,0.01859
3279.79401,0.01846
3277.73384,0.01833
3275.67367,0.01803
3273.61349,0.01794
3271.55332,0.01817
3269.49315,0.01824
3267.43298,0.01804
3265.37281,0.01792
3263.31263,0.01798
3261.25246,0.01811
3259.19229,0.01825
3257.13212,0.01829
3255.07194,0.01811
3253.01177,0.01779
3250.95160,0.01755
3248.89143,0.01765
3246.83126,0.01799
3244.77108,0.01824
3242.71091,0.01841
3240.65074,0.01834
3238.59057,0.01817
3236.53040,0.01844
3234.47022,0.01873
3232.41005,0.01863
3230.34988,0.01854
3228.28971,0.01869
3226.22954,0.01903
3224.16936,0.01920
3222.10919,0.01891
3220.04902,0.01859
3217.98885,0.01847
3215.92867,0.01845
3213.86850,0.01851
3211.80833,0.01843
3209.74816,0.01819
3207.68799,0.01814
3205.62781,0.01820
3203.56764,0.01811
3201.50747,0.01825
3199.44730,0.01869
3197.38713,0.01885
3195.32695,0.01873
3193.26678,0.01861
3191.20661,0.01835
3189.14644,0.01795
3187.08626,0.01771
3185.02609,0.01799
3182.96592,0.01865
3180.90575,0.01890
3178.84558,0.01858
3176.78540,0.01826
3174.72523,0.01818
3172.66506,0.01823
3170.60489,0.01833
3168.54472,0.01836
3166.48454,0.01807
3164.42437,0.01751
3162.36420,0.01717
3160.30403,0.01736
3158.24386,0.01775
3156.18368,0.01780
3154.12351,0.01744
3152.06334,0.01712
3150.00317,0.01722
3147.94299,0.01746
3145.88282,0.01735
3143.82265,0.01719
3141.76248,0.01731
3139.70231,0.01742
3137.64213,0.01753
3135.58196,0.01772
3133.52179,0.01764
3131.46162,0.01719
3129.40145,0.01691
3127.34127,0.01720
3125.28110,0.01744
3123.22093,0.01711
3121.16076,0.01671
3119.10058,0.01669
3117.04041,0.01699
3114.98024,0.01727
3112.92007,0.01725
3110.85990,0.01698
3108.79972,0.01682
3106.73955,0.01683
3104.67938,0.01669
3102.61921,0.01650
3100.55904,0.01654
3098.49886,0.01675
3096.43869,0.01707
3094.37852,0.01731
3092.31835,0.01705
3090.25818,0.01640
3088.19800,0.01607
3086.13783,0.01631
3084.07766,0.01647
3082.01749,0.01629
3079.95731,0.01615
3077.89714,0.01597
3075.83697,0.01577
3073.77680,0.01565
3071.71663,0.01546
3069.65645,0.01527
3067.59628,0.01525
3065.53611,0.01542
3063.47594,0.01579
3061.41577,0.01595
3059.35559,0.01557
3057.29542,0.01509
3055.23525,0.01507
3053.17508,0.01539
3051.11491,0.01548
3049.05473,0.01510
3046.99456,0.01457
3044.93439,0.01435
3042.87422,0.01450
3040.81404,0.01478
3038.75387,0.01498
3036.69370,0.01494
3034.63353,0.01473
3032.57336,0.01454
3030.51318,0.01434
3028.45301,0.01405
3026.39284,0.01378
3024.33267,0.01368
3022.27250,0.01379
3020.21232,0.01395
3018.15215,0.01412
3016.09198,0.01420
3014.03181,0.01413
3011.97163,0.01417
3009.91146,0.01430
3007.85129,0.01437
3005.79112,0.01448
3003.73095,0.01431
3001.67077,0.01371
2999.61060,0.01331
2997.55043,0.01352
2995.49026,0.01382
2993.43009,0.01385
2991.36991,0.01392
2989.30974,0.01418
2987.24957,0.01422
2985.18940,0.01397
2983.12923,0.01384
2981.06905,0.01394
2979.00888,0.01393
2976.94871,0.01380
2974.88854,0.01387
2972.82836,0.01411
2970.76819,0.01407
2968.70802,0.01361
2966.64785,0.01341
2964.58768,0.01375
2962.52750,0.01405
2960.46733,0.01418
2958.40716,0.01444
2956.34699,0.01451
2954.28682,0.01420
2952.22664,0.01401
2950.16647,0.01406
2948.10630,0.01401
2946.04613,0.01377
2943.98596,0.01373
2941.92578,0.01383
2939.86561,0.01368
2937.80544,0.01346
2935.74527,0.01359
2933.68509,0.01374
2931.62492,0.01364
2929.56475,0.01358
2927.50458,0.01355
2925.44441,0.01354
2923.38423,0.01369
2921.32406,0.01364
2919.26389,0.01308
2917.20372,0.01251
2915.14355,0.01254
2913.08337,0.01295
2911.02320,0.01322
2908.96303,0.01318
2906.90286,0.01302
2904.84268,0.01302
2902.78251,0.01314
2900.72234,0.01304
2898.66217,0.01271
2896.60200,0.01246
2894.54182,0.01240
2892.48165,0.01254
2890.42148,0.01267
2888.36131,0.01268
2886.30114,0.01286
2884.24096,0.01308
2882.18079,0.01289
2880.12062,0.01244
2878.06045,0.01221
2876.00028,0.01234
2873.94010,0.01263
2871.87993,0.01275
2869.81976,0.01245
2867.75959,0.01185
2865.69941,0.01144
2863.63924,0.01153
2861.57907,0.01187
2859.51890,0.01204
2857.45873,0.01184
2855.39855,0.01151
2853.33838,0.01130
2851.27821,0.01107
2849.21804,0.01076
2847.15787,0.01073
2845.09769,0.01106
2843.03752,0.01105
2840.97735,0.01049
2838.91718,0.01020
2836.85700,0.01036
2834.79683,0.01048
2832.73666,0.01043
2830.67649,0.01023
2828.61632,0.00996
2826.55614,0.00993
2824.49597,0.01028
2822.43580,0.01058
2820.37563,0.01048
2818.31546,0.01013
2816.25528,0.00976
2814.19511,0.00970
2812.13494,0.00977
2810.07477,0.00951
2808.01460,0.00927
2805.95442,0.00931
2803.89425,0.00940
2801.83408,0.00945
2799.77391,0.00933
2797.71373,0.00908
2795.65356,0.00883
2793.59339,0.00859
2791.53322,0.00857
2789.47305,0.00875
2787.41287,0.00882
2785.35270,0.00885
2783.29253,0.00892
2781.23236,0.00875
2779.17219,0.00843
2777.11201,0.00825
2775.05184,0.00816
2772.99167,0.00814
2770.93150,0.00841
2768.87133,0.00883
2766.81115,0.00886
2764.75098,0.00844
2762.69081,0.00809
2760.63064,0.00819
2758.57046,0.00833
2756.51029,0.00820
2754.45012,0.00814
2752.38995,0.00820
2750.32978,0.00796
2748.26960,0.00774
2746.20943,0.00791
2744.14926,0.00791
2742.08909,0.00770
2740.02892,0.00766
2737.96874,0.00772
2735.90857,0.00782
2733.84840,0.00797
2731.78823,0.00806
2729.72805,0.00799
2727.66788,0.00783
2725.60771,0.00771
2723.54754,0.00756
2721.48737,0.00739
2719.42719,0.00743
2717.36702,0.00777
2715.30685,0.00805
2713.24668,0.00807
2711.18651,0.00802
2709.12633,0.00789
2707.06616,0.00755
2705.00599,0.00724
2702.94582,0.00705
2700.88565,0.00696
2698.82547,0.00699
2696.76530,0.00701
2694.70513,0.00690
2692.64496,0.00685
2690.58478,0.00696
2688.52461,0.00700
2686.46444,0.00698
2684.40427,0.00704
2682.34410,0.00712
2680.28392,0.00703
2678.22375,0.00675
2676.16358,0.00662
2674.10341,0.00659
2672.04324,0.00644
2669.98306,0.00642
2667.92289,0.00669
2665.86272,0.00673
2663.80255,0.00636
2661.74238,0.00609
2659.68220,0.00624
2657.62203,0.00650
2655.56186,0.00639
2653.50169,0.00603
2651.44151,0.00589
2649.38134,0.00597
2647.32117,0.00593
2645.26100,0.00584
2643.20083,0.00598
2641.14065,0.00633
2639.08048,0.00641
2637.02031,0.00614
2634.96014,0.00607
2632.89997,0.00624
2630.83979,0.00630
2628.77962,0.00627
2626.71945,0.00590
2624.65928,0.00511
2622.59910,0.00451
2620.53893,0.00465
2618.47876,0.00528
2616.41859,0.00570
2614.35842,0.00569
2612.29824,0.00560
2610.23807,0.00574
2608.17790,0.00586
2606.11773,0.00571
2604.05756,0.00542
2601.99738,0.00514
2599.93721,0.00491
2597.87704,0.00484
2595.81687,0.00497
2593.75670,0.00516
2591.69652,0.00542
2589.63635,0.00573
2587.57618,0.00581
2585.51601,0.00565
2583.45583,0.00538
2581.39566,0.00523
2579.33549,0.00533
2577.27532,0.00542
2575.21515,0.00544
2573.15497,0.00552
2571.09480,0.00576
2569.03463,0.00591
2566.97446,0.00550
2564.91429,0.00507
2562.85411,0.00515
2560.79394,0.00501
2558.73377,0.00457
2556.67360,0.00457
2554.61342,0.00499
2552.55325,0.00536
2550.49308,0.00552
2548.43291,0.00559
2546.37274,0.00548
2544.31256,0.00517
2542.25239,0.00519
2540.19222,0.00560
2538.13205,0.00575
2536.07188,0.00530
2534.01170,0.00483
2531.95153,0.00500
2529.89136,0.00563
2527.83119,0.00630
2525.77102,0.00639
2523.71084,0.00574
2521.65067,0.00504
2519.59050,0.00494
2517.53033,0.00520
2515.47015,0.00529
2513.40998,0.00534
2511.34981,0.00575
2509.28964,0.00618
2507.22947,0.00599
2505.16929,0.00557
2503.10912,0.00540
2501.04895,0.00526
2498.98878,0.00492
2496.92861,0.00459
2494.86843,0.00472
2492.80826,0.00530
2490.74809,0.00610
2488.68792,0.00680
2486.62775,0.00667
2484.56757,0.00603
2482.50740,0.00578
2480.44723,0.00549
2478.38706,0.00530
2476.32688,0.00588
2474.26671,0.00608
2472.20654,0.00535
2470.14637,0.00477
2468.08620,0.00487
2466.02602,0.00523
2463.96585,0.00538
2461.90568,0.00537
2459.84551,0.00540
2457.78534,0.00545
2455.72516,0.00541
2453.66499,0.00533
2451.60482,0.00550
2449.54465,0.00590
2447.48447,0.00594
2445.42430,0.00557
2443.36413,0.00556
2441.30396,0.00615
2439.24379,0.00656
2437.18361,0.00634
2435.12344,0.00592
2433.06327,0.00578
2431.00310,0.00599
2428.94293,0.00654
2426.88275,0.00688
2424.82258,0.00661
2422.76241,0.00610
2420.70224,0.00535
2418.64207,0.00450
2416.58189,0.00431
2414.52172,0.00481
2412.46155,0.00502
2410.40138,0.00495
2408.34120,0.00511
2406.28103,0.00516
2404.22086,0.00532
2402.16069,0.00587
2400.10052,0.00617
2398.04034,0.00594
2395.98017,0.00556
2393.92000,0.00525
2391.85983,0.00538
2389.79966,0.00583
2387.73948,0.00602
2385.67931,0.00586
2383.61914,0.00553
2381.55897,0.00528
2379.49880,0.00519
2377.43862,0.00493
2375.37845,0.00429
2373.31828,0.00406
2371.25811,0.00474
2369.19793,0.00584
2367.13776,0.00697
2365.07759,0.00751
2363.01742,0.00659
2360.95725,0.00555
2358.89707,0.00354
2356.83690,0.00229
2354.77673,0.00267
2352.71656,0.00374
2350.65639,0.00606
2348.59621,0.00761
2346.53604,0.00576
2344.47587,0.00502
2342.41570,0.00466
2340.35552,0.00484
2338.29535,0.00567
2336.23518,0.00603
2334.17501,0.00645
2332.11484,0.00672
2330.05466,0.00678
2327.99449,0.00636
2325.93432,0.00620
2323.87415,0.00587
2321.81398,0.00567
2319.75380,0.00527
2317.69363,0.00548
2315.63346,0.00568
2313.57329,0.00572
2311.51312,0.00568
2309.45294,0.00551
2307.39277,0.00545
2305.33260,0.00547
2303.27243,0.00527
2301.21225,0.00503
2299.15208,0.00541
2297.09191,0.00584
2295.03174,0.00558
2292.97157,0.00507
2290.91139,0.00493
2288.85122,0.00505
2286.79105,0.00524
2284.73088,0.00546
2282.67071,0.00538
2280.61053,0.00511
2278.55036,0.00510
2276.49019,0.00513
2274.43002,0.00482
2272.36984,0.00457
2270.30967,0.00492
2268.24950,0.00549
2266.18933,0.00579
2264.12916,0.00581
2262.06898,0.00537
2260.00881,0.00481
2257.94864,0.00518
2255.88847,0.00609
2253.82830,0.00601
2251.76812,0.00532
2249.70795,0.00537
2247.64778,0.00575
2245.58761,0.00568
2243.52744,0.00539
2241.46726,0.00470
2239.40709,0.00383
2237.34692,0.00336
2235.28675,0.00346
2233.22657,0.00348
2231.16640,0.00339
2229.10623,0.00417
2227.04606,0.00587
2224.98589,0.00699
2222.92571,0.00665
2220.86554,0.00586
2218.80537,0.00480
2216.74520,0.00375
2214.68503,0.00391
2212.62485,0.00453
2210.56468,0.00477
2208.50451,0.00528
2206.44434,0.00581
2204.38417,0.00585
2202.32399,0.00619
2200.26382,0.00719
2198.20365,0.00756
2196.14348,0.00620
2194.08330,0.00449
2192.02313,0.00418
2189.96296,0.00454
2187.90279,0.00452
2185.84262,0.00474
2183.78244,0.00544
2181.72227,0.00574
2179.66210,0.00548
2177.60193,0.00509
2175.54176,0.00497
2173.48158,0.00480
2171.42141,0.00369
2169.36124,0.00273
2167.30107,0.00420
2165.24089,0.00701
2163.18072,0.00757
2161.12055,0.00551
2159.06038,0.00375
2157.00021,0.00345
2154.94003,0.00399
2152.87986,0.00543
2150.81969,0.00675
2148.75952,0.00654
2146.69935,0.00513
2144.63917,0.00421
2142.57900,0.00464
2140.51883,0.00530
2138.45866,0.00506
2136.39849,0.00381
2134.33831,0.00276
2132.27814,0.00309
2130.21797,0.00371
2128.15780,0.00353
2126.09762,0.00306
2124.03745,0.00328
2121.97728,0.00438
2119.91711,0.00585
2117.85694,0.00669
2115.79676,0.00611
2113.73659,0.00483
2111.67642,0.00427
2109.61625,0.00471
2107.55608,0.00491
2105.49590,0.00469
2103.43573,0.00510
2101.37556,0.00600
2099.31539,0.00607
2097.25521,0.00503
2095.19504,0.00418
2093.13487,0.00417
2091.07470,0.00426
2089.01453,0.00402
2086.95435,0.00360
2084.89418,0.00320
2082.83401,0.00328
2080.77384,0.00397
2078.71367,0.00447
2076.65349,0.00429
2074.59332,0.00372
2072.53315,0.00311
2070.47298,0.00294
2068.41281,0.00308
2066.35263,0.00291
2064.29246,0.00284
2062.23229,0.00334
2060.17212,0.00462
2058.11194,0.00610
2056.05177,0.00609
2053.99160,0.00451
2051.93143,0.00267
2049.87126,0.00193
2047.81108,0.00275
2045.75091,0.00338
2043.69074,0.00297
2041.63057,0.00267
2039.57040,0.00313
2037.51022,0.00405
2035.45005,0.00486
2033.38988,0.00578
2031.32971,0.00675
2029.26954,0.00550
2027.20936,0.00251
2025.14919,0.00193
2023.08902,0.00379
2021.02885,0.00499
2018.96867,0.00569
2016.90850,0.00641
2014.84833,0.00594
2012.78816,0.00453
2010.72799,0.00374
2008.66781,0.00410
2006.60764,0.00423
2004.54747,0.00346
2002.48730,0.00281
2000.42713,0.00255
1998.36695,0.00253
1996.30678,0.00312
1994.24661,0.00434
1992.18644,0.00559
1990.12626,0.00586
1988.06609,0.00497
1986.00592,0.00366
1983.94575,0.00232
1981.88558,0.00142
1979.82540,0.00150
1977.76523,0.00167
1975.70506,0.00147
1973.64489,0.00244
1971.58472,0.00410
1969.52454,0.00412
1967.46437,0.00263
1965.40420,0.00122
1963.34403,0.00015
1961.28386,0.00000
1959.22368,0.00138
1957.16351,0.00308
1955.10334,0.00363
1953.04317,0.00308
1950.98299,0.00260
1948.92282,0.00260
1946.86265,0.00292
1944.80248,0.00316
1942.74231,0.00240
1940.68213,0.00135
1938.62196,0.00170
1936.56179,0.00287
1934.50162,0.00324
1932.44145,0.00305
1930.38127,0.00334
1928.32110,0.00377
1926.26093,0.00388
1924.20076,0.00408
1922.14059,0.00459
1920.08041,0.00455
1918.02024,0.00330
1915.96007,0.00167
1913.89990,0.00082
1911.83972,0.00105
1909.77955,0.00219
1907.71938,0.00340
1905.65921,0.00362
1903.59904,0.00291
1901.53886,0.00232
1899.47869,0.00241
1897.41852,0.00265
1895.35835,0.00233
1893.29818,0.00189
1891.23800,0.00239
1889.17783,0.00344
1887.11766,0.00391
1885.05749,0.00363
1882.99731,0.00310
1880.93714,0.00283
1878.87697,0.00296
1876.81680,0.00317
1874.75663,0.00314
1872.69645,0.00280
1870.63628,0.00226
1868.57611,0.00177
1866.51594,0.00177
1864.45577,0.00217
1862.39559,0.00250
1860.33542,0.00272
1858.27525,0.00283
1856.21508,0.00259
1854.15491,0.00214
1852.09473,0.00207
1850.03456,0.00254
1847.97439,0.00273
1845.91422,0.00228
1843.85404,0.00176
1841.79387,0.00162
1839.73370,0.00178
1837.67353,0.00202
1835.61336,0.00206
1833.55318,0.00186
1831.49301,0.00169
1829.43284,0.00172
1827.37267,0.00199
1825.31250,0.00244
1823.25232,0.00269
1821.19215,0.00257
1819.13198,0.00247
1817.07181,0.00240
1815.01163,0.00214
1812.95146,0.00200
1810.89129,0.00224
1808.83112,0.00254
1806.77095,0.00264
1804.71077,0.00239
1802.65060,0.00186
1800.59043,0.00151
1798.53026,0.00162
1796.47009,0.00203
1794.40991,0.00246
1792.34974,0.00257
1790.28957,0.00242
1788.22940,0.00246
1786.16923,0.00262
1784.10905,0.00252
1782.04888,0.00214
1779.98871,0.00195
1777.92854,0.00213
1775.86836,0.00235
1773.80819,0.00236
1771.74802,0.00214
1769.68785,0.00186
1767.62768,0.00160
1765.56750,0.00147
1763.50733,0.00161
1761.44716,0.00202
1759.38699,0.00249
1757.32682,0.00278
1755.26664,0.00279
1753.20647,0.00267
1751.14630,0.00260
1749.08613,0.00261
1747.02596,0.00272
1744.96578,0.00281
1742.90561,0.00286
1740.84544,0.00295
1738.78527,0.00309
1736.72509,0.00309
1734.66492,0.00294
1732.60475,0.00297
1730.54458,0.00319
1728.48441,0.00338
1726.42423,0.00357
1724.36406,0.00375
1722.30389,0.00377
1720.24372,0.00346
1718.18355,0.00283
1716.12337,0.00243
1714.06320,0.00279
1712.00303,0.00341
1709.94286,0.00370
1707.88268,0.00366
1705.82251,0.00363
1703.76234,0.00381
1701.70217,0.00408
1699.64200,0.00419
1697.58182,0.00441
1695.52165,0.00509
1693.46148,0.00578
1691.40131,0.00615
1689.34114,0.00628
1687.28096,0.00615
1685.22079,0.00608
1683.16062,0.00664
1681.10045,0.00759
1679.04028,0.00840
1676.98010,0.00907
1674.91993,0.00969
1672.85976,0.01019
1670.79959,0.01071
1668.73941,0.01141
1666.67924,0.01209
1664.61907,0.01264
1662.55890,0.01321
1660.49873,0.01377
1658.43855,0.01418
1656.37838,0.01450
1654.31821,0.01479
1652.25804,0.01505
1650.19787,0.01517
1648.13769,0.01511
1646.07752,0.01496
1644.01735,0.01485
1641.95718,0.01468
1639.89701,0.01433
1637.83683,0.01381
1635.77666,0.01332
1633.71649,0.01327
1631.65632,0.01349
1629.59614,0.01348
1627.53597,0.01310
1625.47580,0.01260
1623.41563,0.01212
1621.35546,0.01157
1619.29528,0.01101
1617.23511,0.01047
1615.17494,0.01003
1613.11477,0.00978
1611.05460,0.00956
1608.99442,0.00924
1606.93425,0.00891
1604.87408,0.00867
1602.81391,0.00842
1600.75373,0.00817
1598.69356,0.00806
1596.63339,0.00804
1594.57322,0.00796
1592.51305,0.00790
1590.45287,0.00789
1588.39270,0.00783
1586.33253,0.00766
1584.27236,0.00741
1582.21219,0.00713
1580.15201,0.00702
1578.09184,0.00715
1576.03167,0.00715
1573.97150,0.00687
1571.91133,0.00680
1569.85115,0.00699
1567.79098,0.00695
1565.73081,0.00656
1563.67064,0.00617
1561.61046,0.00601
1559.55029,0.00607
1557.49012,0.00636
1555.42995,0.00656
1553.36978,0.00654
1551.30960,0.00652
1549.24943,0.00664
1547.18926,0.00669
1545.12909,0.00651
1543.06892,0.00627
1541.00874,0.00611
1538.94857,0.00596
1536.88840,0.00592
1534.82823,0.00588
1532.76805,0.00582
1530.70788,0.00587
1528.64771,0.00585
1526.58754,0.00558
1524.52737,0.00516
1522.46719,0.00474
1520.40702,0.00437
1518.34685,0.00410
1516.28668,0.00402
1514.22651,0.00424
1512.16633,0.00458
1510.10616,0.00490
1508.04599,0.00504
1505.98582,0.00470
1503.92565,0.00405
1501.86547,0.00351
1499.80530,0.00313
1497.74513,0.00293
1495.68496,0.00293
1493.62478,0.00296
1491.56461,0.00286
1489.50444,0.00273
1487.44427,0.00280
1485.38410,0.00295
1483.32392,0.00290
1481.26375,0.00272
1479.20358,0.00269
1477.14341,0.00279
1475.08324,0.00270
1473.02306,0.00262
1470.96289,0.00302
1468.90272,0.00363
1466.84255,0.00407
1464.78238,0.00425
1462.72220,0.00425
1460.66203,0.00415
1458.60186,0.00394
1456.54169,0.00366
1454.48151,0.00360
1452.42134,0.00375
1450.36117,0.00397
1448.30100,0.00422
1446.24083,0.00447
1444.18065,0.00468
1442.12048,0.00482
1440.06031,0.00477
1438.00014,0.00447
1435.93997,0.00419
1433.87979,0.00430
1431.81962,0.00458
1429.75945,0.00464
1427.69928,0.00456
1425.63910,0.00456
1423.57893,0.00451
1421.51876,0.00431
1419.45859,0.00407
1417.39842,0.00401
1415.33824,0.00424
1413.27807,0.00448
1411.21790,0.00452
1409.15773,0.00442
1407.09756,0.00436
1405.03738,0.00441
1402.97721,0.00452
1400.91704,0.00455
1398.85687,0.00437
1396.79670,0.00400
1394.73652,0.00374
1392.67635,0.00369
1390.61618,0.00370
1388.55601,0.00373
1386.49583,0.00374
1384.43566,0.00369
1382.37549,0.00367
1380.31532,0.00375
1378.25515,0.00380
1376.19497,0.00371
1374.13480,0.00363
1372.07463,0.00368
1370.01446,0.00371
1367.95429,0.00370
1365.89411,0.00372
1363.83394,0.00367
1361.77377,0.00346
1359.71360,0.00323
1357.65343,0.00309
1355.59325,0.00296
1353.53308,0.00291
1351.47291,0.00304
1349.41274,0.00321
1347.35256,0.00325
1345.29239,0.00310
1343.23222,0.00283
1341.17205,0.00250
1339.11188,0.00226
1337.05170,0.00222
1334.99153,0.00225
1332.93136,0.00230
1330.87119,0.00234
1328.81102,0.00230
1326.75084,0.00227
1324.69067,0.00238
1322.63050,0.00260
1320.57033,0.00276
1318.51015,0.00287
1316.44998,0.00298
1314.38981,0.00293
1312.32964,0.00281
1310.26947,0.00280
1308.20929,0.00278
1306.14912,0.00276
1304.08895,0.00293
1302.02878,0.00324
1299.96861,0.00354
1297.90843,0.00380
1295.84826,0.00410
1293.78809,0.00439
1291.72792,0.00448
1289.66775,0.00429
1287.60757,0.00398
1285.54740,0.00372
1283.48723,0.00354
1281.42706,0.00349
1279.36688,0.00349
1277.30671,0.00335
1275.24654,0.00316
1273.18637,0.00304
1271.12620,0.00303
1269.06602,0.00309
1267.00585,0.00320
1264.94568,0.00335
1262.88551,0.00329
1260.82534,0.00303
1258.76516,0.00304
1256.70499,0.00333
1254.64482,0.00343
1252.58465,0.00333
1250.52447,0.00320
1248.46430,0.00308
1246.40413,0.00300
1244.34396,0.00292
1242.28379,0.00273
1240.22361,0.00247
1238.16344,0.00235
1236.10327,0.00243
1234.04310,0.00257
1231.98293,0.00252
1229.92275,0.00219
1227.86258,0.00181
1225.80241,0.00160
1223.74224,0.00156
1221.68207,0.00147
1219.62189,0.00128
1217.56172,0.00116
1215.50155,0.00097
1213.44138,0.00067
1211.38120,0.00052
1209.32103,0.00051
1207.26086,0.00059
1205.20069,0.00063
1203.14052,0.00046
1201.08034,0.00029
1199.02017,0.00017
1196.96000,0.00000
1194.89983,0.00001
1192.83966,0.00020
1190.77948,0.00031
1188.71931,0.00023
1186.65914,0.00010
1184.59897,0.00014
1182.53880,0.00023
1180.47862,0.00039
1178.41845,0.00074
1176.35828,0.00101
1174.29811,0.00102
1172.23793,0.00104
1170.17776,0.00117
1168.11759,0.00148
1166.05742,0.00209
1163.99725,0.00260
1161.93707,0.00275
1159.87690,0.00273
1157.81673,0.00276
1155.75656,0.00292
1153.69639,0.00313
1151.63621,0.00342
1149.57604,0.00393
1147.51587,0.00455
1145.45570,0.00502
1143.39552,0.00538
1141.33535,0.00592
1139.27518,0.00670
1137.21501,0.00734
1135.15484,0.00750
1133.09466,0.00744
1131.03449,0.00775
1128.97432,0.00859
1126.91415,0.00958
1124.85398,0.01026
1122.79380,0.01064
1120.73363,0.01129
1118.67346,0.01239
1116.61329,0.01325
1114.55312,0.01368
1112.49294,0.01415
1110.43277,0.01482
1108.37260,0.01565
1106.31243,0.01654
1104.25225,0.01731
1102.19208,0.01808
1100.13191,0.01889
1098.07174,0.01956
1096.01157,0.02003
1093.95139,0.02031
1091.89122,0.02042
1089.83105,0.02058
1087.77088,0.02105
1085.71071,0.02168
1083.65053,0.02223
1081.59036,0.02287
1079.53019,0.02365
1077.47002,0.02442
1075.40985,0.02516
1073.34967,0.02581
1071.28950,0.02611
1069.22933,0.02615
1067.16916,0.02609
1065.10898,0.02598
1063.04881,0.02588
1060.98864,0.02579
1058.92847,0.02588
1056.86830,0.02618
1054.80812,0.02618
1052.74795,0.02560
1050.68778,0.02483
1048.62761,0.02431
1046.56744,0.02409
1044.50726,0.02386
1042.44709,0.02330
1040.38692,0.02258
1038.32675,0.02189
1036.26657,0.02119
1034.20640,0.02035
1032.14623,0.01925
1030.08606,0.01834
1028.02589,0.01784
1025.96571,0.01721
1023.90554,0.01646
1021.84537,0.01583
1019.78520,0.01507
1017.72503,0.01459
1015.66485,0.01468
1013.60468,0.01483
1011.54451,0.01474
1009.48434,0.01453
1007.42417,0.01454
1005.36399,0.01474
1003.30382,0.01476
1001.24365,0.01483
999.18348,0.01525
997.12330,0.01587
995.06313,0.01637
993.00296,0.01680
990.94279,0.01742
988.88262,0.01765
986.82244,0.01742
984.76227,0.01768
982.70210,0.01848
980.64193,0.01909
978.58176,0.01905
976.52158,0.01864
974.46141,0.01842
972.40124,0.01854
970.34107,0.01869
968.28089,0.01834
966.22072,0.01757
964.16055,0.01692
962.10038,0.01657
960.04021,0.01619
957.98003,0.01565
955.91986,0.01531
953.85969,0.01518
951.79952,0.01477
949.73935,0.01412
947.67917,0.01361
945.61900,0.01307
943.55883,0.01262
941.49866,0.01260
939.43849,0.01262
937.37831,0.01213
935.31814,0.01154
933.25797,0.01117
931.19780,0.01080
929.13762,0.01042
927.07745,0.01015
925.01728,0.01011
922.95711,0.01034
920.89694,0.01055
918.83676,0.01012
916.77659,0.00905
914.71642,0.00812
912.65625,0.00797
910.59608,0.00820
908.53590,0.00829
906.47573,0.00833
904.41556,0.00854
902.35539,0.00901
900.29522,0.00946
898.23504,0.00952
896.17487,0.00939
894.11470,0.00935
892.05453,0.00950
889.99435,0.00999
887.93418,0.01056
885.87401,0.01063
883.81384,0.01050
881.75367,0.01090
879.69349,0.01181
877.63332,0.01239
875.57315,0.01246
873.51298,0.01281
871.45281,0.01368
869.39263,0.01447
867.33246,0.01488
865.27229,0.01505
863.21212,0.01518
861.15194,0.01531
859.09177,0.01524
857.03160,0.01517
854.97143,0.01529
852.91126,0.01532
850.85108,0.01518
848.79091,0.01490
846.73074,0.01440
844.67057,0.01388
842.61040,0.01365
840.55022,0.01335
838.49005,0.01261
836.42988,0.01177
834.36971,0.01118
832.30954,0.01073
830.24936,0.01031
828.18919,0.00998
826.12902,0.00997
824.06885,0.00969
822.00867,0.00885
819.94850,0.00832
817.88833,0.00806
815.82816,0.00770
813.76799,0.00732
811.70781,0.00676
809.64764,0.00626
807.58747,0.00634
805.52730,0.00637
803.46713,0.00619
801.40695,0.00644
799.34678,0.00678
797.28661,0.00707
795.22644,0.00696
793.16627,0.00604
791.10609,0.00572
789.04592,0.00653
786.98575,0.00705
784.92558,0.00703
782.86540,0.00729
780.80523,0.00768
778.74506,0.00806
776.68489,0.00849
774.62472,0.00843
772.56454,0.00792
770.50437,0.00742
768.44420,0.00710
766.38403,0.00727
764.32386,0.00737
762.26368,0.00749
760.20351,0.00815
758.14334,0.00859
756.08317,0.00857
754.02299,0.00820
751.96282,0.00737
749.90265,0.00689
747.84248,0.00689
745.78231,0.00659
743.72213,0.00662
741.66196,0.00736
739.60179,0.00799
737.54162,0.00852
735.48145,0.00900
733.42127,0.00895
731.36110,0.00856
729.30093,0.00841
727.24076,0.00860
725.18059,0.00844
723.12041,0.00811
721.06024,0.00805
719.00007,0.00880
716.93990,0.00890
714.87972,0.00846
712.81955,0.00818
710.75938,0.00775
708.69921,0.00746
706.63904,0.00750
704.57886,0.00751
702.51869,0.00776
700.45852,0.00845
698.39835,0.00925
696.33818,0.00935
694.27800,0.00858
692.21783,0.00769
690.15766,0.00695
688.09749,0.00657
686.03731,0.00725
683.97714,0.00873
681.91697,0.00961
679.85680,0.00931
677.79663,0.00819
675.73645,0.00696
673.67628,0.00733
671.61611,0.00894
669.55594,0.00519
667.49577,0.00000
665.43559,0.00407
663.37542,0.00323
661.31525,0.00225
659.25508,0.00403
657.19491,0.00678
655.13473,0.00886
653.07456,0.01020
651.01439,0.01020
648.95422,0.00834
646.89404,0.00592
644.83387,0.00462
642.77370,0.00566
640.71353,0.00765
638.65336,0.00867
636.59318,0.00827
634.53301,0.00697
632.47284,0.00616
630.41267,0.00658
628.35250,0.00623
626.29232,0.00344
624.23215,0.00170
622.17198,0.00350
620.11181,0.00735
618.05164,0.00956
615.99146,0.00769
613.93129,0.00449
611.87112,0.00172
609.81095,0.00000
607.75077,0.00052
605.69060,0.00152
603.63043,0.00138
601.57026,0.00069
599.51009,0.00000
