3996.73391,0.00150
3994.67373,0.00102
3992.61356,0.00073
3990.55339,0.00104
3988.49322,0.00160
3986.43305,0.00171
3984.37287,0.00140
3982.31270,0.00117
3980.25253,0.00105
3978.19236,0.00073
3976.13219,0.00046
3974.07201,0.00052
3972.01184,0.00090
3969.95167,0.00153
3967.89150,0.00203
3965.83133,0.00203
3963.77115,0.00165
3961.71098,0.00138
3959.65081,0.00151
3957.59064,0.00175
3955.53046,0.00159
3953.47029,0.00108
3951.41012,0.00051
3949.34995,0.00000
3947.28978,0.00024
3945.22960,0.00128
3943.16943,0.00194
3941.10926,0.00175
3939.04909,0.00140
3936.98892,0.00102
3934.92874,0.00048
3932.86857,0.00020
3930.80840,0.00038
3928.74823,0.00087
3926.68805,0.00150
3924.62788,0.00188
3922.56771,0.00183
3920.50754,0.00167
3918.44737,0.00137
3916.38719,0.00102
3914.32702,0.00093
3912.26685,0.00102
3910.20668,0.00116
3908.14651,0.00142
3906.08633,0.00170
3904.02616,0.00178
3901.96599,0.00188
3899.90582,0.00228
3897.84565,0.00256
3895.78547,0.00241
3893.72530,0.00199
3891.66513,0.00131
3889.60496,0.00084
3887.54478,0.00111
3885.48461,0.00168
3883.42444,0.00199
3881.36427,0.00197
3879.30410,0.00143
3877.24392,0.00059
3875.18375,0.00025
3873.12358,0.00077
3871.06341,0.00143
3869.00324,0.00147
3866.94306,0.00127
3864.88289,0.00139
3862.82272,0.00204
3860.76255,0.00287
3858.70237,0.00322
3856.64220,0.00303
3854.58203,0.00242
3852.52186,0.00149
3850.46169,0.00085
3848.40151,0.00084
3846.34134,0.00124
3844.28117,0.00161
3842.22100,0.00182
3840.16083,0.00189
3838.10065,0.00157
3836.04048,0.00119
3833.98031,0.00113
3831.92014,0.00118
3829.85997,0.00123
3827.79979,0.00150
3825.73962,0.00193
3823.67945,0.00211
3821.61928,0.00183
3819.55910,0.00150
3817.49893,0.00137
3815.43876,0.00100
3813.37859,0.00068
3811.31842,0.00092
3809.25824,0.00149
3807.19807,0.00176
3805.13790,0.00159
3803.07773,0.00154
3801.01756,0.00142
3798.95738,0.00108
3796.89721,0.00095
3794.83704,0.00103
3792.77687,0.00112
3790.71670,0.00114
3788.65652,0.00107
3786.59635,0.00103
3784.53618,0.00111
3782.47601,0.00131
3780.41583,0.00150
3778.35566,0.00158
3776.29549,0.00165
3774.23532,0.00164
3772.17515,0.00151
3770.11497,0.00149
3768.05480,0.00152
3765.99463,0.00144
3763.93446,0.00148
3761.87429,0.00175
3759.81411,0.00187
3757.75394,0.00169
3755.69377,0.00149
3753.63360,0.00123
3751.57342,0.00067
3749.51325,0.00022
3747.45308,0.00062
3745.39291,0.00174
3743.33274,0.00272
3741.27256,0.00291
3739.21239,0.00224
3737.15222,0.00094
3735.09205,0.00000
3733.03188,0.00016
3730.97170,0.00079
3728.91153,0.00136
3726.85136,0.00186
3724.79119,0.00201
3722.73102,0.00169
3720.67084,0.00169
3718.61067,0.00234
3716.55050,0.00305
3714.49033,0.00323
3712.43015,0.00259
3710.36998,0.00157
3708.30981,0.00101
3706.24964,0.00100
3704.18947,0.00128
3702.12929,0.00147
3700.06912,0.00122
3698.00895,0.00092
3695.94878,0.00086
3693.88861,0.00065
3691.82843,0.00030
3689.76826,0.00031
3687.70809,0.00097
3685.64792,0.00174
3683.58775,0.00234
3681.52757,0.00268
3679.46740,0.00256
3677.40723,0.00213
3675.34706,0.00187
3673.28688,0.00203
3671.22671,0.00235
3669.16654,0.00271
3667.10637,0.00303
3665.04620,0.00326
3662.98602,0.00351
3660.92585,0.00393
3658.86568,0.00446
3656.80551,0.00471
3654.74534,0.00421
3652.68516,0.00314
3650.62499,0.00241
3648.56482,0.00285
3646.50465,0.00364
3644.44447,0.00388
3642.38430,0.00402
3640.32413,0.00438
3638.26396,0.00487
3636.20379,0.00537
3634.14361,0.00576
3632.08344,0.00600
3630.02327,0.00636
3627.96310,0.00657
3625.90293,0.00625
3623.84275,0.00613
3621.78258,0.00661
3619.72241,0.00708
3617.66224,0.00673
3615.60207,0.00586
3613.54189,0.00561
3611.48172,0.00638
3609.42155,0.00736
3607.36138,0.00811
3605.30120,0.00890
3603.24103,0.00941
3601.18086,0.00912
3599.12069,0.00855
3597.06052,0.00842
3595.00034,0.00856
3592.94017,0.00858
3590.88000,0.00842
3588.81983,0.00843
3586.75966,0.00906
3584.69948,0.00991
3582.63931,0.01044
3580.57914,0.01064
3578.51897,0.01077
3576.45879,0.01108
3574.39862,0.01141
3572.33845,0.01131
3570.27828,0.01083
3568.21811,0.01056
3566.15793,0.01095
3564.09776,0.01189
3562.03759,0.01270
3559.97742,0.01269
3557.91725,0.01212
3555.85707,0.01194
3553.79690,0.01234
3551.73673,0.01265
3549.67656,0.01271
3547.61639,0.01282
3545.55621,0.01302
3543.49604,0.01326
3541.43587,0.01339
3539.37570,0.01352
3537.31552,0.01410
3535.25535,0.01498
3533.19518,0.01571
3531.13501,0.01609
3529.07484,0.01602
3527.01466,0.01591
3524.95449,0.01603
3522.89432,0.01620
3520.83415,0.01635
3518.77398,0.01644
3516.71380,0.01630
3514.65363,0.01590
3512.59346,0.01581
3510.53329,0.01642
3508.47312,0.01735
3506.41294,0.01796
3504.35277,0.01801
3502.29260,0.01779
3500.23243,0.01762
3498.17225,0.01769
3496.11208,0.01802
3494.05191,0.01842
3491.99174,0.01876
3489.93157,0.01892
3487.87139,0.01868
3485.81122,0.01829
3483.75105,0.01827
3481.69088,0.01875
3479.63071,0.01937
3477.57053,0.01966
3475.51036,0.01962
3473.45019,0.01976
3471.39002,0.02008
3469.32984,0.02031
3467.26967,0.02059
3465.20950,0.02069
3463.14933,0.02044
3461.08916,0.02023
3459.02898,0.02043
3456.96881,0.02105
3454.90864,0.02160
3452.84847,0.02189
3450.78830,0.02190
3448.72812,0.02143
3446.66795,0.02105
3444.60778,0.02167
3442.54761,0.02290
3440.48744,0.02354
3438.42726,0.02332
3436.36709,0.02295
3434.30692,0.02289
3432.24675,0.02289
3430.18657,0.02291
3428.12640,0.02318
3426.06623,0.02335
3424.00606,0.02335
3421.94589,0.02322
3419.88571,0.02301
3417.82554,0.02324
3415.76537,0.02394
3413.70520,0.02451
3411.64503,0.02449
3409.58485,0.02436
3407.52468,0.02466
3405.46451,0.02494
3403.40434,0.02487
3401.34416,0.02498
3399.28399,0.02513
3397.22382,0.02488
3395.16365,0.02491
3393.10348,0.02538
3391.04330,0.02544
3388.98313,0.02520
3386.92296,0.02532
3384.86279,0.02558
3382.80262,0.02559
3380.74244,0.02550
3378.68227,0.02556
3376.62210,0.02590
3374.56193,0.02613
3372.50176,0.02593
3370.44158,0.02579
3368.38141,0.02602
3366.32124,0.02642
3364.26107,0.02676
3362.20089,0.02689
3360.14072,0.02707
3358.08055,0.02747
3356.02038,0.02761
3353.96021,0.02729
3351.90003,0.02715
3349.83986,0.02733
3347.77969,0.02728
3345.71952,0.02691
3343.65935,0.02666
3341.59917,0.02670
3339.53900,0.02703
3337.47883,0.02755
3335.41866,0.02783
3333.35849,0.02768
3331.29831,0.02745
3329.23814,0.02741
3327.17797,0.02740
3325.11780,0.02709
3323.05762,0.02707
3320.99745,0.02778
3318.93728,0.02839
3316.87711,0.02833
3314.81694,0.02801
3312.75676,0.02804
3310.69659,0.02826
3308.63642,0.02810
3306.57625,0.02777
3304.51608,0.02796
3302.45590,0.02852
3300.39573,0.02869
3298.33556,0.02840
3296.27539,0.02808
3294.21521,0.02794
3292.15504,0.02801
3290.09487,0.02830
3288.03470,0.02860
3285.97453,0.02864
3283.91435,0.02833
3281.85418,0.02794
3279.79401,0.02779
3277.73384,0.02783
3275.67367,0.02767
3273.61349,0.02760
3271.55332,0.02823
3269.49315,0.02904
3267.43298,0.02934
3265.37281,0.02926
3263.31263,0.02909
3261.25246,0.02886
3259.19229,0.02858
3257.13212,0.02833
3255.07194,0.02826
3253.01177,0.02830
3250.95160,0.02802
3248.89143,0.02747
3246.83126,0.02747
3244.77108,0.02801
3242.71091,0.02833
3240.65074,0.02827
3238.59057,0.02823
3236.53040,0.02833
3234.47022,0.02818
3232.41005,0.02779
3230.34988,0.02767
3228.28971,0.02808
3226.22954,0.02860
3224.16936,0.02863
3222.10919,0.02834
3220.04902,0.02795
3217.98885,0.02730
3215.92867,0.02687
3213.86850,0.02694
3211.80833,0.02716
3209.74816,0.02747
3207.68799,0.02781
3205.62781,0.02787
3203.56764,0.02769
3201.50747,0.02758
3199.44730,0.02769
3197.38713,0.02795
3195.32695,0.02805
3193.26678,0.02805
3191.20661,0.02811
3189.14644,0.02810
3187.08626,0.02800
3185.02609,0.02809
3182.96592,0.02823
3180.90575,0.02806
3178.84558,0.02761
3176.78540,0.02711
3174.72523,0.02694
3172.66506,0.02738
3170.60489,0.02777
3168.54472,0.02747
3166.48454,0.02700
3164.42437,0.02683
3162.36420,0.02663
3160.30403,0.02642
3158.24386,0.02660
3156.18368,0.02686
3154.12351,0.02686
3152.06334,0.02677
3150.00317,0.02657
3147.94299,0.02630
3145.88282,0.02621
3143.82265,0.02603
3141.76248,0.02575
3139.70231,0.02592
3137.64213,0.02631
3135.58196,0.02637
3133.52179,0.02625
3131.46162,0.02610
3129.40145,0.02585
3127.34127,0.02554
3125.28110,0.02524
3123.22093,0.02518
3121.16076,0.02545
3119.10058,0.02566
3117.04041,0.02562
3114.98024,0.02550
3112.92007,0.02517
3110.85990,0.02468
3108.79972,0.02455
3106.73955,0.02480
3104.67938,0.02484
3102.61921,0.02463
3100.55904,0.02464
3098.49886,0.02465
3096.43869,0.02432
3094.37852,0.02400
3092.31835,0.02403
3090.25818,0.02423
3088.19800,0.02421
3086.13783,0.02396
3084.07766,0.02385
3082.01749,0.02383
3079.95731,0.02363
3077.89714,0.02324
3075.83697,0.02298
3073.77680,0.02321
3071.71663,0.02363
3069.65645,0.02359
3067.59628,0.02312
3065.53611,0.02271
3063.47594,0.02267
3061.41577,0.02272
3059.35559,0.02260
3057.29542,0.02235
3055.23525,0.02198
3053.17508,0.02174
3051.11491,0.02189
3049.05473,0.02204
3046.99456,0.02186
3044.93439,0.02160
3042.87422,0.02158
3040.81404,0.02166
3038.75387,0.02157
3036.69370,0.02148
3034.63353,0.02148
3032.57336,0.02143
3030.51318,0.02125
3028.45301,0.02117
3026.39284,0.02127
3024.33267,0.02121
3022.27250,0.02089
3020.21232,0.02047
3018.15215,0.02005
3016.09198,0.01985
3014.03181,0.01987
3011.97163,0.01987
3009.91146,0.01974
3007.85129,0.01956
3005.79112,0.01951
3003.73095,0.01964
3001.67077,0.01963
2999.61060,0.01926
2997.55043,0.01893
2995.49026,0.01898
2993.43009,0.01917
2991.36991,0.01929
2989.30974,0.01943
2987.24957,0.01949
2985.18940,0.01939
2983.12923,0.01938
2981.06905,0.01934
2979.00888,0.01895
2976.94871,0.01858
2974.88854,0.01857
2972.82836,0.01866
2970.76819,0.01863
2968.70802,0.01853
2966.64785,0.01862
2964.58768,0.01887
2962.52750,0.01906
2960.46733,0.01911
2958.40716,0.01895
2956.34699,0.01880
2954.28682,0.01885
2952.22664,0.01897
2950.16647,0.01910
2948.10630,0.01897
2946.04613,0.01855
2943.98596,0.01844
2941.92578,0.01876
2939.86561,0.01908
2937.80544,0.01903
2935.74527,0.01874
2933.68509,0.01871
2931.62492,0.01888
2929.56475,0.01886
2927.50458,0.01857
2925.44441,0.01817
2923.38423,0.01765
2921.32406,0.01716
2919.26389,0.01712
2917.20372,0.01731
2915.14355,0.01738
2913.08337,0.01761
2911.02320,0.01801
2908.96303,0.01816
2906.90286,0.01808
2904.84268,0.01795
2902.78251,0.01755
2900.72234,0.01720
2898.66217,0.01719
2896.60200,0.01717
2894.54182,0.01716
2892.48165,0.01725
2890.42148,0.01721
2888.36131,0.01704
2886.30114,0.01689
2884.24096,0.01692
2882.18079,0.01700
2880.12062,0.01678
2878.06045,0.01633
2876.00028,0.01608
2873.94010,0.01622
2871.87993,0.01618
2869.81976,0.01571
2867.75959,0.01556
2865.69941,0.01585
2863.63924,0.01595
2861.57907,0.01574
2859.51890,0.01546
2857.45873,0.01513
2855.39855,0.01469
2853.33838,0.01451
2851.27821,0.01478
2849.21804,0.01485
2847.15787,0.01449
2845.09769,0.01421
2843.03752,0.01412
2840.97735,0.01400
2838.91718,0.01390
2836.85700,0.01393
2834.79683,0.01404
2832.73666,0.01398
2830.67649,0.01365
2828.61632,0.01331
2826.55614,0.01320
2824.49597,0.01303
2822.43580,0.01280
2820.37563,0.01280
2818.31546,0.01286
2816.25528,0.01284
2814.19511,0.01268
2812.13494,0.01244
2810.07477,0.01241
2808.01460,0.01264
2805.95442,0.01284
2803.89425,0.01287
2801.83408,0.01280
2799.77391,0.01267
2797.71373,0.01252
2795.65356,0.01223
2793.59339,0.01208
2791.53322,0.01234
2789.47305,0.01257
2787.41287,0.01251
2785.35270,0.01239
2783.29253,0.01216
2781.23236,0.01177
2779.17219,0.01155
2777.11201,0.01166
2775.05184,0.01161
2772.99167,0.01124
2770.93150,0.01104
2768.87133,0.01112
2766.81115,0.01110
2764.75098,0.01101
2762.69081,0.01103
2760.63064,0.01111
2758.57046,0.01112
2756.51029,0.01095
2754.45012,0.01077
2752.38995,0.01092
2750.32978,0.01118
2748.26960,0.01127
2746.20943,0.01114
2744.14926,0.01074
2742.08909,0.01043
2740.02892,0.01069
2737.96874,0.01114
2735.90857,0.01105
2733.84840,0.01064
2731.78823,0.01051
2729.72805,0.01056
2727.66788,0.01046
2725.60771,0.01044
2723.54754,0.01062
2721.48737,0.01065
2719.42719,0.01035
2717.36702,0.00992
2715.30685,0.00956
2713.24668,0.00940
2711.18651,0.00957
2709.12633,0.00972
2707.06616,0.00957
2705.00599,0.00945
2702.94582,0.00943
2700.88565,0.00925
2698.82547,0.00896
2696.76530,0.00899
2694.70513,0.00940
2692.64496,0.00972
2690.58478,0.00965
2688.52461,0.00931
2686.46444,0.00909
2684.40427,0.00916
2682.34410,0.00930
2680.28392,0.00920
2678.22375,0.00896
2676.16358,0.00897
2674.10341,0.00901
2672.04324,0.00871
2669.98306,0.00853
2667.92289,0.00875
2665.86272,0.00892
2663.80255,0.00891
2661.74238,0.00892
2659.68220,0.00897
2657.62203,0.00883
2655.56186,0.00862
2653.50169,0.00841
2651.44151,0.00808
2649.38134,0.00786
2647.32117,0.00781
2645.26100,0.00793
2643.20083,0.00821
2641.14065,0.00821
2639.08048,0.00797
2637.02031,0.00815
2634.96014,0.00869
2632.89997,0.00890
2630.83979,0.00862
2628.77962,0.00835
2626.71945,0.00829
2624.65928,0.00818
2622.59910,0.00793
2620.53893,0.00776
2618.47876,0.00774
2616.41859,0.00756
2614.35842,0.00741
2612.29824,0.00773
2610.23807,0.00812
2608.17790,0.00792
2606.11773,0.00751
2604.05756,0.00764
2601.99738,0.00802
2599.93721,0.00798
2597.87704,0.00766
2595.81687,0.00751
2593.75670,0.00774
2591.69652,0.00796
2589.63635,0.00767
2587.57618,0.00715
2585.51601,0.00702
2583.45583,0.00743
2581.39566,0.00762
2579.33549,0.00733
2577.27532,0.00707
2575.21515,0.00711
2573.15497,0.00732
2571.09480,0.00720
2569.03463,0.00672
2566.97446,0.00665
2564.91429,0.00730
2562.85411,0.00787
2560.79394,0.00780
2558.73377,0.00722
2556.67360,0.00670
2554.61342,0.00684
2552.55325,0.00719
2550.49308,0.00712
2548.43291,0.00692
2546.37274,0.00708
2544.31256,0.00743
2542.25239,0.00776
2540.19222,0.00803
2538.13205,0.00774
2536.07188,0.00701
2534.01170,0.00664
2531.95153,0.00686
2529.89136,0.00727
2527.83119,0.00734
2525.77102,0.00716
2523.71084,0.00722
2521.65067,0.00761
2519.59050,0.00789
2517.53033,0.00778
2515.47015,0.00745
2513.40998,0.00708
2511.34981,0.00697
2509.28964,0.00727
2507.22947,0.00771
2505.16929,0.00791
2503.10912,0.00751
2501.04895,0.00669
2498.98878,0.00635
2496.92861,0.00689
2494.86843,0.00742
2492.80826,0.00758
2490.74809,0.00775
2488.68792,0.00763
2486.62775,0.00742
2484.56757,0.00742
2482.50740,0.00727
2480.44723,0.00713
2478.38706,0.00718
2476.32688,0.00707
2474.26671,0.00681
2472.20654,0.00713
2470.14637,0.00760
2468.08620,0.00732
2466.02602,0.00682
2463.96585,0.00649
2461.90568,0.00628
2459.84551,0.00659
2457.78534,0.00722
2455.72516,0.00771
2453.66499,0.00802
2451.60482,0.00848
2449.54465,0.00920
2447.48447,0.00940
2445.42430,0.00872
2443.36413,0.00813
2441.30396,0.00819
2439.24379,0.00836
2437.18361,0.00827
2435.12344,0.00808
2433.06327,0.00785
2431.00310,0.00757
2428.94293,0.00727
2426.88275,0.00723
2424.82258,0.00755
2422.76241,0.00808
2420.70224,0.00838
2418.64207,0.00816
2416.58189,0.00797
2414.52172,0.00810
2412.46155,0.00810
2410.40138,0.00791
2408.34120,0.00775
2406.28103,0.00789
2404.22086,0.00828
2402.16069,0.00860
2400.10052,0.00857
2398.04034,0.00801
2395.98017,0.00755
2393.92000,0.00762
2391.85983,0.00781
2389.79966,0.00778
2387.73948,0.00766
2385.67931,0.00763
2383.61914,0.00790
2381.55897,0.00851
2379.49880,0.00897
2377.43862,0.00879
2375.37845,0.00795
2373.31828,0.00711
2371.25811,0.00705
2369.19793,0.00766
2367.13776,0.00840
2365.07759,0.00907
2363.01742,0.00926
2360.95725,0.00987
2358.89707,0.01057
2356.83690,0.01008
2354.77673,0.00772
2352.71656,0.00587
2350.65639,0.00656
2348.59621,0.00721
2346.53604,0.00585
2344.47587,0.00688
2342.41570,0.00990
2340.35552,0.01217
2338.29535,0.01304
2336.23518,0.01291
2334.17501,0.01235
2332.11484,0.01129
2330.05466,0.01018
2327.99449,0.00899
2325.93432,0.00787
2323.87415,0.00668
2321.81398,0.00614
2319.75380,0.00620
2317.69363,0.00693
2315.63346,0.00769
2313.57329,0.00813
2311.51312,0.00802
2309.45294,0.00757
2307.39277,0.00732
2305.33260,0.00726
2303.27243,0.00734
2301.21225,0.00749
2299.15208,0.00781
2297.09191,0.00835
2295.03174,0.00886
2292.97157,0.00912
2290.91139,0.00902
2288.85122,0.00876
2286.79105,0.00836
2284.73088,0.00785
2282.67071,0.00762
2280.61053,0.00780
2278.55036,0.00816
2276.49019,0.00837
2274.43002,0.00827
2272.36984,0.00820
2270.30967,0.00845
2268.24950,0.00878
2266.18933,0.00890
2264.12916,0.00867
2262.06898,0.00834
2260.00881,0.00832
2257.94864,0.00821
2255.88847,0.00723
2253.82830,0.00606
2251.76812,0.00643
2249.70795,0.00766
2247.64778,0.00768
2245.58761,0.00703
2243.52744,0.00707
2241.46726,0.00791
2239.40709,0.00854
2237.34692,0.00802
2235.28675,0.00754
2233.22657,0.00784
2231.16640,0.00756
2229.10623,0.00647
2227.04606,0.00555
2224.98589,0.00577
2222.92571,0.00618
2220.86554,0.00545
2218.80537,0.00520
2216.74520,0.00614
2214.68503,0.00605
2212.62485,0.00464
2210.56468,0.00388
2208.50451,0.00422
2206.44434,0.00492
2204.38417,0.00506
2202.32399,0.00472
2200.26382,0.00531
2198.20365,0.00603
2196.14348,0.00542
2194.08330,0.00489
2192.02313,0.00537
2189.96296,0.00582
2187.90279,0.00646
2185.84262,0.00804
2183.78244,0.00928
2181.72227,0.00896
2179.66210,0.00708
2177.60193,0.00439
2175.54176,0.00257
2173.48158,0.00267
2171.42141,0.00407
2169.36124,0.00615
2167.30107,0.00802
2165.24089,0.00783
2163.18072,0.00572
2161.12055,0.00282
2159.06038,0.00029
2157.00021,0.00000
2154.94003,0.00128
2152.87986,0.00259
2150.81969,0.00369
2148.75952,0.00477
2146.69935,0.00488
2144.63917,0.00415
2142.57900,0.00410
2140.51883,0.00476
2138.45866,0.00503
2136.39849,0.00417
2134.33831,0.00299
2132.27814,0.00332
2130.21797,0.00507
2128.15780,0.00551
2126.09762,0.00429
2124.03745,0.00411
2121.97728,0.00511
2119.91711,0.00540
2117.85694,0.00515
2115.79676,0.00510
2113.73659,0.00493
2111.67642,0.00499
2109.61625,0.00526
2107.55608,0.00506
2105.49590,0.00456
2103.43573,0.00436
2101.37556,0.00467
2099.31539,0.00541
2097.25521,0.00601
2095.19504,0.00574
2093.13487,0.00470
2091.07470,0.00396
2089.01453,0.00415
2086.95435,0.00467
2084.89418,0.00485
2082.83401,0.00465
2080.77384,0.00483
2078.71367,0.00574
2076.65349,0.00624
2074.59332,0.00571
2072.53315,0.00506
2070.47298,0.00519
2068.41281,0.00555
2066.35263,0.00516
2064.29246,0.00440
2062.23229,0.00424
2060.17212,0.00494
2058.11194,0.00530
2056.05177,0.00539
2053.99160,0.00699
2051.93143,0.00885
2049.87126,0.00824
2047.81108,0.00588
2045.75091,0.00422
2043.69074,0.00389
2041.63057,0.00426
2039.57040,0.00472
2037.51022,0.00474
2035.45005,0.00422
2033.38988,0.00447
2031.32971,0.00612
2029.26954,0.00705
2027.20936,0.00616
2025.14919,0.00491
2023.08902,0.00386
2021.02885,0.00322
2018.96867,0.00338
2016.90850,0.00432
2014.84833,0.00717
2012.78816,0.01122
2010.72799,0.01219
2008.66781,0.00819
2006.60764,0.00295
2004.54747,0.00110
2002.48730,0.00219
2000.42713,0.00299
1998.36695,0.00298
1996.30678,0.00330
1994.24661,0.00337
1992.18644,0.00305
1990.12626,0.00379
1988.06609,0.00601
1986.00592,0.00792
1983.94575,0.00703
1981.88558,0.00371
1979.82540,0.00073
1977.76523,0.00000
1975.70506,0.00139
1973.64489,0.00251
1971.58472,0.00232
1969.52454,0.00263
1967.46437,0.00369
1965.40420,0.00375
1963.34403,0.00315
1961.28386,0.00329
1959.22368,0.00383
1957.16351,0.00429
1955.10334,0.00428
1953.04317,0.00334
1950.98299,0.00254
1948.92282,0.00287
1946.86265,0.00338
1944.80248,0.00346
1942.74231,0.00373
1940.68213,0.00407
1938.62196,0.00399
1936.56179,0.00384
1934.50162,0.00371
1932.44145,0.00310
1930.38127,0.00251
1928.32110,0.00251
1926.26093,0.00238
1924.20076,0.00171
1922.14059,0.00123
1920.08041,0.00167
1918.02024,0.00240
1915.96007,0.00236
1913.89990,0.00193
1911.83972,0.00188
1909.77955,0.00202
1907.71938,0.00224
1905.65921,0.00267
1903.59904,0.00281
1901.53886,0.00261
1899.47869,0.00286
1897.41852,0.00335
1895.35835,0.00342
1893.29818,0.00336
1891.23800,0.00316
1889.17783,0.00242
1887.11766,0.00182
1885.05749,0.00209
1882.99731,0.00276
1880.93714,0.00308
1878.87697,0.00310
1876.81680,0.00325
1874.75663,0.00338
1872.69645,0.00326
1870.63628,0.00316
1868.57611,0.00310
1866.51594,0.00303
1864.45577,0.00318
1862.39559,0.00324
1860.33542,0.00275
1858.27525,0.00228
1856.21508,0.00252
1854.15491,0.00293
1852.09473,0.00279
1850.03456,0.00233
1847.97439,0.00226
1845.91422,0.00271
1843.85404,0.00323
1841.79387,0.00343
1839.73370,0.00334
1837.67353,0.00321
1835.61336,0.00317
1833.55318,0.00335
1831.49301,0.00368
1829.43284,0.00395
1827.37267,0.00416
1825.31250,0.00396
1823.25232,0.00331
1821.19215,0.00281
1819.13198,0.00258
1817.07181,0.00244
1815.01163,0.00249
1812.95146,0.00262
1810.89129,0.00255
1808.83112,0.00243
1806.77095,0.00252
1804.71077,0.00264
1802.65060,0.00251
1800.59043,0.00236
1798.53026,0.00244
1796.47009,0.00260
1794.40991,0.00263
1792.34974,0.00262
1790.28957,0.00279
1788.22940,0.00311
1786.16923,0.00330
1784.10905,0.00336
1782.04888,0.00327
1779.98871,0.00293
1777.92854,0.00267
1775.86836,0.00276
1773.80819,0.00291
1771.74802,0.00287
1769.68785,0.00286
1767.62768,0.00298
1765.56750,0.00295
1763.50733,0.00267
1761.44716,0.00245
1759.38699,0.00267
1757.32682,0.00332
1755.26664,0.00389
1753.20647,0.00386
1751.14630,0.00333
1749.08613,0.00304
1747.02596,0.00332
1744.96578,0.00365
1742.90561,0.00373
1740.84544,0.00381
1738.78527,0.00408
1736.72509,0.00435
1734.66492,0.00440
1732.60475,0.00449
1730.54458,0.00491
1728.48441,0.00533
1726.42423,0.00537
1724.36406,0.00518
1722.30389,0.00509
1720.24372,0.00520
1718.18355,0.00523
1716.12337,0.00503
1714.06320,0.00489
1712.00303,0.00490
1709.94286,0.00494
1707.88268,0.00500
1705.82251,0.00514
1703.76234,0.00545
1701.70217,0.00586
1699.64200,0.00606
1697.58182,0.00620
1695.52165,0.00686
1693.46148,0.00775
1691.40131,0.00839
1689.34114,0.00882
1687.28096,0.00908
1685.22079,0.00930
1683.16062,0.00993
1681.10045,0.01078
1679.04028,0.01156
1676.98010,0.01253
1674.91993,0.01341
1672.85976,0.01358
1670.79959,0.01353
1668.73941,0.01415
1666.67924,0.01510
1664.61907,0.01584
1662.55890,0.01642
1660.49873,0.01684
1658.43855,0.01693
1656.37838,0.01678
1654.31821,0.01680
1652.25804,0.01729
1650.19787,0.01760
1648.13769,0.01745
1646.07752,0.01703
1644.01735,0.01654
1641.95718,0.01610
1639.89701,0.01566
1637.83683,0.01528
1635.77666,0.01520
1633.71649,0.01540
1631.65632,0.01532
1629.59614,0.01480
1627.53597,0.01414
1625.47580,0.01354
1623.41563,0.01295
1621.35546,0.01247
1619.29528,0.01224
1617.23511,0.01225
1615.17494,0.01230
1613.11477,0.01201
1611.05460,0.01142
1608.99442,0.01087
1606.93425,0.01066
1604.87408,0.01080
1602.81391,0.01082
1600.75373,0.01052
1598.69356,0.01029
1596.63339,0.01025
1594.57322,0.01006
1592.51305,0.00956
1590.45287,0.00902
1588.39270,0.00861
1586.33253,0.00834
1584.27236,0.00821
1582.21219,0.00814
1580.15201,0.00815
1578.09184,0.00822
1576.03167,0.00818
1573.97150,0.00793
1571.91133,0.00772
1569.85115,0.00767
1567.79098,0.00750
1565.73081,0.00711
1563.67064,0.00685
1561.61046,0.00696
1559.55029,0.00719
1557.49012,0.00720
1555.42995,0.00689
1553.36978,0.00644
1551.30960,0.00615
1549.24943,0.00616
1547.18926,0.00634
1545.12909,0.00625
1543.06892,0.00570
1541.00874,0.00516
1538.94857,0.00503
1536.88840,0.00500
1534.82823,0.00496
1532.76805,0.00501
1530.70788,0.00510
1528.64771,0.00499
1526.58754,0.00462
1524.52737,0.00428
1522.46719,0.00420
1520.40702,0.00429
1518.34685,0.00432
1516.28668,0.00415
1514.22651,0.00384
1512.16633,0.00350
1510.10616,0.00314
1508.04599,0.00278
1505.98582,0.00271
1503.92565,0.00302
1501.86547,0.00339
1499.80530,0.00361
1497.74513,0.00365
1495.68496,0.00355
1493.62478,0.00334
1491.56461,0.00297
1489.50444,0.00252
1487.44427,0.00236
1485.38410,0.00241
1483.32392,0.00251
1481.26375,0.00266
1479.20358,0.00280
1477.14341,0.00280
1475.08324,0.00266
1473.02306,0.00258
1470.96289,0.00277
1468.90272,0.00311
1466.84255,0.00341
1464.78238,0.00365
1462.72220,0.00367
1460.66203,0.00327
1458.60186,0.00273
1456.54169,0.00269
1454.48151,0.00320
1452.42134,0.00368
1450.36117,0.00389
1448.30100,0.00379
1446.24083,0.00365
1444.18065,0.00370
1442.12048,0.00378
1440.06031,0.00374
1438.00014,0.00355
1435.93997,0.00330
1433.87979,0.00323
1431.81962,0.00334
1429.75945,0.00351
1427.69928,0.00359
1425.63910,0.00353
1423.57893,0.00350
1421.51876,0.00351
1419.45859,0.00353
1417.39842,0.00379
1415.33824,0.00414
1413.27807,0.00425
1411.21790,0.00416
1409.15773,0.00402
1407.09756,0.00391
1405.03738,0.00380
1402.97721,0.00365
1400.91704,0.00350
1398.85687,0.00341
1396.79670,0.00342
1394.73652,0.00351
1392.67635,0.00355
1390.61618,0.00351
1388.55601,0.00346
1386.49583,0.00340
1384.43566,0.00331
1382.37549,0.00317
1380.31532,0.00311
1378.25515,0.00312
1376.19497,0.00312
1374.13480,0.00309
1372.07463,0.00311
1370.01446,0.00311
1367.95429,0.00303
1365.89411,0.00290
1363.83394,0.00277
1361.77377,0.00270
1359.71360,0.00279
1357.65343,0.00290
1355.59325,0.00291
1353.53308,0.00284
1351.47291,0.00269
1349.41274,0.00252
1347.35256,0.00244
1345.29239,0.00236
1343.23222,0.00215
1341.17205,0.00186
1339.11188,0.00167
1337.05170,0.00179
1334.99153,0.00207
1332.93136,0.00210
1330.87119,0.00201
1328.81102,0.00206
1326.75084,0.00216
1324.69067,0.00222
1322.63050,0.00220
1320.57033,0.00214
1318.51015,0.00220
1316.44998,0.00231
1314.38981,0.00238
1312.32964,0.00241
1310.26947,0.00240
1308.20929,0.00242
1306.14912,0.00255
1304.08895,0.00264
1302.02878,0.00266
1299.96861,0.00279
1297.90843,0.00302
1295.84826,0.00313
1293.78809,0.00300
1291.72792,0.00282
1289.66775,0.00285
1287.60757,0.00297
1285.54740,0.00289
1283.48723,0.00277
1281.42706,0.00282
1279.36688,0.00292
1277.30671,0.00301
1275.24654,0.00306
1273.18637,0.00292
1271.12620,0.00272
1269.06602,0.00276
1267.00585,0.00286
1264.94568,0.00275
1262.88551,0.00266
1260.82534,0.00274
1258.76516,0.00299
1256.70499,0.00324
1254.64482,0.00314
1252.58465,0.00282
1250.52447,0.00269
1248.46430,0.00271
1246.40413,0.00263
1244.34396,0.00248
1242.28379,0.00240
1240.22361,0.00236
1238.16344,0.00241
1236.10327,0.00258
1234.04310,0.00261
1231.98293,0.00237
1229.92275,0.00210
1227.86258,0.00179
1225.80241,0.00145
1223.74224,0.00136
1221.68207,0.00134
1219.62189,0.00118
1217.56172,0.00096
1215.50155,0.00083
1213.44138,0.00077
1211.38120,0.00042
1209.32103,0.00000
1207.26086,0.00009
1205.20069,0.00038
1203.14052,0.00044
1201.08034,0.00032
1199.02017,0.00013
1196.96000,-0.00003
1194.89983,-0.00004
1192.83966,0.00003
1190.77948,0.00006
1188.71931,0.00008
1186.65914,0.00019
1184.59897,0.00034
1182.53880,0.00046
1180.47862,0.00046
1178.41845,0.00051
1176.35828,0.00072
1174.29811,0.00103
1172.23793,0.00142
1170.17776,0.00181
1168.11759,0.00209
1166.05742,0.00227
1163.99725,0.00258
1161.93707,0.00306
1159.87690,0.00367
1157.81673,0.00425
1155.75656,0.00453
1153.69639,0.00483
1151.63621,0.00558
1149.57604,0.00651
1147.51587,0.00746
1145.45570,0.00837
1143.39552,0.00892
1141.33535,0.00934
1139.27518,0.01011
1137.21501,0.01121
1135.15484,0.01233
1133.09466,0.01333
1131.03449,0.01425
1128.97432,0.01518
1126.91415,0.01625
1124.85398,0.01745
1122.79380,0.01851
1120.73363,0.01946
1118.67346,0.02057
1116.61329,0.02189
1114.55312,0.02314
1112.49294,0.02413
1110.43277,0.02507
1108.37260,0.02604
1106.31243,0.02709
1104.25225,0.02809
1102.19208,0.02892
1100.13191,0.02980
1098.07174,0.03065
1096.01157,0.03126
1093.95139,0.03191
1091.89122,0.03267
1089.83105,0.03329
1087.77088,0.03369
1085.71071,0.03418
1083.65053,0.03494
1081.59036,0.03582
1079.53019,0.03665
1077.47002,0.03712
1075.40985,0.03727
1073.34967,0.03761
1071.28950,0.03804
1069.22933,0.03817
1067.16916,0.03801
1065.10898,0.03765
1063.04881,0.03718
1060.98864,0.03680
1058.92847,0.03644
1056.86830,0.03571
1054.80812,0.03478
1052.74795,0.03422
1050.68778,0.03368
1048.62761,0.03240
1046.56744,0.03091
1044.50726,0.02973
1042.44709,0.02828
1040.38692,0.02648
1038.32675,0.02482
1036.26657,0.02344
1034.20640,0.02225
1032.14623,0.02115
1030.08606,0.02022
1028.02589,0.01943
1025.96571,0.01851
1023.90554,0.01741
1021.84537,0.01642
1019.78520,0.01569
1017.72503,0.01514
1015.66485,0.01480
1013.60468,0.01461
1011.54451,0.01447
1009.48434,0.01463
1007.42417,0.01497
1005.36399,0.01517
1003.30382,0.01563
1001.24365,0.01657
999.18348,0.01775
997.12330,0.01876
995.06313,0.01924
993.00296,0.01970
990.94279,0.02072
988.88262,0.02180
986.82244,0.02241
984.76227,0.02257
982.70210,0.02251
980.64193,0.02243
978.58176,0.02252
976.52158,0.02252
974.46141,0.02207
972.40124,0.02132
970.34107,0.02068
968.28089,0.02021
966.22072,0.01940
964.16055,0.01856
962.10038,0.01812
960.04021,0.01739
957.98003,0.01614
955.91986,0.01497
953.85969,0.01406
951.79952,0.01314
949.73935,0.01214
947.67917,0.01128
945.61900,0.01033
943.55883,0.00950
941.49866,0.00914
939.43849,0.00861
937.37831,0.00768
935.31814,0.00701
933.25797,0.00650
931.19780,0.00583
929.13762,0.00536
927.07745,0.00519
925.01728,0.00476
922.95711,0.00417
920.89694,0.00413
918.83676,0.00447
916.77659,0.00432
914.71642,0.00370
912.65625,0.00353
910.59608,0.00391
908.53590,0.00397
906.47573,0.00354
904.41556,0.00330
902.35539,0.00350
900.29522,0.00366
898.23504,0.00381
896.17487,0.00414
894.11470,0.00441
892.05453,0.00461
889.99435,0.00456
887.93418,0.00459
885.87401,0.00545
883.81384,0.00655
881.75367,0.00707
879.69349,0.00752
877.63332,0.00825
875.57315,0.00887
873.51298,0.00897
871.45281,0.00859
869.39263,0.00885
867.33246,0.00981
865.27229,0.01010
863.21212,0.00978
861.15194,0.00992
859.09177,0.01048
857.03160,0.01067
854.97143,0.01075
852.91126,0.01121
850.85108,0.01165
848.79091,0.01157
846.73074,0.01102
844.67057,0.01033
842.61040,0.00968
840.55022,0.00957
838.49005,0.00992
836.42988,0.00977
834.36971,0.00912
832.30954,0.00873
830.24936,0.00836
828.18919,0.00745
826.12902,0.00660
824.06885,0.00665
822.00867,0.00712
819.94850,0.00703
817.88833,0.00652
815.82816,0.00633
813.76799,0.00598
811.70781,0.00508
809.64764,0.00458
807.58747,0.00468
805.52730,0.00454
803.46713,0.00384
801.40695,0.00333
799.34678,0.00383
797.28661,0.00479
795.22644,0.00506
793.16627,0.00446
791.10609,0.00395
789.04592,0.00382
786.98575,0.00320
784.92558,0.00238
782.86540,0.00241
780.80523,0.00340
778.74506,0.00413
776.68489,0.00360
774.62472,0.00283
772.56454,0.00290
770.50437,0.00342
768.44420,0.00355
766.38403,0.00315
764.32386,0.00285
762.26368,0.00294
760.20351,0.00331
758.14334,0.00354
756.08317,0.00336
754.02299,0.00306
751.96282,0.00241
749.90265,0.00146
747.84248,0.00111
745.78231,0.00174
743.72213,0.00257
741.66196,0.00266
739.60179,0.00249
737.54162,0.00272
735.48145,0.00299
733.42127,0.00293
731.36110,0.00273
729.30093,0.00300
727.24076,0.00397
725.18059,0.00456
723.12041,0.00459
721.06024,0.00452
719.00007,0.00462
716.93990,0.00446
714.87972,0.00421
712.81955,0.00393
710.75938,0.00353
708.69921,0.00325
706.63904,0.00312
704.57886,0.00305
702.51869,0.00283
700.45852,0.00255
698.39835,0.00257
696.33818,0.00301
694.27800,0.00381
692.21783,0.00498
690.15766,0.00646
688.09749,0.00735
686.03731,0.00736
683.97714,0.00754
681.91697,0.00736
679.85680,0.00597
677.79663,0.00535
675.73645,0.00690
673.67628,0.00877
671.61611,0.00915
669.55594,0.00642
667.49577,0.00403
665.43559,0.00675
663.37542,0.00694
661.31525,0.00752
659.25508,0.00909
657.19491,0.00958
655.13473,0.00832
653.07456,0.00665
651.01439,0.00619
648.95422,0.00708
646.89404,0.00791
644.83387,0.00772
642.77370,0.00724
640.71353,0.00754
638.65336,0.00896
636.59318,0.00974
634.53301,0.00867
632.47284,0.00806
630.41267,0.00941
628.35250,0.01076
626.29232,0.01096
624.23215,0.01101
622.17198,0.00902
620.11181,0.00686
618.05164,0.00809
615.99146,0.01008
613.93129,0.01068
611.87112,0.00907
609.81095,0.00436
607.75077,0.00138
605.69060,0.00197
603.63043,0.00128
601.57026,0.00000
599.51009,0.00000
