3996.73391,0.00010
3994.67373,0.00000
3992.61356,0.00007
3990.55339,0.00023
3988.49322,0.00041
3986.43305,0.00054
3984.37287,0.00052
3982.31270,0.00052
3980.25253,0.00086
3978.19236,0.00122
3976.13219,0.00099
3974.07201,0.00058
3972.01184,0.00076
3969.95167,0.00115
3967.89150,0.00104
3965.83133,0.00077
3963.77115,0.00087
3961.71098,0.00100
3959.65081,0.00076
3957.59064,0.00044
3955.53046,0.00034
3953.47029,0.00037
3951.41012,0.00056
3949.34995,0.00105
3947.28978,0.00151
3945.22960,0.00150
3943.16943,0.00121
3941.10926,0.00096
3939.04909,0.00094
3936.98892,0.00122
3934.92874,0.00153
3932.86857,0.00160
3930.80840,0.00147
3928.74823,0.00133
3926.68805,0.00133
3924.62788,0.00147
3922.56771,0.00161
3920.50754,0.00156
3918.44737,0.00149
3916.38719,0.00141
3914.32702,0.00127
3912.26685,0.00125
3910.20668,0.00130
3908.14651,0.00126
3906.08633,0.00134
3904.02616,0.00177
3901.96599,0.00205
3899.90582,0.00185
3897.84565,0.00164
3895.78547,0.00158
3893.72530,0.00154
3891.66513,0.00142
3889.60496,0.00127
3887.54478,0.00150
3885.48461,0.00201
3883.42444,0.00213
3881.36427,0.00193
3879.30410,0.00166
3877.24392,0.00118
3875.18375,0.00098
3873.12358,0.00155
3871.06341,0.00241
3869.00324,0.00271
3866.94306,0.00242
3864.88289,0.00224
3862.82272,0.00259
3860.76255,0.00301
3858.70237,0.00315
3856.64220,0.00317
3854.58203,0.00288
3852.52186,0.00224
3850.46169,0.00164
3848.40151,0.00159
3846.34134,0.00179
3844.28117,0.00183
3842.22100,0.00168
3840.16083,0.00157
3838.10065,0.00197
3836.04048,0.00267
3833.98031,0.00290
3831.92014,0.00266
3829.85997,0.00240
3827.79979,0.00226
3825.73962,0.00214
3823.67945,0.00200
3821.61928,0.00175
3819.55910,0.00135
3817.49893,0.00095
3815.43876,0.00094
3813.37859,0.00118
3811.31842,0.00133
3809.25824,0.00129
3807.19807,0.00116
3805.13790,0.00115
3803.07773,0.00138
3801.01756,0.00148
3798.95738,0.00108
3796.89721,0.00079
3794.83704,0.00113
3792.77687,0.00172
3790.71670,0.00194
3788.65652,0.00152
3786.59635,0.00082
3784.53618,0.00062
3782.47601,0.00094
3780.41583,0.00121
3778.35566,0.00133
3776.29549,0.00144
3774.23532,0.00165
3772.17515,0.00185
3770.11497,0.00196
3768.05480,0.00198
3765.99463,0.00192
3763.93446,0.00186
3761.87429,0.00201
3759.81411,0.00244
3757.75394,0.00297
3755.69377,0.00344
3753.63360,0.00374
3751.57342,0.00364
3749.51325,0.00335
3747.45308,0.00353
3745.39291,0.00422
3743.33274,0.00458
3741.27256,0.00444
3739.21239,0.00446
3737.15222,0.00466
3735.09205,0.00462
3733.03188,0.00413
3730.97170,0.00398
3728.91153,0.00455
3726.85136,0.00501
3724.79119,0.00448
3722.73102,0.00338
3720.67084,0.00283
3718.61067,0.00314
3716.55050,0.00354
3714.49033,0.00329
3712.43015,0.00273
3710.36998,0.00278
3708.30981,0.00323
3706.24964,0.00342
3704.18947,0.00329
3702.12929,0.00279
3700.06912,0.00221
3698.00895,0.00209
3695.94878,0.00237
3693.88861,0.00251
3691.82843,0.00230
3689.76826,0.00214
3687.70809,0.00222
3685.64792,0.00240
3683.58775,0.00260
3681.52757,0.00278
3679.46740,0.00291
3677.40723,0.00302
3675.34706,0.00327
3673.28688,0.00364
3671.22671,0.00404
3669.16654,0.00453
3667.10637,0.00472
3665.04620,0.00443
3662.98602,0.00403
3660.92585,0.00403
3658.86568,0.00451
3656.80551,0.00522
3654.74534,0.00571
3652.68516,0.00587
3650.62499,0.00650
3648.56482,0.00798
3646.50465,0.00864
3644.44447,0.00823
3642.38430,0.00764
3640.32413,0.00756
3638.26396,0.00814
3636.20379,0.00896
3634.14361,0.00962
3632.08344,0.01014
3630.02327,0.01078
3627.96310,0.01147
3625.90293,0.01184
3623.84275,0.01187
3621.78258,0.01165
3619.72241,0.01162
3617.66224,0.01240
3615.60207,0.01368
3613.54189,0.01477
3611.48172,0.01559
3609.42155,0.01619
3607.36138,0.01642
3605.30120,0.01638
3603.24103,0.01639
3601.18086,0.01656
3599.12069,0.01684
3597.06052,0.01720
3595.00034,0.01754
3592.94017,0.01776
3590.88000,0.01789
3588.81983,0.01834
3586.75966,0.01896
3584.69948,0.01928
3582.63931,0.01961
3580.57914,0.02025
3578.51897,0.02086
3576.45879,0.02119
3574.39862,0.02137
3572.33845,0.02168
3570.27828,0.02258
3568.21811,0.02393
3566.15793,0.02452
3564.09776,0.02418
3562.03759,0.02406
3559.97742,0.02446
3557.91725,0.02481
3555.85707,0.02500
3553.79690,0.02538
3551.73673,0.02602
3549.67656,0.02691
3547.61639,0.02789
3545.55621,0.02847
3543.49604,0.02838
3541.43587,0.02818
3539.37570,0.02864
3537.31552,0.02969
3535.25535,0.03036
3533.19518,0.03036
3531.13501,0.03047
3529.07484,0.03105
3527.01466,0.03175
3524.95449,0.03226
3522.89432,0.03247
3520.83415,0.03255
3518.77398,0.03259
3516.71380,0.03270
3514.65363,0.03318
3512.59346,0.03408
3510.53329,0.03495
3508.47312,0.03536
3506.41294,0.03555
3504.35277,0.03611
3502.29260,0.03696
3500.23243,0.03735
3498.17225,0.03713
3496.11208,0.03709
3494.05191,0.03757
3491.99174,0.03803
3489.93157,0.03831
3487.87139,0.03862
3485.81122,0.03886
3483.75105,0.03911
3481.69088,0.03971
3479.63071,0.04052
3477.57053,0.04115
3475.51036,0.04131
3473.45019,0.04105
3471.39002,0.04113
3469.32984,0.04186
3467.26967,0.04261
3465.20950,0.04312
3463.14933,0.04358
3461.08916,0.04390
3459.02898,0.04397
3456.96881,0.04412
3454.90864,0.04436
3452.84847,0.04457
3450.78830,0.04482
3448.72812,0.04526
3446.66795,0.04560
3444.60778,0.04560
3442.54761,0.04571
3440.48744,0.04629
3438.42726,0.04708
3436.36709,0.04775
3434.30692,0.04802
3432.24675,0.04806
3430.18657,0.04831
3428.12640,0.04866
3426.06623,0.04904
3424.00606,0.04944
3421.94589,0.04989
3419.88571,0.05046
3417.82554,0.05063
3415.76537,0.05021
3413.70520,0.05000
3411.64503,0.05052
3409.58485,0.05118
3407.52468,0.05126
3405.46451,0.05125
3403.40434,0.05167
3401.34416,0.05202
3399.28399,0.05238
3397.22382,0.05238
3395.16365,0.05238
3393.10348,0.05250
3391.04330,0.05280
3388.98313,0.05297
3386.92296,0.05294
3384.86279,0.05302
3382.80262,0.05305
3380.74244,0.05310
3378.68227,0.05357
3376.62210,0.05421
3374.56193,0.05446
3372.50176,0.05435
3370.44158,0.05429
3368.38141,0.05452
3366.32124,0.05503
3364.26107,0.05547
3362.20089,0.05557
3360.14072,0.05530
3358.08055,0.05504
3356.02038,0.05515
3353.96021,0.05536
3351.90003,0.05559
3349.83986,0.05607
3347.77969,0.05634
3345.71952,0.05596
3343.65935,0.05568
3341.59917,0.05597
3339.53900,0.05623
3337.47883,0.05610
3335.41866,0.05580
3333.35849,0.05564
3331.29831,0.05577
3329.23814,0.05597
3327.17797,0.05607
3325.11780,0.05615
3323.05762,0.05632
3320.99745,0.05650
3318.93728,0.05654
3316.87711,0.05656
3314.81694,0.05686
3312.75676,0.05731
3310.69659,0.05743
3308.63642,0.05734
3306.57625,0.05736
3304.51608,0.05753
3302.45590,0.05780
3300.39573,0.05802
3298.33556,0.05799
3296.27539,0.05790
3294.21521,0.05810
3292.15504,0.05828
3290.09487,0.05831
3288.03470,0.05835
3285.97453,0.05803
3283.91435,0.05737
3281.85418,0.05714
3279.79401,0.05737
3277.73384,0.05756
3275.67367,0.05777
3273.61349,0.05814
3271.55332,0.05841
3269.49315,0.05848
3267.43298,0.05825
3265.37281,0.05781
3263.31263,0.05762
3261.25246,0.05770
3259.19229,0.05773
3257.13212,0.05787
3255.07194,0.05810
3253.01177,0.05806
3250.95160,0.05799
3248.89143,0.05821
3246.83126,0.05846
3244.77108,0.05862
3242.71091,0.05868
3240.65074,0.05840
3238.59057,0.05813
3236.53040,0.05808
3234.47022,0.05804
3232.41005,0.05816
3230.34988,0.05851
3228.28971,0.05865
3226.22954,0.05851
3224.16936,0.05840
3222.10919,0.05822
3220.04902,0.05799
3217.98885,0.05792
3215.92867,0.05816
3213.86850,0.05840
3211.80833,0.05815
3209.74816,0.05769
3207.68799,0.05743
3205.62781,0.05734
3203.56764,0.05753
3201.50747,0.05786
3199.44730,0.05777
3197.38713,0.05728
3195.32695,0.05690
3193.26678,0.05697
3191.20661,0.05720
3189.14644,0.05710
3187.08626,0.05675
3185.02609,0.05669
3182.96592,0.05684
3180.90575,0.05683
3178.84558,0.05676
3176.78540,0.05659
3174.72523,0.05618
3172.66506,0.05601
3170.60489,0.05618
3168.54472,0.05613
3166.48454,0.05590
3164.42437,0.05574
3162.36420,0.05558
3160.30403,0.05545
3158.24386,0.05535
3156.18368,0.05522
3154.12351,0.05495
3152.06334,0.05477
3150.00317,0.05480
3147.94299,0.05474
3145.88282,0.05458
3143.82265,0.05442
3141.76248,0.05407
3139.70231,0.05352
3137.64213,0.05311
3135.58196,0.05306
3133.52179,0.05327
3131.46162,0.05339
3129.40145,0.05327
3127.34127,0.05302
3125.28110,0.05261
3123.22093,0.05230
3121.16076,0.05225
3119.10058,0.05229
3117.04041,0.05230
3114.98024,0.05208
3112.92007,0.05169
3110.85990,0.05134
3108.79972,0.05107
3106.73955,0.05094
3104.67938,0.05092
3102.61921,0.05095
3100.55904,0.05105
3098.49886,0.05109
3096.43869,0.05075
3094.37852,0.05006
3092.31835,0.04947
3090.25818,0.04929
3088.19800,0.04944
3086.13783,0.04963
3084.07766,0.04971
3082.01749,0.04969
3079.95731,0.04946
3077.89714,0.04897
3075.83697,0.04846
3073.77680,0.04809
3071.71663,0.04778
3069.65645,0.04759
3067.59628,0.04753
3065.53611,0.04746
3063.47594,0.04724
3061.41577,0.04697
3059.35559,0.04671
3057.29542,0.04637
3055.23525,0.04599
3053.17508,0.04573
3051.11491,0.04555
3049.05473,0.04536
3046.99456,0.04522
3044.93439,0.04506
3042.87422,0.04472
3040.81404,0.04433
3038.75387,0.04413
3036.69370,0.04412
3034.63353,0.04398
3032.57336,0.04367
3030.51318,0.04351
3028.45301,0.04340
3026.39284,0.04317
3024.33267,0.04292
3022.27250,0.04264
3020.21232,0.04225
3018.15215,0.04182
3016.09198,0.04164
3014.03181,0.04178
3011.97163,0.04192
3009.91146,0.04187
3007.85129,0.04176
3005.79112,0.04167
3003.73095,0.04141
3001.67077,0.04089
2999.61060,0.04037
2997.55043,0.04014
2995.49026,0.04009
2993.43009,0.04009
2991.36991,0.03998
2989.30974,0.03979
2987.24957,0.03968
2985.18940,0.03970
2983.12923,0.03968
2981.06905,0.03957
2979.00888,0.03942
2976.94871,0.03914
2974.88854,0.03889
2972.82836,0.03872
2970.76819,0.03847
2968.70802,0.03836
2966.64785,0.03849
2964.58768,0.03845
2962.52750,0.03818
2960.46733,0.03797
2958.40716,0.03790
2956.34699,0.03786
2954.28682,0.03769
2952.22664,0.03754
2950.16647,0.03739
2948.10630,0.03707
2946.04613,0.03684
2943.98596,0.03668
2941.92578,0.03643
2939.86561,0.03628
2937.80544,0.03628
2935.74527,0.03625
2933.68509,0.03608
2931.62492,0.03590
2929.56475,0.03582
2927.50458,0.03575
2925.44441,0.03551
2923.38423,0.03505
2921.32406,0.03454
2919.26389,0.03422
2917.20372,0.03419
2915.14355,0.03439
2913.08337,0.03446
2911.02320,0.03415
2908.96303,0.03379
2906.90286,0.03350
2904.84268,0.03316
2902.78251,0.03301
2900.72234,0.03292
2898.66217,0.03260
2896.60200,0.03233
2894.54182,0.03228
2892.48165,0.03203
2890.42148,0.03150
2888.36131,0.03128
2886.30114,0.03156
2884.24096,0.03171
2882.18079,0.03147
2880.12062,0.03105
2878.06045,0.03069
2876.00028,0.03039
2873.94010,0.03004
2871.87993,0.02978
2869.81976,0.02974
2867.75959,0.02977
2865.69941,0.02972
2863.63924,0.02941
2861.57907,0.02890
2859.51890,0.02844
2857.45873,0.02825
2855.39855,0.02822
2853.33838,0.02804
2851.27821,0.02789
2849.21804,0.02772
2847.15787,0.02723
2845.09769,0.02677
2843.03752,0.02671
2840.97735,0.02684
2838.91718,0.02670
2836.85700,0.02628
2834.79683,0.02598
2832.73666,0.02574
2830.67649,0.02537
2828.61632,0.02516
2826.55614,0.02524
2824.49597,0.02528
2822.43580,0.02502
2820.37563,0.02465
2818.31546,0.02448
2816.25528,0.02451
2814.19511,0.02448
2812.13494,0.02442
2810.07477,0.02425
2808.01460,0.02392
2805.95442,0.02365
2803.89425,0.02358
2801.83408,0.02350
2799.77391,0.02334
2797.71373,0.02314
2795.65356,0.02283
2793.59339,0.02244
2791.53322,0.02222
2789.47305,0.02216
2787.41287,0.02203
2785.35270,0.02191
2783.29253,0.02184
2781.23236,0.02179
2779.17219,0.02188
2777.11201,0.02199
2775.05184,0.02189
2772.99167,0.02158
2770.93150,0.02127
2768.87133,0.02121
2766.81115,0.02124
2764.75098,0.02107
2762.69081,0.02094
2760.63064,0.02104
2758.57046,0.02105
2756.51029,0.02085
2754.45012,0.02060
2752.38995,0.02033
2750.32978,0.02028
2748.26960,0.02035
2746.20943,0.02024
2744.14926,0.02005
2742.08909,0.01982
2740.02892,0.01945
2737.96874,0.01911
2735.90857,0.01893
2733.84840,0.01875
2731.78823,0.01856
2729.72805,0.01859
2727.66788,0.01874
2725.60771,0.01868
2723.54754,0.01839
2721.48737,0.01814
2719.42719,0.01803
2717.36702,0.01788
2715.30685,0.01769
2713.24668,0.01777
2711.18651,0.01798
2709.12633,0.01786
2707.06616,0.01763
2705.00599,0.01770
2702.94582,0.01772
2700.88565,0.01744
2698.82547,0.01720
2696.76530,0.01720
2694.70513,0.01721
2692.64496,0.01696
2690.58478,0.01664
2688.52461,0.01657
2686.46444,0.01669
2684.40427,0.01657
2682.34410,0.01626
2680.28392,0.01606
2678.22375,0.01606
2676.16358,0.01615
2674.10341,0.01617
2672.04324,0.01594
2669.98306,0.01564
2667.92289,0.01555
2665.86272,0.01568
2663.80255,0.01577
2661.74238,0.01567
2659.68220,0.01541
2657.62203,0.01521
2655.56186,0.01513
2653.50169,0.01495
2651.44151,0.01471
2649.38134,0.01465
2647.32117,0.01467
2645.26100,0.01477
2643.20083,0.01489
2641.14065,0.01470
2639.08048,0.01429
2637.02031,0.01410
2634.96014,0.01410
2632.89997,0.01414
2630.83979,0.01409
2628.77962,0.01395
2626.71945,0.01378
2624.65928,0.01353
2622.59910,0.01330
2620.53893,0.01317
2618.47876,0.01296
2616.41859,0.01277
2614.35842,0.01299
2612.29824,0.01344
2610.23807,0.01368
2608.17790,0.01351
2606.11773,0.01312
2604.05756,0.01272
2601.99738,0.01252
2599.93721,0.01275
2597.87704,0.01300
2595.81687,0.01292
2593.75670,0.01280
2591.69652,0.01272
2589.63635,0.01262
2587.57618,0.01246
2585.51601,0.01221
2583.45583,0.01201
2581.39566,0.01181
2579.33549,0.01148
2577.27532,0.01157
2575.21515,0.01195
2573.15497,0.01202
2571.09480,0.01198
2569.03463,0.01199
2566.97446,0.01184
2564.91429,0.01167
2562.85411,0.01169
2560.79394,0.01173
2558.73377,0.01183
2556.67360,0.01199
2554.61342,0.01182
2552.55325,0.01147
2550.49308,0.01130
2548.43291,0.01114
2546.37274,0.01118
2544.31256,0.01158
2542.25239,0.01198
2540.19222,0.01223
2538.13205,0.01236
2536.07188,0.01221
2534.01170,0.01174
2531.95153,0.01143
2529.89136,0.01148
2527.83119,0.01140
2525.77102,0.01102
2523.71084,0.01083
2521.65067,0.01104
2519.59050,0.01120
2517.53033,0.01110
2515.47015,0.01103
2513.40998,0.01133
2511.34981,0.01181
2509.28964,0.01207
2507.22947,0.01219
2505.16929,0.01230
2503.10912,0.01235
2501.04895,0.01238
2498.98878,0.01253
2496.92861,0.01239
2494.86843,0.01165
2492.80826,0.01112
2490.74809,0.01137
2488.68792,0.01185
2486.62775,0.01205
2484.56757,0.01228
2482.50740,0.01257
2480.44723,0.01254
2478.38706,0.01243
2476.32688,0.01252
2474.26671,0.01251
2472.20654,0.01228
2470.14637,0.01212
2468.08620,0.01214
2466.02602,0.01226
2463.96585,0.01233
2461.90568,0.01243
2459.84551,0.01257
2457.78534,0.01266
2455.72516,0.01271
2453.66499,0.01261
2451.60482,0.01270
2449.54465,0.01309
2447.48447,0.01321
2445.42430,0.01305
2443.36413,0.01275
2441.30396,0.01251
2439.24379,0.01267
2437.18361,0.01284
2435.12344,0.01251
2433.06327,0.01210
2431.00310,0.01216
2428.94293,0.01240
2426.88275,0.01245
2424.82258,0.01250
2422.76241,0.01261
2420.70224,0.01233
2418.64207,0.01172
2416.58189,0.01175
2414.52172,0.01248
2412.46155,0.01298
2410.40138,0.01285
2408.34120,0.01241
2406.28103,0.01197
2404.22086,0.01171
2402.16069,0.01180
2400.10052,0.01209
2398.04034,0.01043
2395.98017,0.01043
2393.92000,0.01127
2391.85983,0.01204
2389.79966,0.01293
2387.73948,0.01406
2385.67931,0.01495
2383.61914,0.01529
2381.55897,0.01535
2379.49880,0.01565
2377.43862,0.01604
2375.37845,0.01637
2373.31828,0.01594
2371.25811,0.01472
2369.19793,0.01340
2367.13776,0.01126
2365.07759,0.00888
2363.01742,0.00780
2360.95725,0.00530
2358.89707,0.00532
2356.83690,0.00955
2354.77673,0.01513
2352.71656,0.01830
2350.65639,0.01785
2348.59621,0.01767
2346.53604,0.02008
2344.47587,0.01688
2342.41570,0.01413
2340.35552,0.01517
2338.29535,0.01612
2336.23518,0.01620
2334.17501,0.01584
2332.11484,0.01564
2330.05466,0.01627
2327.99449,0.01805
2325.93432,0.01848
2323.87415,0.01788
2321.81398,0.01660
2319.75380,0.01637
2317.69363,0.01611
2315.63346,0.01577
2313.57329,0.01510
2311.51312,0.01500
2309.45294,0.01599
2307.39277,0.01664
2305.33260,0.01647
2303.27243,0.01607
2301.21225,0.01580
2299.15208,0.01551
2297.09191,0.01555
2295.03174,0.01586
2292.97157,0.01584
2290.91139,0.01541
2288.85122,0.01496
2286.79105,0.01451
2284.73088,0.01366
2282.67071,0.01242
2280.61053,0.01159
2278.55036,0.01149
2276.49019,0.01159
2274.43002,0.01152
2272.36984,0.01137
2270.30967,0.01117
2268.24950,0.01089
2266.18933,0.01061
2264.12916,0.01064
2262.06898,0.01105
2260.00881,0.01123
2257.94864,0.01100
2255.88847,0.01126
2253.82830,0.01217
2251.76812,0.01257
2249.70795,0.01163
2247.64778,0.01118
2245.58761,0.01128
2243.52744,0.01145
2241.46726,0.01122
2239.40709,0.01073
2237.34692,0.01038
2235.28675,0.00998
2233.22657,0.00930
2231.16640,0.00914
2229.10623,0.00971
2227.04606,0.00994
2224.98589,0.00921
2222.92571,0.00819
2220.86554,0.00812
2218.80537,0.00886
2216.74520,0.00923
2214.68503,0.00903
2212.62485,0.00880
2210.56468,0.00882
2208.50451,0.00891
2206.44434,0.00914
2204.38417,0.00987
2202.32399,0.01005
2200.26382,0.00925
2198.20365,0.00887
2196.14348,0.00918
2194.08330,0.00960
2192.02313,0.00999
2189.96296,0.01023
2187.90279,0.00995
2185.84262,0.00883
2183.78244,0.00815
2181.72227,0.00878
2179.66210,0.00943
2177.60193,0.00948
2175.54176,0.00925
2173.48158,0.00921
2171.42141,0.00951
2169.36124,0.00897
2167.30107,0.00806
2165.24089,0.00867
2163.18072,0.00855
2161.12055,0.00539
2159.06038,0.00209
2157.00021,0.00045
2154.94003,0.00000
2152.87986,0.00146
2150.81969,0.00451
2148.75952,0.00703
2146.69935,0.00787
2144.63917,0.00784
2142.57900,0.00758
2140.51883,0.00717
2138.45866,0.00651
2136.39849,0.00591
2134.33831,0.00605
2132.27814,0.00661
2130.21797,0.00685
2128.15780,0.00700
2126.09762,0.00763
2124.03745,0.00834
2121.97728,0.00838
2119.91711,0.00824
2117.85694,0.00838
2115.79676,0.00826
2113.73659,0.00790
2111.67642,0.00759
2109.61625,0.00733
2107.55608,0.00720
2105.49590,0.00701
2103.43573,0.00695
2101.37556,0.00752
2099.31539,0.00807
2097.25521,0.00821
2095.19504,0.00796
2093.13487,0.00784
2091.07470,0.00784
2089.01453,0.00765
2086.95435,0.00687
2084.89418,0.00609
2082.83401,0.00643
2080.77384,0.00713
2078.71367,0.00693
2076.65349,0.00649
2074.59332,0.00657
2072.53315,0.00646
2070.47298,0.00606
2068.41281,0.00626
2066.35263,0.00714
2064.29246,0.00766
2062.23229,0.00726
2060.17212,0.00687
2058.11194,0.00684
2056.05177,0.00649
2053.99160,0.00597
2051.93143,0.00519
2049.87126,0.00354
2047.81108,0.00239
2045.75091,0.00306
2043.69074,0.00382
2041.63057,0.00360
2039.57040,0.00377
2037.51022,0.00383
2035.45005,0.00250
2033.38988,0.00176
2031.32971,0.00281
2029.26954,0.00360
2027.20936,0.00340
2025.14919,0.00313
2023.08902,0.00312
2021.02885,0.00335
2018.96867,0.00304
2016.90850,0.00186
2014.84833,0.00087
2012.78816,0.00101
2010.72799,0.00203
2008.66781,0.00242
2006.60764,0.00141
2004.54747,0.00065
2002.48730,0.00142
2000.42713,0.00283
1998.36695,0.00411
1996.30678,0.00553
1994.24661,0.00643
1992.18644,0.00605
1990.12626,0.00540
1988.06609,0.00493
1986.00592,0.00420
1983.94575,0.00338
1981.88558,0.00231
1979.82540,0.00167
1977.76523,0.00268
1975.70506,0.00341
1973.64489,0.00175
1971.58472,0.00040
1969.52454,0.00145
1967.46437,0.00227
1965.40420,0.00169
1963.34403,0.00194
1961.28386,0.00314
1959.22368,0.00354
1957.16351,0.00280
1955.10334,0.00219
1953.04317,0.00262
1950.98299,0.00355
1948.92282,0.00436
1946.86265,0.00470
1944.80248,0.00424
1942.74231,0.00355
1940.68213,0.00337
1938.62196,0.00345
1936.56179,0.00304
1934.50162,0.00241
1932.44145,0.00213
1930.38127,0.00215
1928.32110,0.00264
1926.26093,0.00321
1924.20076,0.00329
1922.14059,0.00341
1920.08041,0.00365
1918.02024,0.00362
1915.96007,0.00356
1913.89990,0.00347
1911.83972,0.00310
1909.77955,0.00298
1907.71938,0.00348
1905.65921,0.00407
1903.59904,0.00456
1901.53886,0.00472
1899.47869,0.00440
1897.41852,0.00405
1895.35835,0.00375
1893.29818,0.00339
1891.23800,0.00334
1889.17783,0.00360
1887.11766,0.00372
1885.05749,0.00359
1882.99731,0.00332
1880.93714,0.00300
1878.87697,0.00286
1876.81680,0.00283
1874.75663,0.00271
1872.69645,0.00273
1870.63628,0.00310
1868.57611,0.00351
1866.51594,0.00347
1864.45577,0.00314
1862.39559,0.00297
1860.33542,0.00311
1858.27525,0.00359
1856.21508,0.00406
1854.15491,0.00394
1852.09473,0.00331
1850.03456,0.00288
1847.97439,0.00294
1845.91422,0.00328
1843.85404,0.00359
1841.79387,0.00372
1839.73370,0.00378
1837.67353,0.00395
1835.61336,0.00422
1833.55318,0.00424
1831.49301,0.00380
1829.43284,0.00328
1827.37267,0.00309
1825.31250,0.00306
1823.25232,0.00292
1821.19215,0.00285
1819.13198,0.00311
1817.07181,0.00345
1815.01163,0.00367
1812.95146,0.00382
1810.89129,0.00382
1808.83112,0.00379
1806.77095,0.00400
1804.71077,0.00439
1802.65060,0.00477
1800.59043,0.00491
1798.53026,0.00473
1796.47009,0.00441
1794.40991,0.00411
1792.34974,0.00419
1790.28957,0.00471
1788.22940,0.00509
1786.16923,0.00516
1784.10905,0.00509
1782.04888,0.00494
1779.98871,0.00479
1777.92854,0.00463
1775.86836,0.00440
1773.80819,0.00429
1771.74802,0.00471
1769.68785,0.00545
1767.62768,0.00576
1765.56750,0.00570
1763.50733,0.00576
1761.44716,0.00604
1759.38699,0.00626
1757.32682,0.00635
1755.26664,0.00649
1753.20647,0.00678
1751.14630,0.00716
1749.08613,0.00763
1747.02596,0.00825
1744.96578,0.00878
1742.90561,0.00880
1740.84544,0.00842
1738.78527,0.00825
1736.72509,0.00849
1734.66492,0.00897
1732.60475,0.00930
1730.54458,0.00915
1728.48441,0.00895
1726.42423,0.00901
1724.36406,0.00923
1722.30389,0.00929
1720.24372,0.00905
1718.18355,0.00893
1716.12337,0.00947
1714.06320,0.01011
1712.00303,0.01060
1709.94286,0.01093
1707.88268,0.01110
1705.82251,0.01144
1703.76234,0.01195
1701.70217,0.01228
1699.64200,0.01278
1697.58182,0.01371
1695.52165,0.01469
1693.46148,0.01553
1691.40131,0.01638
1689.34114,0.01714
1687.28096,0.01728
1685.22079,0.01715
1683.16062,0.01821
1681.10045,0.01989
1679.04028,0.02082
1676.98010,0.02119
1674.91993,0.02160
1672.85976,0.02201
1670.79959,0.02235
1668.73941,0.02316
1666.67924,0.02423
1664.61907,0.02501
1662.55890,0.02572
1660.49873,0.02661
1658.43855,0.02729
1656.37838,0.02742
1654.31821,0.02711
1652.25804,0.02710
1650.19787,0.02753
1648.13769,0.02799
1646.07752,0.02811
1644.01735,0.02799
1641.95718,0.02781
1639.89701,0.02748
1637.83683,0.02681
1635.77666,0.02616
1633.71649,0.02593
1631.65632,0.02582
1629.59614,0.02542
1627.53597,0.02476
1625.47580,0.02401
1623.41563,0.02338
1621.35546,0.02306
1619.29528,0.02250
1617.23511,0.02160
1615.17494,0.02117
1613.11477,0.02126
1611.05460,0.02111
1608.99442,0.02055
1606.93425,0.01994
1604.87408,0.01942
1602.81391,0.01895
1600.75373,0.01863
1598.69356,0.01842
1596.63339,0.01812
1594.57322,0.01771
1592.51305,0.01736
1590.45287,0.01707
1588.39270,0.01675
1586.33253,0.01647
1584.27236,0.01633
1582.21219,0.01628
1580.15201,0.01611
1578.09184,0.01581
1576.03167,0.01555
1573.97150,0.01545
1571.91133,0.01519
1569.85115,0.01476
1567.79098,0.01472
1565.73081,0.01490
1563.67064,0.01478
1561.61046,0.01417
1559.55029,0.01365
1557.49012,0.01432
1555.42995,0.01532
1553.36978,0.01574
1551.30960,0.01561
1549.24943,0.01527
1547.18926,0.01495
1545.12909,0.01463
1543.06892,0.01405
1541.00874,0.01310
1538.94857,0.01265
1536.88840,0.01298
1534.82823,0.01317
1532.76805,0.01294
1530.70788,0.01271
1528.64771,0.01249
1526.58754,0.01227
1524.52737,0.01207
1522.46719,0.01177
1520.40702,0.01150
1518.34685,0.01146
1516.28668,0.01162
1514.22651,0.01178
1512.16633,0.01176
1510.10616,0.01139
1508.04599,0.01040
1505.98582,0.00915
1503.92565,0.00868
1501.86547,0.00883
1499.80530,0.00871
1497.74513,0.00822
1495.68496,0.00780
1493.62478,0.00751
1491.56461,0.00726
1489.50444,0.00717
1487.44427,0.00712
1485.38410,0.00700
1483.32392,0.00694
1481.26375,0.00698
1479.20358,0.00696
1477.14341,0.00695
1475.08324,0.00713
1473.02306,0.00744
1470.96289,0.00762
1468.90272,0.00756
1466.84255,0.00734
1464.78238,0.00728
1462.72220,0.00755
1460.66203,0.00783
1458.60186,0.00792
1456.54169,0.00777
1454.48151,0.00743
1452.42134,0.00741
1450.36117,0.00759
1448.30100,0.00762
1446.24083,0.00745
1444.18065,0.00724
1442.12048,0.00714
1440.06031,0.00715
1438.00014,0.00728
1435.93997,0.00746
1433.87979,0.00756
1431.81962,0.00760
1429.75945,0.00761
1427.69928,0.00763
1425.63910,0.00778
1423.57893,0.00818
1421.51876,0.00874
1419.45859,0.00932
1417.39842,0.00958
1415.33824,0.00932
1413.27807,0.00902
1411.21790,0.00902
1409.15773,0.00905
1407.09756,0.00888
1405.03738,0.00865
1402.97721,0.00854
1400.91704,0.00868
1398.85687,0.00897
1396.79670,0.00894
1394.73652,0.00838
1392.67635,0.00777
1390.61618,0.00753
1388.55601,0.00752
1386.49583,0.00736
1384.43566,0.00706
1382.37549,0.00681
1380.31532,0.00667
1378.25515,0.00660
1376.19497,0.00650
1374.13480,0.00636
1372.07463,0.00624
1370.01446,0.00612
1367.95429,0.00607
1365.89411,0.00613
1363.83394,0.00623
1361.77377,0.00610
1359.71360,0.00559
1357.65343,0.00501
1355.59325,0.00471
1353.53308,0.00469
1351.47291,0.00462
1349.41274,0.00440
1347.35256,0.00420
1345.29239,0.00411
1343.23222,0.00415
1341.17205,0.00440
1339.11188,0.00468
1337.05170,0.00452
1334.99153,0.00397
1332.93136,0.00353
1330.87119,0.00355
1328.81102,0.00385
1326.75084,0.00410
1324.69067,0.00415
1322.63050,0.00407
1320.57033,0.00403
1318.51015,0.00412
1316.44998,0.00427
1314.38981,0.00432
1312.32964,0.00424
1310.26947,0.00422
1308.20929,0.00430
1306.14912,0.00429
1304.08895,0.00418
1302.02878,0.00407
1299.96861,0.00404
1297.90843,0.00404
1295.84826,0.00396
1293.78809,0.00399
1291.72792,0.00436
1289.66775,0.00471
1287.60757,0.00471
1285.54740,0.00461
1283.48723,0.00458
1281.42706,0.00458
1279.36688,0.00461
1277.30671,0.00467
1275.24654,0.00479
1273.18637,0.00496
1271.12620,0.00513
1269.06602,0.00513
1267.00585,0.00498
1264.94568,0.00491
1262.88551,0.00510
1260.82534,0.00536
1258.76516,0.00546
1256.70499,0.00541
1254.64482,0.00545
1252.58465,0.00554
1250.52447,0.00552
1248.46430,0.00545
1246.40413,0.00546
1244.34396,0.00545
1242.28379,0.00525
1240.22361,0.00492
1238.16344,0.00469
1236.10327,0.00462
1234.04310,0.00457
1231.98293,0.00440
1229.92275,0.00417
1227.86258,0.00388
1225.80241,0.00353
1223.74224,0.00312
1221.68207,0.00276
1219.62189,0.00256
1217.56172,0.00236
1215.50155,0.00218
1213.44138,0.00212
1211.38120,0.00195
1209.32103,0.00162
1207.26086,0.00129
1205.20069,0.00105
1203.14052,0.00076
1201.08034,0.00036
1199.02017,0.00023
1196.96000,0.00033
1194.89983,0.00031
1192.83966,0.00013
1190.77948,0.00000
1188.71931,0.00004
1186.65914,0.00022
1184.59897,0.00042
1182.53880,0.00067
1180.47862,0.00107
1178.41845,0.00125
1176.35828,0.00116
1174.29811,0.00125
1172.23793,0.00153
1170.17776,0.00183
1168.11759,0.00226
1166.05742,0.00280
1163.99725,0.00336
1161.93707,0.00380
1159.87690,0.00407
1157.81673,0.00459
1155.75656,0.00552
1153.69639,0.00645
1151.63621,0.00721
1149.57604,0.00796
1147.51587,0.00866
1145.45570,0.00915
1143.39552,0.00972
1141.33535,0.01071
1139.27518,0.01196
1137.21501,0.01320
1135.15484,0.01452
1133.09466,0.01614
1131.03449,0.01777
1128.97432,0.01908
1126.91415,0.02033
1124.85398,0.02194
1122.79380,0.02392
1120.73363,0.02603
1118.67346,0.02814
1116.61329,0.03002
1114.55312,0.03163
1112.49294,0.03344
1110.43277,0.03553
1108.37260,0.03750
1106.31243,0.03943
1104.25225,0.04155
1102.19208,0.04376
1100.13191,0.04564
1098.07174,0.04709
1096.01157,0.04851
1093.95139,0.04995
1091.89122,0.05130
1089.83105,0.05272
1087.77088,0.05413
1085.71071,0.05549
1083.65053,0.05692
1081.59036,0.05839
1079.53019,0.05984
1077.47002,0.06123
1075.40985,0.06246
1073.34967,0.06333
1071.28950,0.06376
1069.22933,0.06408
1067.16916,0.06448
1065.10898,0.06452
1063.04881,0.06401
1060.98864,0.06326
1058.92847,0.06259
1056.86830,0.06169
1054.80812,0.06013
1052.74795,0.05826
1050.68778,0.05632
1048.62761,0.05410
1046.56744,0.05162
1044.50726,0.04901
1042.44709,0.04623
1040.38692,0.04336
1038.32675,0.04078
1036.26657,0.03855
1034.20640,0.03628
1032.14623,0.03380
1030.08606,0.03152
1028.02589,0.02984
1025.96571,0.02846
1023.90554,0.02702
1021.84537,0.02568
1019.78520,0.02457
1017.72503,0.02379
1015.66485,0.02336
1013.60468,0.02308
1011.54451,0.02291
1009.48434,0.02295
1007.42417,0.02328
1005.36399,0.02406
1003.30382,0.02520
1001.24365,0.02642
999.18348,0.02760
997.12330,0.02873
995.06313,0.03008
993.00296,0.03196
990.94279,0.03379
988.88262,0.03495
986.82244,0.03573
984.76227,0.03622
982.70210,0.03640
980.64193,0.03656
978.58176,0.03634
976.52158,0.03532
974.46141,0.03383
972.40124,0.03249
970.34107,0.03131
968.28089,0.02973
966.22072,0.02781
964.16055,0.02601
962.10038,0.02434
960.04021,0.02264
957.98003,0.02091
955.91986,0.01923
953.85969,0.01759
951.79952,0.01597
949.73935,0.01451
947.67917,0.01332
945.61900,0.01217
943.55883,0.01095
941.49866,0.00966
939.43849,0.00860
937.37831,0.00786
935.31814,0.00696
933.25797,0.00609
931.19780,0.00565
929.13762,0.00531
927.07745,0.00489
925.01728,0.00457
922.95711,0.00438
920.89694,0.00403
918.83676,0.00349
916.77659,0.00296
914.71642,0.00258
912.65625,0.00224
910.59608,0.00190
908.53590,0.00190
906.47573,0.00240
904.41556,0.00311
902.35539,0.00362
900.29522,0.00376
898.23504,0.00359
896.17487,0.00330
894.11470,0.00339
892.05453,0.00421
889.99435,0.00518
887.93418,0.00574
885.87401,0.00613
883.81384,0.00664
881.75367,0.00742
879.69349,0.00838
877.63332,0.00916
875.57315,0.00978
873.51298,0.01036
871.45281,0.01075
869.39263,0.01124
867.33246,0.01190
865.27229,0.01230
863.21212,0.01233
861.15194,0.01236
859.09177,0.01286
857.03160,0.01353
854.97143,0.01351
852.91126,0.01302
850.85108,0.01263
848.79091,0.01222
846.73074,0.01183
844.67057,0.01145
842.61040,0.01085
840.55022,0.01025
838.49005,0.00981
836.42988,0.00939
834.36971,0.00884
832.30954,0.00841
830.24936,0.00851
828.18919,0.00871
826.12902,0.00837
824.06885,0.00768
822.00867,0.00699
819.94850,0.00651
817.88833,0.00603
815.82816,0.00539
813.76799,0.00511
811.70781,0.00559
809.64764,0.00625
807.58747,0.00609
805.52730,0.00539
803.46713,0.00478
801.40695,0.00413
799.34678,0.00347
797.28661,0.00270
795.22644,0.00213
793.16627,0.00252
791.10609,0.00329
789.04592,0.00359
786.98575,0.00347
784.92558,0.00332
782.86540,0.00339
780.80523,0.00341
778.74506,0.00335
776.68489,0.00348
774.62472,0.00359
772.56454,0.00337
770.50437,0.00274
768.44420,0.00239
766.38403,0.00267
764.32386,0.00295
762.26368,0.00335
760.20351,0.00360
758.14334,0.00293
756.08317,0.00220
754.02299,0.00243
751.96282,0.00311
749.90265,0.00358
747.84248,0.00354
745.78231,0.00319
743.72213,0.00302
741.66196,0.00281
739.60179,0.00256
737.54162,0.00260
735.48145,0.00288
733.42127,0.00339
731.36110,0.00370
729.30093,0.00356
727.24076,0.00349
725.18059,0.00381
723.12041,0.00515
721.06024,0.00553
719.00007,0.00512
716.93990,0.00436
714.87972,0.00355
712.81955,0.00347
710.75938,0.00432
708.69921,0.00570
706.63904,0.00656
704.57886,0.00648
702.51869,0.00639
700.45852,0.00671
698.39835,0.00720
696.33818,0.00782
694.27800,0.00809
692.21783,0.00750
690.15766,0.00636
688.09749,0.00529
686.03731,0.00462
683.97714,0.00489
681.91697,0.00585
679.85680,0.00589
677.79663,0.00519
675.73645,0.00521
673.67628,0.00407
671.61611,0.00000
669.55594,0.00292
667.49577,0.00982
665.43559,0.00299
663.37542,0.00529
661.31525,0.00733
659.25508,0.00582
657.19491,0.00373
655.13473,0.00266
653.07456,0.00239
651.01439,0.00222
648.95422,0.00238
646.89404,0.00347
644.83387,0.00545
642.77370,0.00655
640.71353,0.00614
638.65336,0.00503
636.59318,0.00395
634.53301,0.00372
632.47284,0.00408
630.41267,0.00349
628.35250,0.00246
626.29232,0.00198
624.23215,0.00127
622.17198,0.00069
620.11181,0.00268
618.05164,0.00620
615.99146,0.00627
613.93129,0.00223
611.87112,-0.00076
609.81095,-0.00113
607.75077,-0.00152
605.69060,-0.00199
603.63043,-0.00089
601.57026,0.00011
599.51009,0.00000
