3996.73391,0.00004
3994.67373,0.00000
3992.61356,0.00021
3990.55339,0.00022
3988.49322,0.00013
3986.43305,0.00039
3984.37287,0.00065
3982.31270,0.00062
3980.25253,0.00072
3978.19236,0.00106
3976.13219,0.00102
3974.07201,0.00044
3972.01184,0.00005
3969.95167,0.00017
3967.89150,0.00049
3965.83133,0.00085
3963.77115,0.00119
3961.71098,0.00124
3959.65081,0.00100
3957.59064,0.00082
3955.53046,0.00079
3953.47029,0.00086
3951.41012,0.00111
3949.34995,0.00147
3947.28978,0.00154
3945.22960,0.00130
3943.16943,0.00116
3941.10926,0.00106
3939.04909,0.00084
3936.98892,0.00077
3934.92874,0.00093
3932.86857,0.00111
3930.80840,0.00124
3928.74823,0.00137
3926.68805,0.00149
3924.62788,0.00157
3922.56771,0.00158
3920.50754,0.00146
3918.44737,0.00134
3916.38719,0.00123
3914.32702,0.00114
3912.26685,0.00122
3910.20668,0.00133
3908.14651,0.00132
3906.08633,0.00146
3904.02616,0.00185
3901.96599,0.00189
3899.90582,0.00154
3897.84565,0.00145
3895.78547,0.00163
3893.72530,0.00179
3891.66513,0.00180
3889.60496,0.00158
3887.54478,0.00152
3885.48461,0.00191
3883.42444,0.00239
3881.36427,0.00247
3879.30410,0.00200
3877.24392,0.00122
3875.18375,0.00086
3873.12358,0.00135
3871.06341,0.00211
3869.00324,0.00229
3866.94306,0.00204
3864.88289,0.00205
3862.82272,0.00250
3860.76255,0.00294
3858.70237,0.00298
3856.64220,0.00301
3854.58203,0.00316
3852.52186,0.00283
3850.46169,0.00205
3848.40151,0.00174
3846.34134,0.00164
3844.28117,0.00164
3842.22100,0.00214
3840.16083,0.00263
3838.10065,0.00243
3836.04048,0.00188
3833.98031,0.00146
3831.92014,0.00122
3829.85997,0.00116
3827.79979,0.00143
3825.73962,0.00197
3823.67945,0.00242
3821.61928,0.00253
3819.55910,0.00235
3817.49893,0.00196
3815.43876,0.00155
3813.37859,0.00117
3811.31842,0.00090
3809.25824,0.00074
3807.19807,0.00076
3805.13790,0.00105
3803.07773,0.00133
3801.01756,0.00128
3798.95738,0.00104
3796.89721,0.00102
3794.83704,0.00120
3792.77687,0.00143
3790.71670,0.00159
3788.65652,0.00145
3786.59635,0.00108
3784.53618,0.00091
3782.47601,0.00095
3780.41583,0.00102
3778.35566,0.00128
3776.29549,0.00169
3774.23532,0.00202
3772.17515,0.00204
3770.11497,0.00169
3768.05480,0.00136
3765.99463,0.00134
3763.93446,0.00140
3761.87429,0.00148
3759.81411,0.00181
3757.75394,0.00246
3755.69377,0.00306
3753.63360,0.00314
3751.57342,0.00264
3749.51325,0.00276
3747.45308,0.00407
3745.39291,0.00532
3743.33274,0.00519
3741.27256,0.00422
3739.21239,0.00372
3737.15222,0.00387
3735.09205,0.00390
3733.03188,0.00319
3730.97170,0.00287
3728.91153,0.00358
3726.85136,0.00417
3724.79119,0.00385
3722.73102,0.00339
3720.67084,0.00319
3718.61067,0.00290
3716.55050,0.00272
3714.49033,0.00266
3712.43015,0.00235
3710.36998,0.00216
3708.30981,0.00252
3706.24964,0.00322
3704.18947,0.00363
3702.12929,0.00330
3700.06912,0.00257
3698.00895,0.00216
3695.94878,0.00219
3693.88861,0.00224
3691.82843,0.00198
3689.76826,0.00180
3687.70809,0.00211
3685.64792,0.00252
3683.58775,0.00275
3681.52757,0.00296
3679.46740,0.00325
3677.40723,0.00338
3675.34706,0.00323
3673.28688,0.00302
3671.22671,0.00298
3669.16654,0.00346
3667.10637,0.00410
3665.04620,0.00425
3662.98602,0.00414
3660.92585,0.00428
3658.86568,0.00472
3656.80551,0.00511
3654.74534,0.00521
3652.68516,0.00525
3650.62499,0.00586
3648.56482,0.00703
3646.50465,0.00750
3644.44447,0.00735
3642.38430,0.00702
3640.32413,0.00671
3638.26396,0.00698
3636.20379,0.00797
3634.14361,0.00907
3632.08344,0.00995
3630.02327,0.01078
3627.96310,0.01130
3625.90293,0.01116
3623.84275,0.01099
3621.78258,0.01102
3619.72241,0.01120
3617.66224,0.01167
3615.60207,0.01242
3613.54189,0.01337
3611.48172,0.01438
3609.42155,0.01529
3607.36138,0.01583
3605.30120,0.01587
3603.24103,0.01571
3601.18086,0.01569
3599.12069,0.01588
3597.06052,0.01612
3595.00034,0.01648
3592.94017,0.01715
3590.88000,0.01789
3588.81983,0.01848
3586.75966,0.01875
3584.69948,0.01882
3582.63931,0.01915
3580.57914,0.01957
3578.51897,0.01967
3576.45879,0.01977
3574.39862,0.02003
3572.33845,0.02018
3570.27828,0.02055
3568.21811,0.02146
3566.15793,0.02216
3564.09776,0.02223
3562.03759,0.02239
3559.97742,0.02295
3557.91725,0.02362
3555.85707,0.02406
3553.79690,0.02436
3551.73673,0.02484
3549.67656,0.02544
3547.61639,0.02603
3545.55621,0.02635
3543.49604,0.02617
3541.43587,0.02594
3539.37570,0.02634
3537.31552,0.02729
3535.25535,0.02810
3533.19518,0.02834
3531.13501,0.02841
3529.07484,0.02887
3527.01466,0.02963
3524.95449,0.03015
3522.89432,0.03033
3520.83415,0.03044
3518.77398,0.03047
3516.71380,0.03045
3514.65363,0.03065
3512.59346,0.03132
3510.53329,0.03226
3508.47312,0.03292
3506.41294,0.03303
3504.35277,0.03311
3502.29260,0.03375
3500.23243,0.03432
3498.17225,0.03435
3496.11208,0.03447
3494.05191,0.03499
3491.99174,0.03552
3489.93157,0.03598
3487.87139,0.03652
3485.81122,0.03706
3483.75105,0.03730
3481.69088,0.03734
3479.63071,0.03757
3477.57053,0.03787
3475.51036,0.03795
3473.45019,0.03799
3471.39002,0.03842
3469.32984,0.03931
3467.26967,0.04008
3465.20950,0.04039
3463.14933,0.04055
3461.08916,0.04078
3459.02898,0.04112
3456.96881,0.04152
3454.90864,0.04169
3452.84847,0.04168
3450.78830,0.04172
3448.72812,0.04165
3446.66795,0.04169
3444.60778,0.04219
3442.54761,0.04288
3440.48744,0.04353
3438.42726,0.04413
3436.36709,0.04467
3434.30692,0.04492
3432.24675,0.04495
3430.18657,0.04519
3428.12640,0.04557
3426.06623,0.04592
3424.00606,0.04626
3421.94589,0.04660
3419.88571,0.04707
3417.82554,0.04753
3415.76537,0.04750
3413.70520,0.04710
3411.64503,0.04710
3409.58485,0.04763
3407.52468,0.04805
3405.46451,0.04831
3403.40434,0.04858
3401.34416,0.04855
3399.28399,0.04877
3397.22382,0.04881
3395.16365,0.04883
3393.10348,0.04915
3391.04330,0.04967
3388.98313,0.04991
3386.92296,0.05008
3384.86279,0.05061
3382.80262,0.05092
3380.74244,0.05059
3378.68227,0.05046
3376.62210,0.05095
3374.56193,0.05116
3372.50176,0.05096
3370.44158,0.05113
3368.38141,0.05163
3366.32124,0.05199
3364.26107,0.05205
3362.20089,0.05202
3360.14072,0.05199
3358.08055,0.05185
3356.02038,0.05186
3353.96021,0.05208
3351.90003,0.05233
3349.83986,0.05254
3347.77969,0.05257
3345.71952,0.05243
3343.65935,0.05229
3341.59917,0.05222
3339.53900,0.05228
3337.47883,0.05240
3335.41866,0.05241
3333.35849,0.05245
3331.29831,0.05275
3329.23814,0.05314
3327.17797,0.05353
3325.11780,0.05381
3323.05762,0.05369
3320.99745,0.05348
3318.93728,0.05352
3316.87711,0.05377
3314.81694,0.05396
3312.75676,0.05389
3310.69659,0.05373
3308.63642,0.05349
3306.57625,0.05329
3304.51608,0.05353
3302.45590,0.05410
3300.39573,0.05460
3298.33556,0.05474
3296.27539,0.05462
3294.21521,0.05453
3292.15504,0.05446
3290.09487,0.05441
3288.03470,0.05443
3285.97453,0.05449
3283.91435,0.05464
3281.85418,0.05486
3279.79401,0.05499
3277.73384,0.05496
3275.67367,0.05505
3273.61349,0.05543
3271.55332,0.05562
3269.49315,0.05537
3267.43298,0.05500
3265.37281,0.05495
3263.31263,0.05525
3261.25246,0.05532
3259.19229,0.05497
3257.13212,0.05489
3255.07194,0.05501
3253.01177,0.05481
3250.95160,0.05464
3248.89143,0.05487
3246.83126,0.05520
3244.77108,0.05538
3242.71091,0.05548
3240.65074,0.05543
3238.59057,0.05528
3236.53040,0.05526
3234.47022,0.05538
3232.41005,0.05553
3230.34988,0.05574
3228.28971,0.05579
3226.22954,0.05575
3224.16936,0.05595
3222.10919,0.05610
3220.04902,0.05589
3217.98885,0.05559
3215.92867,0.05552
3213.86850,0.05559
3211.80833,0.05544
3209.74816,0.05508
3207.68799,0.05490
3205.62781,0.05498
3203.56764,0.05504
3201.50747,0.05492
3199.44730,0.05479
3197.38713,0.05462
3195.32695,0.05435
3193.26678,0.05427
3191.20661,0.05437
3189.14644,0.05424
3187.08626,0.05398
3185.02609,0.05405
3182.96592,0.05429
3180.90575,0.05426
3178.84558,0.05403
3176.78540,0.05378
3174.72523,0.05360
3172.66506,0.05371
3170.60489,0.05396
3168.54472,0.05397
3166.48454,0.05376
3164.42437,0.05352
3162.36420,0.05329
3160.30403,0.05310
3158.24386,0.05295
3156.18368,0.05269
3154.12351,0.05227
3152.06334,0.05195
3150.00317,0.05195
3147.94299,0.05209
3145.88282,0.05202
3143.82265,0.05177
3141.76248,0.05157
3139.70231,0.05134
3137.64213,0.05096
3135.58196,0.05075
3133.52179,0.05092
3131.46162,0.05094
3129.40145,0.05052
3127.34127,0.05026
3125.28110,0.05039
3123.22093,0.05056
3121.16076,0.05071
3119.10058,0.05073
3117.04041,0.05029
3114.98024,0.04959
3112.92007,0.04916
3110.85990,0.04906
3108.79972,0.04902
3106.73955,0.04893
3104.67938,0.04878
3102.61921,0.04853
3100.55904,0.04837
3098.49886,0.04835
3096.43869,0.04835
3094.37852,0.04807
3092.31835,0.04754
3090.25818,0.04721
3088.19800,0.04703
3086.13783,0.04675
3084.07766,0.04676
3082.01749,0.04710
3079.95731,0.04713
3077.89714,0.04667
3075.83697,0.04614
3073.77680,0.04576
3071.71663,0.04545
3069.65645,0.04509
3067.59628,0.04497
3065.53611,0.04520
3063.47594,0.04530
3061.41577,0.04516
3059.35559,0.04507
3057.29542,0.04487
3055.23525,0.04443
3053.17508,0.04411
3051.11491,0.04396
3049.05473,0.04386
3046.99456,0.04375
3044.93439,0.04348
3042.87422,0.04311
3040.81404,0.04298
3038.75387,0.04293
3036.69370,0.04275
3034.63353,0.04255
3032.57336,0.04230
3030.51318,0.04193
3028.45301,0.04158
3026.39284,0.04133
3024.33267,0.04123
3022.27250,0.04129
3020.21232,0.04108
3018.15215,0.04057
3016.09198,0.04035
3014.03181,0.04055
3011.97163,0.04082
3009.91146,0.04077
3007.85129,0.04038
3005.79112,0.04002
3003.73095,0.03975
3001.67077,0.03934
2999.61060,0.03888
2997.55043,0.03865
2995.49026,0.03849
2993.43009,0.03835
2991.36991,0.03823
2989.30974,0.03812
2987.24957,0.03814
2985.18940,0.03822
2983.12923,0.03811
2981.06905,0.03782
2979.00888,0.03756
2976.94871,0.03741
2974.88854,0.03748
2972.82836,0.03752
2970.76819,0.03731
2968.70802,0.03712
2966.64785,0.03713
2964.58768,0.03713
2962.52750,0.03708
2960.46733,0.03702
2958.40716,0.03694
2956.34699,0.03688
2954.28682,0.03670
2952.22664,0.03635
2950.16647,0.03594
2948.10630,0.03556
2946.04613,0.03542
2943.98596,0.03542
2941.92578,0.03533
2939.86561,0.03530
2937.80544,0.03536
2935.74527,0.03526
2933.68509,0.03485
2931.62492,0.03443
2929.56475,0.03423
2927.50458,0.03408
2925.44441,0.03401
2923.38423,0.03397
2921.32406,0.03379
2919.26389,0.03364
2917.20372,0.03362
2915.14355,0.03350
2913.08337,0.03329
2911.02320,0.03309
2908.96303,0.03276
2906.90286,0.03229
2904.84268,0.03196
2902.78251,0.03190
2900.72234,0.03176
2898.66217,0.03143
2896.60200,0.03130
2894.54182,0.03124
2892.48165,0.03097
2890.42148,0.03063
2888.36131,0.03051
2886.30114,0.03068
2884.24096,0.03077
2882.18079,0.03047
2880.12062,0.03016
2878.06045,0.03017
2876.00028,0.03015
2873.94010,0.02966
2871.87993,0.02920
2869.81976,0.02916
2867.75959,0.02915
2865.69941,0.02896
2863.63924,0.02856
2861.57907,0.02802
2859.51890,0.02763
2857.45873,0.02752
2855.39855,0.02746
2853.33838,0.02717
2851.27821,0.02698
2849.21804,0.02701
2847.15787,0.02687
2845.09769,0.02649
2843.03752,0.02618
2840.97735,0.02608
2838.91718,0.02601
2836.85700,0.02591
2834.79683,0.02581
2832.73666,0.02550
2830.67649,0.02494
2828.61632,0.02451
2826.55614,0.02448
2824.49597,0.02456
2822.43580,0.02444
2820.37563,0.02425
2818.31546,0.02420
2816.25528,0.02415
2814.19511,0.02391
2812.13494,0.02360
2810.07477,0.02345
2808.01460,0.02339
2805.95442,0.02327
2803.89425,0.02320
2801.83408,0.02327
2799.77391,0.02332
2797.71373,0.02321
2795.65356,0.02283
2793.59339,0.02231
2791.53322,0.02198
2789.47305,0.02183
2787.41287,0.02172
2785.35270,0.02174
2783.29253,0.02183
2781.23236,0.02179
2779.17219,0.02169
2777.11201,0.02162
2775.05184,0.02141
2772.99167,0.02110
2770.93150,0.02092
2768.87133,0.02092
2766.81115,0.02083
2764.75098,0.02057
2762.69081,0.02047
2760.63064,0.02068
2758.57046,0.02091
2756.51029,0.02089
2754.45012,0.02062
2752.38995,0.02030
2750.32978,0.02011
2748.26960,0.02000
2746.20943,0.01994
2744.14926,0.01985
2742.08909,0.01958
2740.02892,0.01922
2737.96874,0.01905
2735.90857,0.01906
2733.84840,0.01891
2731.78823,0.01871
2729.72805,0.01868
2727.66788,0.01864
2725.60771,0.01848
2723.54754,0.01831
2721.48737,0.01816
2719.42719,0.01795
2717.36702,0.01775
2715.30685,0.01775
2713.24668,0.01785
2711.18651,0.01779
2709.12633,0.01754
2707.06616,0.01740
2705.00599,0.01747
2702.94582,0.01748
2700.88565,0.01718
2698.82547,0.01691
2696.76530,0.01683
2694.70513,0.01667
2692.64496,0.01646
2690.58478,0.01641
2688.52461,0.01644
2686.46444,0.01644
2684.40427,0.01636
2682.34410,0.01616
2680.28392,0.01598
2678.22375,0.01592
2676.16358,0.01599
2674.10341,0.01606
2672.04324,0.01583
2669.98306,0.01541
2667.92289,0.01522
2665.86272,0.01522
2663.80255,0.01518
2661.74238,0.01501
2659.68220,0.01480
2657.62203,0.01472
2655.56186,0.01472
2653.50169,0.01463
2651.44151,0.01455
2649.38134,0.01461
2647.32117,0.01463
2645.26100,0.01446
2643.20083,0.01432
2641.14065,0.01423
2639.08048,0.01423
2637.02031,0.01429
2634.96014,0.01423
2632.89997,0.01407
2630.83979,0.01381
2628.77962,0.01347
2626.71945,0.01326
2624.65928,0.01321
2622.59910,0.01312
2620.53893,0.01306
2618.47876,0.01292
2616.41859,0.01268
2614.35842,0.01263
2612.29824,0.01290
2610.23807,0.01328
2608.17790,0.01331
2606.11773,0.01292
2604.05756,0.01250
2601.99738,0.01244
2599.93721,0.01271
2597.87704,0.01274
2595.81687,0.01250
2593.75670,0.01243
2591.69652,0.01232
2589.63635,0.01193
2587.57618,0.01170
2585.51601,0.01178
2583.45583,0.01195
2581.39566,0.01214
2579.33549,0.01225
2577.27532,0.01226
2575.21515,0.01223
2573.15497,0.01206
2571.09480,0.01180
2569.03463,0.01169
2566.97446,0.01166
2564.91429,0.01152
2562.85411,0.01157
2560.79394,0.01164
2558.73377,0.01148
2556.67360,0.01165
2554.61342,0.01200
2552.55325,0.01183
2550.49308,0.01137
2548.43291,0.01126
2546.37274,0.01167
2544.31256,0.01219
2542.25239,0.01228
2540.19222,0.01203
2538.13205,0.01175
2536.07188,0.01158
2534.01170,0.01159
2531.95153,0.01158
2529.89136,0.01153
2527.83119,0.01149
2525.77102,0.01138
2523.71084,0.01122
2521.65067,0.01114
2519.59050,0.01115
2517.53033,0.01124
2515.47015,0.01123
2513.40998,0.01123
2511.34981,0.01148
2509.28964,0.01177
2507.22947,0.01192
2505.16929,0.01190
2503.10912,0.01174
2501.04895,0.01178
2498.98878,0.01208
2496.92861,0.01215
2494.86843,0.01178
2492.80826,0.01158
2490.74809,0.01200
2488.68792,0.01254
2486.62775,0.01262
2484.56757,0.01243
2482.50740,0.01235
2480.44723,0.01248
2478.38706,0.01277
2476.32688,0.01295
2474.26671,0.01286
2472.20654,0.01266
2470.14637,0.01260
2468.08620,0.01271
2466.02602,0.01273
2463.96585,0.01245
2461.90568,0.01221
2459.84551,0.01233
2457.78534,0.01259
2455.72516,0.01266
2453.66499,0.01249
2451.60482,0.01226
2449.54465,0.01212
2447.48447,0.01216
2445.42430,0.01239
2443.36413,0.01265
2441.30396,0.01289
2439.24379,0.01312
2437.18361,0.01297
2435.12344,0.01233
2433.06327,0.01188
2431.00310,0.01220
2428.94293,0.01271
2426.88275,0.01284
2424.82258,0.01283
2422.76241,0.01283
2420.70224,0.01270
2418.64207,0.01249
2416.58189,0.01247
2414.52172,0.01274
2412.46155,0.01315
2410.40138,0.01335
2408.34120,0.01321
2406.28103,0.01283
2404.22086,0.01245
2402.16069,0.01234
2400.10052,0.01246
2398.04034,0.01110
2395.98017,0.01123
2393.92000,0.01204
2391.85983,0.01268
2389.79966,0.01318
2387.73948,0.01392
2385.67931,0.01502
2383.61914,0.01599
2381.55897,0.01656
2379.49880,0.01733
2377.43862,0.01848
2375.37845,0.01961
2373.31828,0.02019
2371.25811,0.02069
2369.19793,0.02166
2367.13776,0.02200
2365.07759,0.02018
2363.01742,0.01647
2360.95725,0.01261
2358.89707,0.01331
2356.83690,0.01922
2354.77673,0.02508
2352.71656,0.02647
2350.65639,0.02530
2348.59621,0.02447
2346.53604,0.02466
2344.47587,0.02302
2342.41570,0.02229
2340.35552,0.02312
2338.29535,0.02374
2336.23518,0.02358
2334.17501,0.02289
2332.11484,0.02256
2330.05466,0.02319
2327.99449,0.02409
2325.93432,0.02393
2323.87415,0.02302
2321.81398,0.02160
2319.75380,0.02095
2317.69363,0.02047
2315.63346,0.01984
2313.57329,0.01888
2311.51312,0.01820
2309.45294,0.01834
2307.39277,0.01847
2305.33260,0.01804
2303.27243,0.01752
2301.21225,0.01729
2299.15208,0.01721
2297.09191,0.01704
2295.03174,0.01662
2292.97157,0.01615
2290.91139,0.01602
2288.85122,0.01593
2286.79105,0.01542
2284.73088,0.01456
2282.67071,0.01363
2280.61053,0.01278
2278.55036,0.01220
2276.49019,0.01188
2274.43002,0.01162
2272.36984,0.01145
2270.30967,0.01146
2268.24950,0.01163
2266.18933,0.01194
2264.12916,0.01251
2262.06898,0.01293
2260.00881,0.01232
2257.94864,0.01116
2255.88847,0.01075
2253.82830,0.01144
2251.76812,0.01209
2249.70795,0.01165
2247.64778,0.01159
2245.58761,0.01188
2243.52744,0.01193
2241.46726,0.01174
2239.40709,0.01149
2237.34692,0.01103
2235.28675,0.01025
2233.22657,0.00977
2231.16640,0.01018
2229.10623,0.01065
2227.04606,0.01058
2224.98589,0.01045
2222.92571,0.01018
2220.86554,0.01003
2218.80537,0.01077
2216.74520,0.01132
2214.68503,0.01059
2212.62485,0.00961
2210.56468,0.00880
2208.50451,0.00828
2206.44434,0.00889
2204.38417,0.00999
2202.32399,0.01027
2200.26382,0.00984
2198.20365,0.00953
2196.14348,0.00980
2194.08330,0.01063
2192.02313,0.01134
2189.96296,0.01120
2187.90279,0.01005
2185.84262,0.00921
2183.78244,0.00987
2181.72227,0.01044
2179.66210,0.00949
2177.60193,0.00764
2175.54176,0.00643
2173.48158,0.00725
2171.42141,0.00930
2169.36124,0.01044
2167.30107,0.01025
2165.24089,0.00931
2163.18072,0.00764
2161.12055,0.00489
2159.06038,0.00167
2157.00021,0.00000
2154.94003,0.00128
2152.87986,0.00400
2150.81969,0.00580
2148.75952,0.00693
2146.69935,0.00772
2144.63917,0.00762
2142.57900,0.00779
2140.51883,0.00905
2138.45866,0.00926
2136.39849,0.00742
2134.33831,0.00613
2132.27814,0.00647
2130.21797,0.00693
2128.15780,0.00728
2126.09762,0.00763
2124.03745,0.00744
2121.97728,0.00757
2119.91711,0.00850
2117.85694,0.00890
2115.79676,0.00839
2113.73659,0.00805
2111.67642,0.00805
2109.61625,0.00792
2107.55608,0.00775
2105.49590,0.00749
2103.43573,0.00713
2101.37556,0.00707
2099.31539,0.00711
2097.25521,0.00728
2095.19504,0.00758
2093.13487,0.00812
2091.07470,0.00830
2089.01453,0.00799
2086.95435,0.00722
2084.89418,0.00651
2082.83401,0.00700
2080.77384,0.00806
2078.71367,0.00808
2076.65349,0.00746
2074.59332,0.00700
2072.53315,0.00625
2070.47298,0.00527
2068.41281,0.00485
2066.35263,0.00562
2064.29246,0.00697
2062.23229,0.00744
2060.17212,0.00696
2058.11194,0.00615
2056.05177,0.00557
2053.99160,0.00584
2051.93143,0.00619
2049.87126,0.00509
2047.81108,0.00392
2045.75091,0.00436
2043.69074,0.00451
2041.63057,0.00337
2039.57040,0.00275
2037.51022,0.00281
2035.45005,0.00245
2033.38988,0.00263
2031.32971,0.00343
2029.26954,0.00349
2027.20936,0.00382
2025.14919,0.00553
2023.08902,0.00658
2021.02885,0.00549
2018.96867,0.00405
2016.90850,0.00338
2014.84833,0.00207
2012.78816,0.00023
2010.72799,0.00000
2008.66781,0.00154
2006.60764,0.00322
2004.54747,0.00392
2002.48730,0.00378
2000.42713,0.00377
1998.36695,0.00428
1996.30678,0.00501
1994.24661,0.00513
1992.18644,0.00456
1990.12626,0.00460
1988.06609,0.00521
1986.00592,0.00495
1983.94575,0.00368
1981.88558,0.00230
1979.82540,0.00166
1977.76523,0.00241
1975.70506,0.00330
1973.64489,0.00273
1971.58472,0.00206
1969.52454,0.00272
1967.46437,0.00337
1965.40420,0.00338
1963.34403,0.00367
1961.28386,0.00403
1959.22368,0.00423
1957.16351,0.00434
1955.10334,0.00422
1953.04317,0.00397
1950.98299,0.00371
1948.92282,0.00388
1946.86265,0.00426
1944.80248,0.00403
1942.74231,0.00353
1940.68213,0.00357
1938.62196,0.00364
1936.56179,0.00327
1934.50162,0.00310
1932.44145,0.00331
1930.38127,0.00346
1928.32110,0.00386
1926.26093,0.00439
1924.20076,0.00461
1922.14059,0.00465
1920.08041,0.00453
1918.02024,0.00429
1915.96007,0.00433
1913.89990,0.00441
1911.83972,0.00396
1909.77955,0.00334
1907.71938,0.00311
1905.65921,0.00303
1903.59904,0.00299
1901.53886,0.00304
1899.47869,0.00316
1897.41852,0.00371
1895.35835,0.00443
1893.29818,0.00460
1891.23800,0.00440
1889.17783,0.00450
1887.11766,0.00482
1885.05749,0.00488
1882.99731,0.00455
1880.93714,0.00403
1878.87697,0.00361
1876.81680,0.00339
1874.75663,0.00326
1872.69645,0.00315
1870.63628,0.00322
1868.57611,0.00371
1866.51594,0.00424
1864.45577,0.00425
1862.39559,0.00388
1860.33542,0.00368
1858.27525,0.00390
1856.21508,0.00419
1854.15491,0.00420
1852.09473,0.00416
1850.03456,0.00416
1847.97439,0.00391
1845.91422,0.00357
1843.85404,0.00371
1841.79387,0.00413
1839.73370,0.00430
1837.67353,0.00433
1835.61336,0.00453
1833.55318,0.00469
1831.49301,0.00443
1829.43284,0.00390
1827.37267,0.00360
1825.31250,0.00366
1823.25232,0.00380
1821.19215,0.00380
1819.13198,0.00376
1817.07181,0.00378
1815.01163,0.00384
1812.95146,0.00388
1810.89129,0.00386
1808.83112,0.00392
1806.77095,0.00432
1804.71077,0.00490
1802.65060,0.00530
1800.59043,0.00543
1798.53026,0.00541
1796.47009,0.00518
1794.40991,0.00479
1792.34974,0.00479
1790.28957,0.00531
1788.22940,0.00569
1786.16923,0.00566
1784.10905,0.00541
1782.04888,0.00520
1779.98871,0.00524
1777.92854,0.00529
1775.86836,0.00507
1773.80819,0.00475
1771.74802,0.00490
1769.68785,0.00551
1767.62768,0.00587
1765.56750,0.00584
1763.50733,0.00589
1761.44716,0.00629
1759.38699,0.00682
1757.32682,0.00712
1755.26664,0.00722
1753.20647,0.00733
1751.14630,0.00748
1749.08613,0.00774
1747.02596,0.00821
1744.96578,0.00867
1742.90561,0.00871
1740.84544,0.00847
1738.78527,0.00839
1736.72509,0.00855
1734.66492,0.00893
1732.60475,0.00934
1730.54458,0.00936
1728.48441,0.00932
1726.42423,0.00942
1724.36406,0.00947
1722.30389,0.00931
1720.24372,0.00897
1718.18355,0.00888
1716.12337,0.00948
1714.06320,0.01009
1712.00303,0.01048
1709.94286,0.01076
1707.88268,0.01099
1705.82251,0.01147
1703.76234,0.01211
1701.70217,0.01233
1699.64200,0.01238
1697.58182,0.01293
1695.52165,0.01395
1693.46148,0.01503
1691.40131,0.01601
1689.34114,0.01667
1687.28096,0.01662
1685.22079,0.01634
1683.16062,0.01722
1681.10045,0.01869
1679.04028,0.01960
1676.98010,0.02019
1674.91993,0.02078
1672.85976,0.02112
1670.79959,0.02144
1668.73941,0.02228
1666.67924,0.02315
1664.61907,0.02354
1662.55890,0.02395
1660.49873,0.02477
1658.43855,0.02551
1656.37838,0.02567
1654.31821,0.02544
1652.25804,0.02561
1650.19787,0.02596
1648.13769,0.02618
1646.07752,0.02631
1644.01735,0.02639
1641.95718,0.02626
1639.89701,0.02587
1637.83683,0.02514
1635.77666,0.02445
1633.71649,0.02426
1631.65632,0.02420
1629.59614,0.02373
1627.53597,0.02303
1625.47580,0.02248
1623.41563,0.02207
1621.35546,0.02172
1619.29528,0.02103
1617.23511,0.02004
1615.17494,0.01964
1613.11477,0.01982
1611.05460,0.01973
1608.99442,0.01928
1606.93425,0.01886
1604.87408,0.01846
1602.81391,0.01799
1600.75373,0.01762
1598.69356,0.01736
1596.63339,0.01705
1594.57322,0.01670
1592.51305,0.01647
1590.45287,0.01630
1588.39270,0.01605
1586.33253,0.01576
1584.27236,0.01557
1582.21219,0.01548
1580.15201,0.01525
1578.09184,0.01481
1576.03167,0.01450
1573.97150,0.01450
1571.91133,0.01434
1569.85115,0.01397
1567.79098,0.01395
1565.73081,0.01417
1563.67064,0.01411
1561.61046,0.01336
1559.55029,0.01250
1557.49012,0.01298
1555.42995,0.01399
1553.36978,0.01453
1551.30960,0.01454
1549.24943,0.01429
1547.18926,0.01404
1545.12909,0.01372
1543.06892,0.01301
1541.00874,0.01212
1538.94857,0.01195
1536.88840,0.01231
1534.82823,0.01240
1532.76805,0.01219
1530.70788,0.01207
1528.64771,0.01205
1526.58754,0.01205
1524.52737,0.01185
1522.46719,0.01139
1520.40702,0.01110
1518.34685,0.01102
1516.28668,0.01097
1514.22651,0.01100
1512.16633,0.01109
1510.10616,0.01096
1508.04599,0.01014
1505.98582,0.00892
1503.92565,0.00843
1501.86547,0.00849
1499.80530,0.00824
1497.74513,0.00773
1495.68496,0.00735
1493.62478,0.00708
1491.56461,0.00685
1489.50444,0.00677
1487.44427,0.00664
1485.38410,0.00637
1483.32392,0.00628
1481.26375,0.00640
1479.20358,0.00646
1477.14341,0.00643
1475.08324,0.00654
1473.02306,0.00681
1470.96289,0.00704
1468.90272,0.00707
1466.84255,0.00698
1464.78238,0.00703
1462.72220,0.00730
1460.66203,0.00739
1458.60186,0.00726
1456.54169,0.00717
1454.48151,0.00709
1452.42134,0.00708
1450.36117,0.00698
1448.30100,0.00677
1446.24083,0.00669
1444.18065,0.00673
1442.12048,0.00677
1440.06031,0.00677
1438.00014,0.00683
1435.93997,0.00696
1433.87979,0.00694
1431.81962,0.00689
1429.75945,0.00695
1427.69928,0.00717
1425.63910,0.00746
1423.57893,0.00780
1421.51876,0.00819
1419.45859,0.00869
1417.39842,0.00898
1415.33824,0.00873
1413.27807,0.00845
1411.21790,0.00851
1409.15773,0.00863
1407.09756,0.00854
1405.03738,0.00837
1402.97721,0.00821
1400.91704,0.00810
1398.85687,0.00816
1396.79670,0.00818
1394.73652,0.00782
1392.67635,0.00727
1390.61618,0.00695
1388.55601,0.00685
1386.49583,0.00671
1384.43566,0.00648
1382.37549,0.00626
1380.31532,0.00610
1378.25515,0.00599
1376.19497,0.00587
1374.13480,0.00577
1372.07463,0.00571
1370.01446,0.00566
1367.95429,0.00565
1365.89411,0.00569
1363.83394,0.00579
1361.77377,0.00576
1359.71360,0.00533
1357.65343,0.00472
1355.59325,0.00427
1353.53308,0.00399
1351.47291,0.00378
1349.41274,0.00373
1347.35256,0.00384
1345.29239,0.00387
1343.23222,0.00388
1341.17205,0.00415
1339.11188,0.00450
1337.05170,0.00443
1334.99153,0.00399
1332.93136,0.00364
1330.87119,0.00355
1328.81102,0.00359
1326.75084,0.00366
1324.69067,0.00375
1322.63050,0.00379
1320.57033,0.00371
1318.51015,0.00368
1316.44998,0.00377
1314.38981,0.00383
1312.32964,0.00374
1310.26947,0.00362
1308.20929,0.00361
1306.14912,0.00369
1304.08895,0.00372
1302.02878,0.00375
1299.96861,0.00388
1297.90843,0.00400
1295.84826,0.00400
1293.78809,0.00400
1291.72792,0.00413
1289.66775,0.00428
1287.60757,0.00431
1285.54740,0.00429
1283.48723,0.00427
1281.42706,0.00428
1279.36688,0.00429
1277.30671,0.00437
1275.24654,0.00461
1273.18637,0.00491
1271.12620,0.00504
1269.06602,0.00488
1267.00585,0.00464
1264.94568,0.00457
1262.88551,0.00463
1260.82534,0.00475
1258.76516,0.00494
1256.70499,0.00504
1254.64482,0.00504
1252.58465,0.00504
1250.52447,0.00493
1248.46430,0.00483
1246.40413,0.00499
1244.34396,0.00520
1242.28379,0.00511
1240.22361,0.00476
1238.16344,0.00443
1236.10327,0.00429
1234.04310,0.00423
1231.98293,0.00413
1229.92275,0.00397
1227.86258,0.00376
1225.80241,0.00346
1223.74224,0.00313
1221.68207,0.00282
1219.62189,0.00248
1217.56172,0.00206
1215.50155,0.00166
1213.44138,0.00140
1211.38120,0.00136
1209.32103,0.00141
1207.26086,0.00137
1205.20069,0.00117
1203.14052,0.00083
1201.08034,0.00045
1199.02017,0.00028
1196.96000,0.00025
1194.89983,0.00011
1192.83966,0.00000
1190.77948,-0.00002
1188.71931,0.00001
1186.65914,0.00011
1184.59897,0.00022
1182.53880,0.00034
1180.47862,0.00065
1178.41845,0.00109
1176.35828,0.00135
1174.29811,0.00129
1172.23793,0.00124
1170.17776,0.00162
1168.11759,0.00225
1166.05742,0.00275
1163.99725,0.00312
1161.93707,0.00343
1159.87690,0.00380
1157.81673,0.00438
1155.75656,0.00515
1153.69639,0.00598
1151.63621,0.00675
1149.57604,0.00735
1147.51587,0.00784
1145.45570,0.00834
1143.39552,0.00918
1141.33535,0.01049
1139.27518,0.01184
1137.21501,0.01301
1135.15484,0.01426
1133.09466,0.01574
1131.03449,0.01725
1128.97432,0.01869
1126.91415,0.02018
1124.85398,0.02182
1122.79380,0.02364
1120.73363,0.02558
1118.67346,0.02760
1116.61329,0.02948
1114.55312,0.03117
1112.49294,0.03301
1110.43277,0.03497
1108.37260,0.03672
1106.31243,0.03835
1104.25225,0.04020
1102.19208,0.04218
1100.13191,0.04399
1098.07174,0.04559
1096.01157,0.04691
1093.95139,0.04805
1091.89122,0.04936
1089.83105,0.05089
1087.77088,0.05233
1085.71071,0.05361
1083.65053,0.05481
1081.59036,0.05601
1079.53019,0.05727
1077.47002,0.05863
1075.40985,0.05988
1073.34967,0.06064
1071.28950,0.06102
1069.22933,0.06149
1067.16916,0.06209
1065.10898,0.06224
1063.04881,0.06185
1060.98864,0.06127
1058.92847,0.06056
1056.86830,0.05952
1054.80812,0.05793
1052.74795,0.05600
1050.68778,0.05407
1048.62761,0.05199
1046.56744,0.04966
1044.50726,0.04722
1042.44709,0.04462
1040.38692,0.04196
1038.32675,0.03949
1036.26657,0.03730
1034.20640,0.03519
1032.14623,0.03295
1030.08606,0.03082
1028.02589,0.02914
1025.96571,0.02761
1023.90554,0.02607
1021.84537,0.02485
1019.78520,0.02398
1017.72503,0.02315
1015.66485,0.02233
1013.60468,0.02188
1011.54451,0.02185
1009.48434,0.02197
1007.42417,0.02234
1005.36399,0.02322
1003.30382,0.02432
1001.24365,0.02530
999.18348,0.02630
997.12330,0.02747
995.06313,0.02898
993.00296,0.03089
990.94279,0.03250
988.88262,0.03349
986.82244,0.03438
984.76227,0.03527
982.70210,0.03586
980.64193,0.03614
978.58176,0.03597
976.52158,0.03510
974.46141,0.03371
972.40124,0.03241
970.34107,0.03122
968.28089,0.02970
966.22072,0.02795
964.16055,0.02632
962.10038,0.02475
960.04021,0.02310
957.98003,0.02130
955.91986,0.01937
953.85969,0.01758
951.79952,0.01602
949.73935,0.01458
947.67917,0.01326
945.61900,0.01200
943.55883,0.01087
941.49866,0.00977
939.43849,0.00862
937.37831,0.00770
935.31814,0.00705
933.25797,0.00634
931.19780,0.00559
929.13762,0.00502
927.07745,0.00464
925.01728,0.00457
922.95711,0.00458
920.89694,0.00420
918.83676,0.00353
916.77659,0.00295
914.71642,0.00258
912.65625,0.00230
910.59608,0.00210
908.53590,0.00223
906.47573,0.00249
904.41556,0.00271
902.35539,0.00297
900.29522,0.00311
898.23504,0.00320
896.17487,0.00328
894.11470,0.00345
892.05453,0.00397
889.99435,0.00476
887.93418,0.00551
885.87401,0.00606
883.81384,0.00653
881.75367,0.00721
879.69349,0.00818
877.63332,0.00910
875.57315,0.00975
873.51298,0.01015
871.45281,0.01052
869.39263,0.01115
867.33246,0.01159
865.27229,0.01160
863.21212,0.01174
861.15194,0.01227
859.09177,0.01276
857.03160,0.01304
854.97143,0.01329
852.91126,0.01326
850.85108,0.01263
848.79091,0.01160
846.73074,0.01078
844.67057,0.01053
842.61040,0.01046
840.55022,0.01007
838.49005,0.00948
836.42988,0.00879
834.36971,0.00790
832.30954,0.00736
830.24936,0.00757
828.18919,0.00765
826.12902,0.00697
824.06885,0.00619
822.00867,0.00558
819.94850,0.00494
817.88833,0.00450
815.82816,0.00427
813.76799,0.00372
811.70781,0.00323
809.64764,0.00336
807.58747,0.00340
805.52730,0.00317
803.46713,0.00321
801.40695,0.00337
799.34678,0.00317
797.28661,0.00248
795.22644,0.00190
793.16627,0.00193
791.10609,0.00195
789.04592,0.00195
786.98575,0.00252
784.92558,0.00290
782.86540,0.00248
780.80523,0.00200
778.74506,0.00199
776.68489,0.00213
774.62472,0.00217
772.56454,0.00236
770.50437,0.00260
768.44420,0.00268
766.38403,0.00245
764.32386,0.00198
762.26368,0.00166
760.20351,0.00129
758.14334,0.00088
756.08317,0.00069
754.02299,0.00048
751.96282,0.00048
749.90265,0.00097
747.84248,0.00148
745.78231,0.00174
743.72213,0.00197
741.66196,0.00218
739.60179,0.00216
737.54162,0.00225
735.48145,0.00247
733.42127,0.00210
731.36110,0.00118
729.30093,0.00066
727.24076,0.00111
725.18059,0.00186
723.12041,0.00312
721.06024,0.00296
719.00007,0.00281
716.93990,0.00294
714.87972,0.00271
712.81955,0.00228
710.75938,0.00205
708.69921,0.00242
706.63904,0.00307
704.57886,0.00377
702.51869,0.00440
700.45852,0.00495
698.39835,0.00581
696.33818,0.00687
694.27800,0.00710
692.21783,0.00580
690.15766,0.00378
688.09749,0.00273
686.03731,0.00314
683.97714,0.00414
681.91697,0.00449
679.85680,0.00366
677.79663,0.00269
675.73645,0.00243
673.67628,0.00186
671.61611,0.00000
669.55594,0.00146
667.49577,0.00584
665.43559,0.00287
663.37542,0.00430
661.31525,0.00587
659.25508,0.00488
657.19491,0.00304
655.13473,0.00228
653.07456,0.00267
651.01439,0.00346
648.95422,0.00440
646.89404,0.00533
644.83387,0.00606
642.77370,0.00580
640.71353,0.00428
638.65336,0.00281
636.59318,0.00234
634.53301,0.00236
632.47284,0.00173
630.41267,0.00022
628.35250,0.00000
626.29232,0.00131
624.23215,0.00088
622.17198,-0.00023
620.11181,0.00166
618.05164,0.00367
615.99146,0.00229
613.93129,0.00082
611.87112,0.00128
609.81095,0.00132
607.75077,-0.00001
605.69060,-0.00193
603.63043,-0.00307
601.57026,-0.00243
599.51009,0.00000
