3996.73391,0.00125
3994.67373,0.00126
3992.61356,0.00123
3990.55339,0.00114
3988.49322,0.00101
3986.43305,0.00088
3984.37287,0.00064
3982.31270,0.00044
3980.25253,0.00060
3978.19236,0.00079
3976.13219,0.00058
3974.07201,0.00036
3972.01184,0.00063
3969.95167,0.00105
3967.89150,0.00121
3965.83133,0.00126
3963.77115,0.00125
3961.71098,0.00094
3959.65081,0.00044
3957.59064,0.00009
3955.53046,0.00000
3953.47029,0.00026
3951.41012,0.00084
3949.34995,0.00151
3947.28978,0.00183
3945.22960,0.00172
3943.16943,0.00163
3941.10926,0.00148
3939.04909,0.00112
3936.98892,0.00098
3934.92874,0.00119
3932.86857,0.00132
3930.80840,0.00118
3928.74823,0.00109
3926.68805,0.00135
3924.62788,0.00174
3922.56771,0.00186
3920.50754,0.00158
3918.44737,0.00131
3916.38719,0.00116
3914.32702,0.00122
3912.26685,0.00151
3910.20668,0.00171
3908.14651,0.00168
3906.08633,0.00184
3904.02616,0.00245
3901.96599,0.00275
3899.90582,0.00207
3897.84565,0.00124
3895.78547,0.00103
3893.72530,0.00122
3891.66513,0.00137
3889.60496,0.00137
3887.54478,0.00157
3885.48461,0.00212
3883.42444,0.00254
3881.36427,0.00248
3879.30410,0.00197
3877.24392,0.00122
3875.18375,0.00084
3873.12358,0.00127
3871.06341,0.00205
3869.00324,0.00253
3866.94306,0.00251
3864.88289,0.00224
3862.82272,0.00214
3860.76255,0.00211
3858.70237,0.00192
3856.64220,0.00182
3854.58203,0.00211
3852.52186,0.00280
3850.46169,0.00293
3848.40151,0.00243
3846.34134,0.00181
3844.28117,0.00157
3842.22100,0.00195
3840.16083,0.00251
3838.10065,0.00261
3836.04048,0.00231
3833.98031,0.00208
3831.92014,0.00197
3829.85997,0.00182
3827.79979,0.00171
3825.73962,0.00169
3823.67945,0.00165
3821.61928,0.00162
3819.55910,0.00178
3817.49893,0.00184
3815.43876,0.00159
3813.37859,0.00115
3811.31842,0.00079
3809.25824,0.00060
3807.19807,0.00075
3805.13790,0.00132
3803.07773,0.00194
3801.01756,0.00210
3798.95738,0.00178
3796.89721,0.00158
3794.83704,0.00159
3792.77687,0.00161
3790.71670,0.00170
3788.65652,0.00165
3786.59635,0.00130
3784.53618,0.00101
3782.47601,0.00097
3780.41583,0.00105
3778.35566,0.00108
3776.29549,0.00107
3774.23532,0.00119
3772.17515,0.00140
3770.11497,0.00146
3768.05480,0.00141
3765.99463,0.00140
3763.93446,0.00136
3761.87429,0.00140
3759.81411,0.00183
3757.75394,0.00250
3755.69377,0.00289
3753.63360,0.00289
3751.57342,0.00299
3749.51325,0.00352
3747.45308,0.00394
3745.39291,0.00423
3743.33274,0.00429
3741.27256,0.00416
3739.21239,0.00438
3737.15222,0.00464
3735.09205,0.00426
3733.03188,0.00350
3730.97170,0.00339
3728.91153,0.00395
3726.85136,0.00452
3724.79119,0.00456
3722.73102,0.00413
3720.67084,0.00368
3718.61067,0.00347
3716.55050,0.00345
3714.49033,0.00321
3712.43015,0.00258
3710.36998,0.00219
3708.30981,0.00235
3706.24964,0.00274
3704.18947,0.00297
3702.12929,0.00299
3700.06912,0.00292
3698.00895,0.00286
3695.94878,0.00273
3693.88861,0.00242
3691.82843,0.00229
3689.76826,0.00275
3687.70809,0.00336
3685.64792,0.00353
3683.58775,0.00333
3681.52757,0.00291
3679.46740,0.00240
3677.40723,0.00222
3675.34706,0.00285
3673.28688,0.00366
3671.22671,0.00413
3669.16654,0.00460
3667.10637,0.00485
3665.04620,0.00462
3662.98602,0.00420
3660.92585,0.00403
3658.86568,0.00434
3656.80551,0.00517
3654.74534,0.00601
3652.68516,0.00633
3650.62499,0.00665
3648.56482,0.00737
3646.50465,0.00743
3644.44447,0.00710
3642.38430,0.00719
3640.32413,0.00791
3638.26396,0.00901
3636.20379,0.01007
3634.14361,0.01080
3632.08344,0.01127
3630.02327,0.01169
3627.96310,0.01219
3625.90293,0.01262
3623.84275,0.01268
3621.78258,0.01232
3619.72241,0.01226
3617.66224,0.01300
3615.60207,0.01413
3613.54189,0.01543
3611.48172,0.01624
3609.42155,0.01628
3607.36138,0.01637
3605.30120,0.01681
3603.24103,0.01700
3601.18086,0.01691
3599.12069,0.01718
3597.06052,0.01796
3595.00034,0.01883
3592.94017,0.01939
3590.88000,0.01961
3588.81983,0.01986
3586.75966,0.02032
3584.69948,0.02061
3582.63931,0.02086
3580.57914,0.02141
3578.51897,0.02196
3576.45879,0.02215
3574.39862,0.02225
3572.33845,0.02258
3570.27828,0.02323
3568.21811,0.02430
3566.15793,0.02537
3564.09776,0.02575
3562.03759,0.02577
3559.97742,0.02589
3557.91725,0.02606
3555.85707,0.02639
3553.79690,0.02714
3551.73673,0.02809
3549.67656,0.02884
3547.61639,0.02952
3545.55621,0.03014
3543.49604,0.03017
3541.43587,0.02970
3539.37570,0.02964
3537.31552,0.03030
3535.25535,0.03106
3533.19518,0.03145
3531.13501,0.03181
3529.07484,0.03267
3527.01466,0.03385
3524.95449,0.03455
3522.89432,0.03456
3520.83415,0.03459
3518.77398,0.03494
3516.71380,0.03515
3514.65363,0.03512
3512.59346,0.03531
3510.53329,0.03609
3508.47312,0.03713
3506.41294,0.03776
3504.35277,0.03809
3502.29260,0.03852
3500.23243,0.03878
3498.17225,0.03882
3496.11208,0.03928
3494.05191,0.04020
3491.99174,0.04076
3489.93157,0.04088
3487.87139,0.04103
3485.81122,0.04135
3483.75105,0.04185
3481.69088,0.04250
3479.63071,0.04315
3477.57053,0.04354
3475.51036,0.04355
3473.45019,0.04346
3471.39002,0.04378
3469.32984,0.04452
3467.26967,0.04512
3465.20950,0.04556
3463.14933,0.04616
3461.08916,0.04665
3459.02898,0.04696
3456.96881,0.04741
3454.90864,0.04775
3452.84847,0.04781
3450.78830,0.04793
3448.72812,0.04817
3446.66795,0.04844
3444.60778,0.04893
3442.54761,0.04948
3440.48744,0.04974
3438.42726,0.04991
3436.36709,0.05035
3434.30692,0.05096
3432.24675,0.05148
3430.18657,0.05170
3428.12640,0.05172
3426.06623,0.05190
3424.00606,0.05230
3421.94589,0.05286
3419.88571,0.05360
3417.82554,0.05397
3415.76537,0.05362
3413.70520,0.05322
3411.64503,0.05354
3409.58485,0.05431
3407.52468,0.05481
3405.46451,0.05504
3403.40434,0.05505
3401.34416,0.05489
3399.28399,0.05529
3397.22382,0.05549
3395.16365,0.05549
3393.10348,0.05582
3391.04330,0.05649
3388.98313,0.05677
3386.92296,0.05679
3384.86279,0.05715
3382.80262,0.05758
3380.74244,0.05776
3378.68227,0.05791
3376.62210,0.05825
3374.56193,0.05862
3372.50176,0.05859
3370.44158,0.05834
3368.38141,0.05840
3366.32124,0.05871
3364.26107,0.05897
3362.20089,0.05901
3360.14072,0.05888
3358.08055,0.05898
3356.02038,0.05935
3353.96021,0.05940
3351.90003,0.05930
3349.83986,0.05940
3347.77969,0.05946
3345.71952,0.05959
3343.65935,0.05998
3341.59917,0.06032
3339.53900,0.06037
3337.47883,0.06014
3335.41866,0.05978
3333.35849,0.05969
3331.29831,0.06014
3329.23814,0.06052
3327.17797,0.06052
3325.11780,0.06052
3323.05762,0.06074
3320.99745,0.06108
3318.93728,0.06118
3316.87711,0.06114
3314.81694,0.06138
3312.75676,0.06167
3310.69659,0.06168
3308.63642,0.06166
3306.57625,0.06175
3304.51608,0.06168
3302.45590,0.06142
3300.39573,0.06125
3298.33556,0.06131
3296.27539,0.06155
3294.21521,0.06202
3292.15504,0.06241
3290.09487,0.06246
3288.03470,0.06248
3285.97453,0.06249
3283.91435,0.06232
3281.85418,0.06223
3279.79401,0.06226
3277.73384,0.06221
3275.67367,0.06227
3273.61349,0.06246
3271.55332,0.06257
3269.49315,0.06252
3267.43298,0.06236
3265.37281,0.06228
3263.31263,0.06235
3261.25246,0.06232
3259.19229,0.06224
3257.13212,0.06247
3255.07194,0.06285
3253.01177,0.06288
3250.95160,0.06274
3248.89143,0.06275
3246.83126,0.06282
3244.77108,0.06305
3242.71091,0.06334
3240.65074,0.06338
3238.59057,0.06330
3236.53040,0.06322
3234.47022,0.06305
3232.41005,0.06289
3230.34988,0.06289
3228.28971,0.06304
3226.22954,0.06323
3224.16936,0.06323
3222.10919,0.06300
3220.04902,0.06277
3217.98885,0.06282
3215.92867,0.06313
3213.86850,0.06311
3211.80833,0.06268
3209.74816,0.06248
3207.68799,0.06251
3205.62781,0.06238
3203.56764,0.06225
3201.50747,0.06242
3199.44730,0.06268
3197.38713,0.06274
3195.32695,0.06263
3193.26678,0.06230
3191.20661,0.06175
3189.14644,0.06122
3187.08626,0.06094
3185.02609,0.06086
3182.96592,0.06086
3180.90575,0.06098
3178.84558,0.06117
3176.78540,0.06129
3174.72523,0.06121
3172.66506,0.06113
3170.60489,0.06121
3168.54472,0.06120
3166.48454,0.06101
3164.42437,0.06073
3162.36420,0.06037
3160.30403,0.06004
3158.24386,0.05983
3156.18368,0.05959
3154.12351,0.05929
3152.06334,0.05918
3150.00317,0.05933
3147.94299,0.05954
3145.88282,0.05947
3143.82265,0.05908
3141.76248,0.05857
3139.70231,0.05812
3137.64213,0.05782
3135.58196,0.05774
3133.52179,0.05800
3131.46162,0.05825
3129.40145,0.05810
3127.34127,0.05779
3125.28110,0.05752
3123.22093,0.05726
3121.16076,0.05724
3119.10058,0.05735
3117.04041,0.05717
3114.98024,0.05668
3112.92007,0.05626
3110.85990,0.05599
3108.79972,0.05572
3106.73955,0.05546
3104.67938,0.05524
3102.61921,0.05513
3100.55904,0.05504
3098.49886,0.05479
3096.43869,0.05445
3094.37852,0.05423
3092.31835,0.05419
3090.25818,0.05409
3088.19800,0.05380
3086.13783,0.05363
3084.07766,0.05375
3082.01749,0.05371
3079.95731,0.05339
3077.89714,0.05315
3075.83697,0.05298
3073.77680,0.05265
3071.71663,0.05216
3069.65645,0.05159
3067.59628,0.05113
3065.53611,0.05088
3063.47594,0.05072
3061.41577,0.05068
3059.35559,0.05071
3057.29542,0.05040
3055.23525,0.04989
3053.17508,0.04975
3051.11491,0.04985
3049.05473,0.04967
3046.99456,0.04908
3044.93439,0.04853
3042.87422,0.04831
3040.81404,0.04826
3038.75387,0.04819
3036.69370,0.04802
3034.63353,0.04782
3032.57336,0.04764
3030.51318,0.04742
3028.45301,0.04702
3026.39284,0.04662
3024.33267,0.04648
3022.27250,0.04649
3020.21232,0.04633
3018.15215,0.04594
3016.09198,0.04569
3014.03181,0.04569
3011.97163,0.04570
3009.91146,0.04555
3007.85129,0.04534
3005.79112,0.04506
3003.73095,0.04451
3001.67077,0.04382
2999.61060,0.04340
2997.55043,0.04336
2995.49026,0.04327
2993.43009,0.04318
2991.36991,0.04325
2989.30974,0.04318
2987.24957,0.04289
2985.18940,0.04267
2983.12923,0.04252
2981.06905,0.04245
2979.00888,0.04240
2976.94871,0.04209
2974.88854,0.04162
2972.82836,0.04121
2970.76819,0.04093
2968.70802,0.04089
2966.64785,0.04093
2964.58768,0.04095
2962.52750,0.04097
2960.46733,0.04086
2958.40716,0.04061
2956.34699,0.04024
2954.28682,0.03983
2952.22664,0.03971
2950.16647,0.03983
2948.10630,0.03981
2946.04613,0.03953
2943.98596,0.03908
2941.92578,0.03881
2939.86561,0.03890
2937.80544,0.03892
2935.74527,0.03855
2933.68509,0.03818
2931.62492,0.03804
2929.56475,0.03797
2927.50458,0.03782
2925.44441,0.03754
2923.38423,0.03720
2921.32406,0.03693
2919.26389,0.03674
2917.20372,0.03657
2915.14355,0.03635
2913.08337,0.03617
2911.02320,0.03587
2908.96303,0.03542
2906.90286,0.03514
2904.84268,0.03511
2902.78251,0.03519
2900.72234,0.03498
2898.66217,0.03430
2896.60200,0.03362
2894.54182,0.03325
2892.48165,0.03309
2890.42148,0.03301
2888.36131,0.03294
2886.30114,0.03290
2884.24096,0.03287
2882.18079,0.03275
2880.12062,0.03248
2878.06045,0.03216
2876.00028,0.03186
2873.94010,0.03147
2871.87993,0.03127
2869.81976,0.03136
2867.75959,0.03134
2865.69941,0.03105
2863.63924,0.03065
2861.57907,0.03017
2859.51890,0.02971
2857.45873,0.02952
2855.39855,0.02950
2853.33838,0.02926
2851.27821,0.02889
2849.21804,0.02868
2847.15787,0.02840
2845.09769,0.02815
2843.03752,0.02814
2840.97735,0.02812
2838.91718,0.02785
2836.85700,0.02744
2834.79683,0.02712
2832.73666,0.02687
2830.67649,0.02656
2828.61632,0.02634
2826.55614,0.02638
2824.49597,0.02635
2822.43580,0.02603
2820.37563,0.02573
2818.31546,0.02561
2816.25528,0.02547
2814.19511,0.02536
2812.13494,0.02533
2810.07477,0.02518
2808.01460,0.02494
2805.95442,0.02474
2803.89425,0.02457
2801.83408,0.02450
2799.77391,0.02444
2797.71373,0.02419
2795.65356,0.02381
2793.59339,0.02348
2791.53322,0.02333
2789.47305,0.02317
2787.41287,0.02279
2785.35270,0.02260
2783.29253,0.02266
2781.23236,0.02262
2779.17219,0.02259
2777.11201,0.02267
2775.05184,0.02254
2772.99167,0.02215
2770.93150,0.02170
2768.87133,0.02153
2766.81115,0.02163
2764.75098,0.02157
2762.69081,0.02135
2760.63064,0.02126
2758.57046,0.02128
2756.51029,0.02115
2754.45012,0.02087
2752.38995,0.02069
2750.32978,0.02065
2748.26960,0.02046
2746.20943,0.02028
2744.14926,0.02026
2742.08909,0.02010
2740.02892,0.01966
2737.96874,0.01925
2735.90857,0.01904
2733.84840,0.01890
2731.78823,0.01887
2729.72805,0.01896
2727.66788,0.01889
2725.60771,0.01868
2723.54754,0.01847
2721.48737,0.01827
2719.42719,0.01812
2717.36702,0.01795
2715.30685,0.01776
2713.24668,0.01778
2711.18651,0.01798
2709.12633,0.01785
2707.06616,0.01744
2705.00599,0.01741
2702.94582,0.01756
2700.88565,0.01736
2698.82547,0.01707
2696.76530,0.01690
2694.70513,0.01660
2692.64496,0.01630
2690.58478,0.01628
2688.52461,0.01639
2686.46444,0.01642
2684.40427,0.01628
2682.34410,0.01608
2680.28392,0.01603
2678.22375,0.01608
2676.16358,0.01606
2674.10341,0.01591
2672.04324,0.01566
2669.98306,0.01540
2667.92289,0.01520
2665.86272,0.01508
2663.80255,0.01500
2661.74238,0.01490
2659.68220,0.01481
2657.62203,0.01469
2655.56186,0.01450
2653.50169,0.01428
2651.44151,0.01413
2649.38134,0.01415
2647.32117,0.01410
2645.26100,0.01402
2643.20083,0.01416
2641.14065,0.01415
2639.08048,0.01388
2637.02031,0.01365
2634.96014,0.01341
2632.89997,0.01312
2630.83979,0.01278
2628.77962,0.01263
2626.71945,0.01260
2624.65928,0.01243
2622.59910,0.01226
2620.53893,0.01221
2618.47876,0.01201
2616.41859,0.01169
2614.35842,0.01162
2612.29824,0.01199
2610.23807,0.01252
2608.17790,0.01273
2606.11773,0.01255
2604.05756,0.01227
2601.99738,0.01214
2599.93721,0.01214
2597.87704,0.01190
2595.81687,0.01149
2593.75670,0.01119
2591.69652,0.01091
2589.63635,0.01076
2587.57618,0.01087
2585.51601,0.01092
2583.45583,0.01090
2581.39566,0.01109
2579.33549,0.01117
2577.27532,0.01095
2575.21515,0.01062
2573.15497,0.01050
2571.09480,0.01069
2569.03463,0.01092
2566.97446,0.01109
2564.91429,0.01096
2562.85411,0.01055
2560.79394,0.01049
2558.73377,0.01078
2556.67360,0.01088
2554.61342,0.01051
2552.55325,0.00996
2550.49308,0.00981
2548.43291,0.00999
2546.37274,0.01022
2544.31256,0.01056
2542.25239,0.01087
2540.19222,0.01088
2538.13205,0.01062
2536.07188,0.01049
2534.01170,0.01060
2531.95153,0.01078
2529.89136,0.01088
2527.83119,0.01054
2525.77102,0.01003
2523.71084,0.00999
2521.65067,0.01012
2519.59050,0.00990
2517.53033,0.00969
2515.47015,0.00966
2513.40998,0.00991
2511.34981,0.01074
2509.28964,0.01146
2507.22947,0.01154
2505.16929,0.01139
2503.10912,0.01126
2501.04895,0.01139
2498.98878,0.01175
2496.92861,0.01154
2494.86843,0.01071
2492.80826,0.01025
2490.74809,0.01052
2488.68792,0.01117
2486.62775,0.01168
2484.56757,0.01188
2482.50740,0.01172
2480.44723,0.01126
2478.38706,0.01115
2476.32688,0.01165
2474.26671,0.01191
2472.20654,0.01155
2470.14637,0.01129
2468.08620,0.01144
2466.02602,0.01147
2463.96585,0.01142
2461.90568,0.01180
2459.84551,0.01223
2457.78534,0.01216
2455.72516,0.01164
2453.66499,0.01105
2451.60482,0.01097
2449.54465,0.01127
2447.48447,0.01160
2445.42430,0.01189
2443.36413,0.01185
2441.30396,0.01162
2439.24379,0.01172
2437.18361,0.01176
2435.12344,0.01119
2433.06327,0.01065
2431.00310,0.01095
2428.94293,0.01149
2426.88275,0.01166
2424.82258,0.01180
2422.76241,0.01182
2420.70224,0.01154
2418.64207,0.01144
2416.58189,0.01169
2414.52172,0.01197
2412.46155,0.01208
2410.40138,0.01200
2408.34120,0.01170
2406.28103,0.01133
2404.22086,0.01115
2402.16069,0.01102
2400.10052,0.01105
2398.04034,0.00984
2395.98017,0.00996
2393.92000,0.01059
2391.85983,0.01116
2389.79966,0.01203
2387.73948,0.01330
2385.67931,0.01448
2383.61914,0.01526
2381.55897,0.01590
2379.49880,0.01670
2377.43862,0.01733
2375.37845,0.01760
2373.31828,0.01770
2371.25811,0.01822
2369.19793,0.01926
2367.13776,0.01979
2365.07759,0.01933
2363.01742,0.01863
2360.95725,0.01735
2358.89707,0.01719
2356.83690,0.01962
2354.77673,0.02327
2352.71656,0.02496
2350.65639,0.02476
2348.59621,0.02446
2346.53604,0.02479
2344.47587,0.02298
2342.41570,0.02205
2340.35552,0.02274
2338.29535,0.02272
2336.23518,0.02160
2334.17501,0.02024
2332.11484,0.01961
2330.05466,0.02043
2327.99449,0.02200
2325.93432,0.02237
2323.87415,0.02137
2321.81398,0.01963
2319.75380,0.01908
2317.69363,0.01916
2315.63346,0.01906
2313.57329,0.01830
2311.51312,0.01753
2309.45294,0.01747
2307.39277,0.01763
2305.33260,0.01747
2303.27243,0.01689
2301.21225,0.01608
2299.15208,0.01545
2297.09191,0.01534
2295.03174,0.01545
2292.97157,0.01532
2290.91139,0.01497
2288.85122,0.01444
2286.79105,0.01378
2284.73088,0.01295
2282.67071,0.01194
2280.61053,0.01120
2278.55036,0.01088
2276.49019,0.01067
2274.43002,0.01047
2272.36984,0.01037
2270.30967,0.01041
2268.24950,0.01030
2266.18933,0.00990
2264.12916,0.00995
2262.06898,0.01045
2260.00881,0.01052
2257.94864,0.01018
2255.88847,0.00997
2253.82830,0.01002
2251.76812,0.01014
2249.70795,0.00982
2247.64778,0.00975
2245.58761,0.00953
2243.52744,0.00927
2241.46726,0.00915
2239.40709,0.00886
2237.34692,0.00849
2235.28675,0.00849
2233.22657,0.00863
2231.16640,0.00858
2229.10623,0.00847
2227.04606,0.00825
2224.98589,0.00794
2222.92571,0.00794
2220.86554,0.00842
2218.80537,0.00908
2216.74520,0.00918
2214.68503,0.00857
2212.62485,0.00784
2210.56468,0.00753
2208.50451,0.00811
2206.44434,0.00901
2204.38417,0.00890
2202.32399,0.00753
2200.26382,0.00631
2198.20365,0.00609
2196.14348,0.00645
2194.08330,0.00721
2192.02313,0.00785
2189.96296,0.00771
2187.90279,0.00719
2185.84262,0.00726
2183.78244,0.00788
2181.72227,0.00745
2179.66210,0.00559
2177.60193,0.00426
2175.54176,0.00445
2173.48158,0.00572
2171.42141,0.00741
2169.36124,0.00845
2167.30107,0.00867
2165.24089,0.00832
2163.18072,0.00659
2161.12055,0.00382
2159.06038,0.00198
2157.00021,0.00097
2154.94003,0.00059
2152.87986,0.00195
2150.81969,0.00449
2148.75952,0.00617
2146.69935,0.00570
2144.63917,0.00434
2142.57900,0.00405
2140.51883,0.00503
2138.45866,0.00595
2136.39849,0.00544
2134.33831,0.00461
2132.27814,0.00499
2130.21797,0.00545
2128.15780,0.00563
2126.09762,0.00633
2124.03745,0.00681
2121.97728,0.00660
2119.91711,0.00642
2117.85694,0.00632
2115.79676,0.00610
2113.73659,0.00625
2111.67642,0.00634
2109.61625,0.00579
2107.55608,0.00509
2105.49590,0.00464
2103.43573,0.00486
2101.37556,0.00539
2099.31539,0.00539
2097.25521,0.00560
2095.19504,0.00610
2093.13487,0.00654
2091.07470,0.00681
2089.01453,0.00677
2086.95435,0.00613
2084.89418,0.00565
2082.83401,0.00591
2080.77384,0.00627
2078.71367,0.00593
2076.65349,0.00518
2074.59332,0.00494
2072.53315,0.00498
2070.47298,0.00465
2068.41281,0.00438
2066.35263,0.00457
2064.29246,0.00487
2062.23229,0.00529
2060.17212,0.00595
2058.11194,0.00621
2056.05177,0.00617
2053.99160,0.00651
2051.93143,0.00639
2049.87126,0.00501
2047.81108,0.00393
2045.75091,0.00384
2043.69074,0.00324
2041.63057,0.00215
2039.57040,0.00188
2037.51022,0.00214
2035.45005,0.00269
2033.38988,0.00393
2031.32971,0.00478
2029.26954,0.00504
2027.20936,0.00535
2025.14919,0.00513
2023.08902,0.00459
2021.02885,0.00414
2018.96867,0.00323
2016.90850,0.00213
2014.84833,0.00104
2012.78816,0.00000
2010.72799,0.00009
2008.66781,0.00124
2006.60764,0.00225
2004.54747,0.00245
2002.48730,0.00218
2000.42713,0.00289
1998.36695,0.00432
1996.30678,0.00491
1994.24661,0.00422
1992.18644,0.00322
1990.12626,0.00309
1988.06609,0.00336
1986.00592,0.00363
1983.94575,0.00376
1981.88558,0.00286
1979.82540,0.00132
1977.76523,0.00129
1975.70506,0.00195
1973.64489,0.00098
1971.58472,0.00000
1969.52454,0.00079
1967.46437,0.00238
1965.40420,0.00347
1963.34403,0.00338
1961.28386,0.00235
1959.22368,0.00197
1957.16351,0.00269
1955.10334,0.00324
1953.04317,0.00309
1950.98299,0.00264
1948.92282,0.00282
1946.86265,0.00372
1944.80248,0.00414
1942.74231,0.00346
1940.68213,0.00255
1938.62196,0.00256
1936.56179,0.00291
1934.50162,0.00274
1932.44145,0.00238
1930.38127,0.00214
1928.32110,0.00209
1926.26093,0.00220
1924.20076,0.00239
1922.14059,0.00292
1920.08041,0.00349
1918.02024,0.00384
1915.96007,0.00436
1913.89990,0.00440
1911.83972,0.00312
1909.77955,0.00160
1907.71938,0.00157
1905.65921,0.00270
1903.59904,0.00337
1901.53886,0.00320
1899.47869,0.00325
1897.41852,0.00378
1895.35835,0.00392
1893.29818,0.00341
1891.23800,0.00304
1889.17783,0.00335
1887.11766,0.00383
1885.05749,0.00399
1882.99731,0.00387
1880.93714,0.00347
1878.87697,0.00294
1876.81680,0.00245
1874.75663,0.00200
1872.69645,0.00167
1870.63628,0.00183
1868.57611,0.00263
1866.51594,0.00342
1864.45577,0.00363
1862.39559,0.00349
1860.33542,0.00351
1858.27525,0.00393
1856.21508,0.00426
1854.15491,0.00394
1852.09473,0.00327
1850.03456,0.00294
1847.97439,0.00310
1845.91422,0.00359
1843.85404,0.00422
1841.79387,0.00441
1839.73370,0.00402
1837.67353,0.00367
1835.61336,0.00377
1833.55318,0.00389
1831.49301,0.00364
1829.43284,0.00332
1827.37267,0.00321
1825.31250,0.00326
1823.25232,0.00340
1821.19215,0.00360
1819.13198,0.00380
1817.07181,0.00375
1815.01163,0.00341
1812.95146,0.00324
1810.89129,0.00338
1808.83112,0.00371
1806.77095,0.00426
1804.71077,0.00489
1802.65060,0.00525
1800.59043,0.00517
1798.53026,0.00496
1796.47009,0.00481
1794.40991,0.00459
1792.34974,0.00453
1790.28957,0.00478
1788.22940,0.00497
1786.16923,0.00498
1784.10905,0.00484
1782.04888,0.00468
1779.98871,0.00468
1777.92854,0.00467
1775.86836,0.00436
1773.80819,0.00408
1771.74802,0.00453
1769.68785,0.00548
1767.62768,0.00602
1765.56750,0.00601
1763.50733,0.00594
1761.44716,0.00611
1759.38699,0.00644
1757.32682,0.00679
1755.26664,0.00715
1753.20647,0.00747
1751.14630,0.00777
1749.08613,0.00811
1747.02596,0.00849
1744.96578,0.00872
1742.90561,0.00865
1740.84544,0.00845
1738.78527,0.00839
1736.72509,0.00851
1734.66492,0.00891
1732.60475,0.00941
1730.54458,0.00947
1728.48441,0.00936
1726.42423,0.00944
1724.36406,0.00970
1722.30389,0.00985
1720.24372,0.00966
1718.18355,0.00960
1716.12337,0.01037
1714.06320,0.01131
1712.00303,0.01188
1709.94286,0.01200
1707.88268,0.01193
1705.82251,0.01232
1703.76234,0.01306
1701.70217,0.01343
1699.64200,0.01378
1697.58182,0.01454
1695.52165,0.01553
1693.46148,0.01649
1691.40131,0.01730
1689.34114,0.01789
1687.28096,0.01803
1685.22079,0.01812
1683.16062,0.01939
1681.10045,0.02108
1679.04028,0.02192
1676.98010,0.02219
1674.91993,0.02262
1672.85976,0.02326
1670.79959,0.02405
1668.73941,0.02520
1666.67924,0.02611
1664.61907,0.02641
1662.55890,0.02686
1660.49873,0.02780
1658.43855,0.02843
1656.37838,0.02824
1654.31821,0.02778
1652.25804,0.02813
1650.19787,0.02890
1648.13769,0.02942
1646.07752,0.02967
1644.01735,0.02978
1641.95718,0.02965
1639.89701,0.02913
1637.83683,0.02833
1635.77666,0.02779
1633.71649,0.02764
1631.65632,0.02734
1629.59614,0.02666
1627.53597,0.02590
1625.47580,0.02523
1623.41563,0.02469
1621.35546,0.02430
1619.29528,0.02359
1617.23511,0.02265
1615.17494,0.02234
1613.11477,0.02244
1611.05460,0.02216
1608.99442,0.02159
1606.93425,0.02120
1604.87408,0.02092
1602.81391,0.02052
1600.75373,0.02008
1598.69356,0.01967
1596.63339,0.01923
1594.57322,0.01884
1592.51305,0.01857
1590.45287,0.01827
1588.39270,0.01775
1586.33253,0.01720
1584.27236,0.01694
1582.21219,0.01687
1580.15201,0.01658
1578.09184,0.01606
1576.03167,0.01585
1573.97150,0.01601
1571.91133,0.01585
1569.85115,0.01539
1567.79098,0.01535
1565.73081,0.01570
1563.67064,0.01580
1561.61046,0.01516
1559.55029,0.01425
1557.49012,0.01450
1555.42995,0.01533
1553.36978,0.01579
1551.30960,0.01588
1549.24943,0.01577
1547.18926,0.01555
1545.12909,0.01525
1543.06892,0.01464
1541.00874,0.01360
1538.94857,0.01294
1536.88840,0.01308
1534.82823,0.01324
1532.76805,0.01311
1530.70788,0.01304
1528.64771,0.01309
1526.58754,0.01301
1524.52737,0.01259
1522.46719,0.01195
1520.40702,0.01169
1518.34685,0.01185
1516.28668,0.01193
1514.22651,0.01176
1512.16633,0.01159
1510.10616,0.01141
1508.04599,0.01085
1505.98582,0.00987
1503.92565,0.00936
1501.86547,0.00934
1499.80530,0.00901
1497.74513,0.00829
1495.68496,0.00775
1493.62478,0.00742
1491.56461,0.00719
1489.50444,0.00721
1487.44427,0.00723
1485.38410,0.00704
1483.32392,0.00691
1481.26375,0.00692
1479.20358,0.00697
1477.14341,0.00700
1475.08324,0.00690
1473.02306,0.00681
1470.96289,0.00698
1468.90272,0.00726
1466.84255,0.00736
1464.78238,0.00745
1462.72220,0.00773
1460.66203,0.00789
1458.60186,0.00788
1456.54169,0.00785
1454.48151,0.00772
1452.42134,0.00765
1450.36117,0.00747
1448.30100,0.00722
1446.24083,0.00714
1444.18065,0.00717
1442.12048,0.00715
1440.06031,0.00709
1438.00014,0.00707
1435.93997,0.00721
1433.87979,0.00737
1431.81962,0.00743
1429.75945,0.00744
1427.69928,0.00755
1425.63910,0.00781
1423.57893,0.00825
1421.51876,0.00872
1419.45859,0.00919
1417.39842,0.00939
1415.33824,0.00915
1413.27807,0.00895
1411.21790,0.00902
1409.15773,0.00904
1407.09756,0.00890
1405.03738,0.00877
1402.97721,0.00861
1400.91704,0.00849
1398.85687,0.00850
1396.79670,0.00847
1394.73652,0.00810
1392.67635,0.00756
1390.61618,0.00722
1388.55601,0.00706
1386.49583,0.00684
1384.43566,0.00657
1382.37549,0.00639
1380.31532,0.00630
1378.25515,0.00631
1376.19497,0.00632
1374.13480,0.00623
1372.07463,0.00606
1370.01446,0.00592
1367.95429,0.00587
1365.89411,0.00587
1363.83394,0.00592
1361.77377,0.00582
1359.71360,0.00535
1357.65343,0.00479
1355.59325,0.00445
1353.53308,0.00425
1351.47291,0.00403
1349.41274,0.00385
1347.35256,0.00379
1345.29239,0.00377
1343.23222,0.00380
1341.17205,0.00413
1339.11188,0.00458
1337.05170,0.00455
1334.99153,0.00407
1332.93136,0.00366
1330.87119,0.00355
1328.81102,0.00364
1326.75084,0.00369
1324.69067,0.00372
1322.63050,0.00378
1320.57033,0.00386
1318.51015,0.00394
1316.44998,0.00401
1314.38981,0.00403
1312.32964,0.00398
1310.26947,0.00394
1308.20929,0.00399
1306.14912,0.00405
1304.08895,0.00398
1302.02878,0.00386
1299.96861,0.00385
1297.90843,0.00400
1295.84826,0.00404
1293.78809,0.00396
1291.72792,0.00412
1289.66775,0.00434
1287.60757,0.00434
1285.54740,0.00432
1283.48723,0.00443
1281.42706,0.00457
1279.36688,0.00458
1277.30671,0.00457
1275.24654,0.00472
1273.18637,0.00502
1271.12620,0.00527
1269.06602,0.00529
1267.00585,0.00521
1264.94568,0.00526
1262.88551,0.00548
1260.82534,0.00570
1258.76516,0.00564
1256.70499,0.00539
1254.64482,0.00536
1252.58465,0.00556
1250.52447,0.00558
1248.46430,0.00545
1246.40413,0.00548
1244.34396,0.00551
1242.28379,0.00529
1240.22361,0.00499
1238.16344,0.00481
1236.10327,0.00476
1234.04310,0.00472
1231.98293,0.00446
1229.92275,0.00408
1227.86258,0.00378
1225.80241,0.00348
1223.74224,0.00314
1221.68207,0.00290
1219.62189,0.00273
1217.56172,0.00254
1215.50155,0.00232
1213.44138,0.00203
1211.38120,0.00177
1209.32103,0.00153
1207.26086,0.00129
1205.20069,0.00103
1203.14052,0.00064
1201.08034,0.00022
1199.02017,0.00018
1196.96000,0.00030
1194.89983,0.00026
1192.83966,0.00009
1190.77948,0.00000
1188.71931,0.00007
1186.65914,0.00023
1184.59897,0.00037
1182.53880,0.00054
1180.47862,0.00082
1178.41845,0.00113
1176.35828,0.00146
1174.29811,0.00163
1172.23793,0.00165
1170.17776,0.00185
1168.11759,0.00226
1166.05742,0.00265
1163.99725,0.00304
1161.93707,0.00352
1159.87690,0.00403
1157.81673,0.00474
1155.75656,0.00565
1153.69639,0.00654
1151.63621,0.00729
1149.57604,0.00796
1147.51587,0.00858
1145.45570,0.00917
1143.39552,0.00998
1141.33535,0.01120
1139.27518,0.01267
1137.21501,0.01408
1135.15484,0.01551
1133.09466,0.01722
1131.03449,0.01904
1128.97432,0.02072
1126.91415,0.02224
1124.85398,0.02392
1122.79380,0.02601
1120.73363,0.02844
1118.67346,0.03089
1116.61329,0.03297
1114.55312,0.03486
1112.49294,0.03694
1110.43277,0.03924
1108.37260,0.04147
1106.31243,0.04359
1104.25225,0.04582
1102.19208,0.04800
1100.13191,0.04993
1098.07174,0.05178
1096.01157,0.05364
1093.95139,0.05544
1091.89122,0.05708
1089.83105,0.05869
1087.77088,0.06038
1085.71071,0.06203
1083.65053,0.06353
1081.59036,0.06500
1079.53019,0.06676
1077.47002,0.06862
1075.40985,0.06998
1073.34967,0.07075
1071.28950,0.07120
1069.22933,0.07161
1067.16916,0.07207
1065.10898,0.07224
1063.04881,0.07198
1060.98864,0.07156
1058.92847,0.07097
1056.86830,0.06992
1054.80812,0.06826
1052.74795,0.06610
1050.68778,0.06366
1048.62761,0.06105
1046.56744,0.05825
1044.50726,0.05513
1042.44709,0.05178
1040.38692,0.04856
1038.32675,0.04569
1036.26657,0.04305
1034.20640,0.04049
1032.14623,0.03785
1030.08606,0.03512
1028.02589,0.03279
1025.96571,0.03087
1023.90554,0.02908
1021.84537,0.02760
1019.78520,0.02661
1017.72503,0.02591
1015.66485,0.02523
1013.60468,0.02466
1011.54451,0.02443
1009.48434,0.02462
1007.42417,0.02520
1005.36399,0.02612
1003.30382,0.02729
1001.24365,0.02877
999.18348,0.03043
997.12330,0.03195
995.06313,0.03358
993.00296,0.03570
990.94279,0.03761
988.88262,0.03875
986.82244,0.03972
984.76227,0.04067
982.70210,0.04117
980.64193,0.04134
978.58176,0.04106
976.52158,0.04001
974.46141,0.03861
972.40124,0.03740
970.34107,0.03601
968.28089,0.03401
966.22072,0.03171
964.16055,0.02949
962.10038,0.02718
960.04021,0.02478
957.98003,0.02262
955.91986,0.02076
953.85969,0.01911
951.79952,0.01758
949.73935,0.01616
947.67917,0.01473
945.61900,0.01319
943.55883,0.01186
941.49866,0.01079
939.43849,0.00967
937.37831,0.00857
935.31814,0.00771
933.25797,0.00690
931.19780,0.00608
929.13762,0.00539
927.07745,0.00465
925.01728,0.00390
922.95711,0.00351
920.89694,0.00341
918.83676,0.00330
916.77659,0.00300
914.71642,0.00265
912.65625,0.00245
910.59608,0.00217
908.53590,0.00165
906.47573,0.00137
904.41556,0.00160
902.35539,0.00214
900.29522,0.00265
898.23504,0.00298
896.17487,0.00308
894.11470,0.00324
892.05453,0.00376
889.99435,0.00453
887.93418,0.00533
885.87401,0.00607
883.81384,0.00672
881.75367,0.00754
879.69349,0.00852
877.63332,0.00935
875.57315,0.01011
873.51298,0.01067
871.45281,0.01098
869.39263,0.01163
867.33246,0.01254
865.27229,0.01305
863.21212,0.01319
861.15194,0.01352
859.09177,0.01415
857.03160,0.01462
854.97143,0.01456
852.91126,0.01423
850.85108,0.01362
848.79091,0.01263
846.73074,0.01195
844.67057,0.01169
842.61040,0.01157
840.55022,0.01156
838.49005,0.01111
836.42988,0.01011
834.36971,0.00915
832.30954,0.00878
830.24936,0.00874
828.18919,0.00807
826.12902,0.00677
824.06885,0.00579
822.00867,0.00549
819.94850,0.00538
817.88833,0.00492
815.82816,0.00422
813.76799,0.00390
811.70781,0.00412
809.64764,0.00426
807.58747,0.00390
805.52730,0.00346
803.46713,0.00332
801.40695,0.00308
799.34678,0.00250
797.28661,0.00170
795.22644,0.00105
793.16627,0.00086
791.10609,0.00101
789.04592,0.00148
786.98575,0.00216
784.92558,0.00228
782.86540,0.00173
780.80523,0.00125
778.74506,0.00131
776.68489,0.00161
774.62472,0.00163
772.56454,0.00152
770.50437,0.00139
768.44420,0.00139
766.38403,0.00154
764.32386,0.00137
762.26368,0.00096
760.20351,0.00046
758.14334,0.00023
756.08317,0.00041
754.02299,0.00059
751.96282,0.00125
749.90265,0.00207
747.84248,0.00199
745.78231,0.00160
743.72213,0.00132
741.66196,0.00074
739.60179,0.00016
737.54162,0.00000
735.48145,0.00024
733.42127,0.00078
731.36110,0.00104
729.30093,0.00096
727.24076,0.00111
725.18059,0.00153
723.12041,0.00280
721.06024,0.00277
719.00007,0.00251
716.93990,0.00242
714.87972,0.00202
712.81955,0.00143
710.75938,0.00097
708.69921,0.00113
706.63904,0.00171
704.57886,0.00223
702.51869,0.00281
700.45852,0.00341
698.39835,0.00368
696.33818,0.00370
694.27800,0.00377
692.21783,0.00385
690.15766,0.00369
688.09749,0.00309
686.03731,0.00211
683.97714,0.00129
681.91697,0.00115
679.85680,0.00147
677.79663,0.00205
675.73645,0.00270
673.67628,0.00229
671.61611,0.00000
669.55594,0.00019
667.49577,0.00344
665.43559,0.00092
663.37542,0.00277
661.31525,0.00453
659.25508,0.00415
657.19491,0.00249
655.13473,0.00086
653.07456,0.00040
651.01439,0.00073
648.95422,0.00100
646.89404,0.00113
644.83387,0.00147
642.77370,0.00172
640.71353,0.00147
638.65336,0.00083
636.59318,0.00044
634.53301,0.00107
632.47284,0.00193
630.41267,0.00083
628.35250,-0.00111
626.29232,-0.00084
624.23215,0.00009
622.17198,-0.00015
620.11181,0.00070
618.05164,0.00174
615.99146,0.00076
613.93129,-0.00054
611.87112,-0.00027
609.81095,0.00056
607.75077,0.00091
605.69060,0.00075
603.63043,0.00034
601.57026,-0.00052
599.51009,0.00000
