3996.73391,-0.00149
3994.67373,-0.00170
3992.61356,-0.00159
3990.55339,-0.00117
3988.49322,-0.00079
3986.43305,-0.00053
3984.37287,-0.00048
3982.31270,-0.00059
3980.25253,-0.00068
3978.19236,-0.00069
3976.13219,-0.00069
3974.07201,-0.00067
3972.01184,-0.00060
3969.95167,-0.00047
3967.89150,-0.00025
3965.83133,0.00002
3963.77115,0.00012
3961.71098,-0.00003
3959.65081,-0.00023
3957.59064,-0.00024
3955.53046,-0.00000
3953.47029,0.00032
3951.41012,0.00041
3949.34995,0.00020
3947.28978,0.00000
3945.22960,0.00003
3943.16943,0.00014
3941.10926,0.00021
3939.04909,0.00026
3936.98892,0.00032
3934.92874,0.00033
3932.86857,0.00044
3930.80840,0.00080
3928.74823,0.00110
3926.68805,0.00106
3924.62788,0.00072
3922.56771,0.00025
3920.50754,0.00000
3918.44737,0.00016
3916.38719,0.00071
3914.32702,0.00124
3912.26685,0.00129
3910.20668,0.00102
3908.14651,0.00085
3906.08633,0.00093
3904.02616,0.00100
3901.96599,0.00102
3899.90582,0.00137
3897.84565,0.00165
3895.78547,0.00146
3893.72530,0.00120
3891.66513,0.00124
3889.60496,0.00127
3887.54478,0.00105
3885.48461,0.00086
3883.42444,0.00077
3881.36427,0.00075
3879.30410,0.00102
3877.24392,0.00134
3875.18375,0.00134
3873.12358,0.00108
3871.06341,0.00097
3869.00324,0.00122
3866.94306,0.00134
3864.88289,0.00136
3862.82272,0.00166
3860.76255,0.00184
3858.70237,0.00139
3856.64220,0.00041
3854.58203,0.00000
3852.52186,0.00112
3850.46169,0.00239
3848.40151,0.00229
3846.34134,0.00165
3844.28117,0.00151
3842.22100,0.00178
3840.16083,0.00173
3838.10065,0.00134
3836.04048,0.00143
3833.98031,0.00209
3831.92014,0.00278
3829.85997,0.00313
3827.79979,0.00308
3825.73962,0.00273
3823.67945,0.00231
3821.61928,0.00236
3819.55910,0.00271
3817.49893,0.00281
3815.43876,0.00283
3813.37859,0.00286
3811.31842,0.00266
3809.25824,0.00230
3807.19807,0.00204
3805.13790,0.00200
3803.07773,0.00222
3801.01756,0.00262
3798.95738,0.00262
3796.89721,0.00244
3794.83704,0.00278
3792.77687,0.00323
3790.71670,0.00320
3788.65652,0.00297
3786.59635,0.00296
3784.53618,0.00314
3782.47601,0.00332
3780.41583,0.00357
3778.35566,0.00388
3776.29549,0.00403
3774.23532,0.00393
3772.17515,0.00363
3770.11497,0.00314
3768.05480,0.00269
3765.99463,0.00257
3763.93446,0.00262
3761.87429,0.00248
3759.81411,0.00223
3757.75394,0.00201
3755.69377,0.00181
3753.63360,0.00146
3751.57342,0.00097
3749.51325,0.00071
3747.45308,0.00072
3745.39291,0.00072
3743.33274,0.00109
3741.27256,0.00132
3739.21239,0.00103
3737.15222,0.00088
3735.09205,0.00123
3733.03188,0.00170
3730.97170,0.00206
3728.91153,0.00198
3726.85136,0.00185
3724.79119,0.00218
3722.73102,0.00253
3720.67084,0.00271
3718.61067,0.00249
3716.55050,0.00229
3714.49033,0.00229
3712.43015,0.00231
3710.36998,0.00277
3708.30981,0.00315
3706.24964,0.00341
3704.18947,0.00356
3702.12929,0.00362
3700.06912,0.00374
3698.00895,0.00382
3695.94878,0.00380
3693.88861,0.00363
3691.82843,0.00373
3689.76826,0.00403
3687.70809,0.00432
3685.64792,0.00428
3683.58775,0.00416
3681.52757,0.00390
3679.46740,0.00352
3677.40723,0.00343
3675.34706,0.00411
3673.28688,0.00466
3671.22671,0.00478
3669.16654,0.00516
3667.10637,0.00544
3665.04620,0.00534
3662.98602,0.00517
3660.92585,0.00502
3658.86568,0.00493
3656.80551,0.00510
3654.74534,0.00534
3652.68516,0.00533
3650.62499,0.00537
3648.56482,0.00586
3646.50465,0.00649
3644.44447,0.00656
3642.38430,0.00658
3640.32413,0.00687
3638.26396,0.00707
3636.20379,0.00717
3634.14361,0.00743
3632.08344,0.00800
3630.02327,0.00875
3627.96310,0.00952
3625.90293,0.00972
3623.84275,0.00961
3621.78258,0.00959
3619.72241,0.00978
3617.66224,0.01008
3615.60207,0.01008
3613.54189,0.01013
3611.48172,0.01036
3609.42155,0.01093
3607.36138,0.01164
3605.30120,0.01205
3603.24103,0.01238
3601.18086,0.01268
3599.12069,0.01299
3597.06052,0.01320
3595.00034,0.01362
3592.94017,0.01401
3590.88000,0.01438
3588.81983,0.01454
3586.75966,0.01477
3584.69948,0.01521
3582.63931,0.01582
3580.57914,0.01652
3578.51897,0.01708
3576.45879,0.01740
3574.39862,0.01752
3572.33845,0.01760
3570.27828,0.01781
3568.21811,0.01822
3566.15793,0.01883
3564.09776,0.01925
3562.03759,0.01939
3559.97742,0.01973
3557.91725,0.02039
3555.85707,0.02101
3553.79690,0.02131
3551.73673,0.02132
3549.67656,0.02121
3547.61639,0.02114
3545.55621,0.02139
3543.49604,0.02198
3541.43587,0.02265
3539.37570,0.02318
3537.31552,0.02350
3535.25535,0.02386
3533.19518,0.02440
3531.13501,0.02485
3529.07484,0.02505
3527.01466,0.02509
3524.95449,0.02529
3522.89432,0.02581
3520.83415,0.02639
3518.77398,0.02672
3516.71380,0.02693
3514.65363,0.02728
3512.59346,0.02776
3510.53329,0.02817
3508.47312,0.02842
3506.41294,0.02846
3504.35277,0.02840
3502.29260,0.02862
3500.23243,0.02925
3498.17225,0.03004
3496.11208,0.03061
3494.05191,0.03086
3491.99174,0.03096
3489.93157,0.03114
3487.87139,0.03133
3485.81122,0.03144
3483.75105,0.03163
3481.69088,0.03206
3479.63071,0.03245
3477.57053,0.03271
3475.51036,0.03310
3473.45019,0.03361
3471.39002,0.03410
3469.32984,0.03444
3467.26967,0.03456
3465.20950,0.03465
3463.14933,0.03489
3461.08916,0.03516
3459.02898,0.03536
3456.96881,0.03550
3454.90864,0.03579
3452.84847,0.03636
3450.78830,0.03684
3448.72812,0.03694
3446.66795,0.03698
3444.60778,0.03710
3442.54761,0.03715
3440.48744,0.03725
3438.42726,0.03759
3436.36709,0.03798
3434.30692,0.03824
3432.24675,0.03841
3430.18657,0.03858
3428.12640,0.03875
3426.06623,0.03870
3424.00606,0.03854
3421.94589,0.03874
3419.88571,0.03922
3417.82554,0.03957
3415.76537,0.03976
3413.70520,0.03992
3411.64503,0.04008
3409.58485,0.04031
3407.52468,0.04061
3405.46451,0.04093
3403.40434,0.04116
3401.34416,0.04120
3399.28399,0.04090
3397.22382,0.04124
3395.16365,0.04160
3393.10348,0.04166
3391.04330,0.04175
3388.98313,0.04207
3386.92296,0.04234
3384.86279,0.04247
3382.80262,0.04265
3380.74244,0.04287
3378.68227,0.04310
3376.62210,0.04332
3374.56193,0.04353
3372.50176,0.04368
3370.44158,0.04374
3368.38141,0.04372
3366.32124,0.04374
3364.26107,0.04392
3362.20089,0.04412
3360.14072,0.04423
3358.08055,0.04434
3356.02038,0.04453
3353.96021,0.04469
3351.90003,0.04472
3349.83986,0.04475
3347.77969,0.04492
3345.71952,0.04506
3343.65935,0.04514
3341.59917,0.04509
3339.53900,0.04490
3337.47883,0.04492
3335.41866,0.04518
3333.35849,0.04540
3331.29831,0.04565
3329.23814,0.04592
3327.17797,0.04594
3325.11780,0.04568
3323.05762,0.04555
3320.99745,0.04580
3318.93728,0.04614
3316.87711,0.04628
3314.81694,0.04609
3312.75676,0.04573
3310.69659,0.04572
3308.63642,0.04621
3306.57625,0.04666
3304.51608,0.04681
3302.45590,0.04698
3300.39573,0.04716
3298.33556,0.04708
3296.27539,0.04687
3294.21521,0.04672
3292.15504,0.04664
3290.09487,0.04666
3288.03470,0.04687
3285.97453,0.04711
3283.91435,0.04729
3281.85418,0.04748
3279.79401,0.04749
3277.73384,0.04726
3275.67367,0.04714
3273.61349,0.04723
3271.55332,0.04731
3269.49315,0.04741
3267.43298,0.04760
3265.37281,0.04773
3263.31263,0.04769
3261.25246,0.04762
3259.19229,0.04763
3257.13212,0.04757
3255.07194,0.04755
3253.01177,0.04769
3250.95160,0.04781
3248.89143,0.04786
3246.83126,0.04782
3244.77108,0.04780
3242.71091,0.04789
3240.65074,0.04785
3238.59057,0.04765
3236.53040,0.04757
3234.47022,0.04768
3232.41005,0.04794
3230.34988,0.04812
3228.28971,0.04796
3226.22954,0.04774
3224.16936,0.04774
3222.10919,0.04773
3220.04902,0.04763
3217.98885,0.04774
3215.92867,0.04796
3213.86850,0.04801
3211.80833,0.04790
3209.74816,0.04774
3207.68799,0.04755
3205.62781,0.04752
3203.56764,0.04766
3201.50747,0.04771
3199.44730,0.04769
3197.38713,0.04772
3195.32695,0.04766
3193.26678,0.04752
3191.20661,0.04741
3189.14644,0.04737
3187.08626,0.04729
3185.02609,0.04719
3182.96592,0.04716
3180.90575,0.04717
3178.84558,0.04710
3176.78540,0.04712
3174.72523,0.04725
3172.66506,0.04724
3170.60489,0.04710
3168.54472,0.04696
3166.48454,0.04687
3164.42437,0.04689
3162.36420,0.04686
3160.30403,0.04668
3158.24386,0.04648
3156.18368,0.04630
3154.12351,0.04611
3152.06334,0.04602
3150.00317,0.04606
3147.94299,0.04600
3145.88282,0.04588
3143.82265,0.04585
3141.76248,0.04588
3139.70231,0.04584
3137.64213,0.04573
3135.58196,0.04564
3133.52179,0.04551
3131.46162,0.04536
3129.40145,0.04529
3127.34127,0.04528
3125.28110,0.04516
3123.22093,0.04485
3121.16076,0.04455
3119.10058,0.04449
3117.04041,0.04455
3114.98024,0.04451
3112.92007,0.04446
3110.85990,0.04441
3108.79972,0.04425
3106.73955,0.04396
3104.67938,0.04364
3102.61921,0.04347
3100.55904,0.04350
3098.49886,0.04348
3096.43869,0.04333
3094.37852,0.04325
3092.31835,0.04320
3090.25818,0.04303
3088.19800,0.04276
3086.13783,0.04262
3084.07766,0.04269
3082.01749,0.04272
3079.95731,0.04261
3077.89714,0.04249
3075.83697,0.04242
3073.77680,0.04230
3071.71663,0.04206
3069.65645,0.04185
3067.59628,0.04170
3065.53611,0.04159
3063.47594,0.04165
3061.41577,0.04169
3059.35559,0.04145
3057.29542,0.04113
3055.23525,0.04089
3053.17508,0.04069
3051.11491,0.04054
3049.05473,0.04048
3046.99456,0.04047
3044.93439,0.04039
3042.87422,0.04023
3040.81404,0.04001
3038.75387,0.03977
3036.69370,0.03965
3034.63353,0.03960
3032.57336,0.03938
3030.51318,0.03904
3028.45301,0.03882
3026.39284,0.03869
3024.33267,0.03862
3022.27250,0.03858
3020.21232,0.03839
3018.15215,0.03813
3016.09198,0.03785
3014.03181,0.03755
3011.97163,0.03722
3009.91146,0.03694
3007.85129,0.03684
3005.79112,0.03689
3003.73095,0.03689
3001.67077,0.03677
2999.61060,0.03667
2997.55043,0.03654
2995.49026,0.03645
2993.43009,0.03644
2991.36991,0.03652
2989.30974,0.03649
2987.24957,0.03636
2985.18940,0.03623
2983.12923,0.03610
2981.06905,0.03610
2979.00888,0.03622
2976.94871,0.03629
2974.88854,0.03612
2972.82836,0.03580
2970.76819,0.03560
2968.70802,0.03553
2966.64785,0.03546
2964.58768,0.03532
2962.52750,0.03525
2960.46733,0.03535
2958.40716,0.03550
2956.34699,0.03553
2954.28682,0.03548
2952.22664,0.03550
2950.16647,0.03547
2948.10630,0.03537
2946.04613,0.03533
2943.98596,0.03531
2941.92578,0.03518
2939.86561,0.03499
2937.80544,0.03487
2935.74527,0.03485
2933.68509,0.03495
2931.62492,0.03500
2929.56475,0.03491
2927.50458,0.03479
2925.44441,0.03467
2923.38423,0.03453
2921.32406,0.03449
2919.26389,0.03451
2917.20372,0.03446
2915.14355,0.03446
2913.08337,0.03442
2911.02320,0.03421
2908.96303,0.03401
2906.90286,0.03390
2904.84268,0.03374
2902.78251,0.03365
2900.72234,0.03359
2898.66217,0.03353
2896.60200,0.03357
2894.54182,0.03358
2892.48165,0.03353
2890.42148,0.03353
2888.36131,0.03363
2886.30114,0.03367
2884.24096,0.03367
2882.18079,0.03370
2880.12062,0.03357
2878.06045,0.03332
2876.00028,0.03317
2873.94010,0.03308
2871.87993,0.03299
2869.81976,0.03297
2867.75959,0.03295
2865.69941,0.03284
2863.63924,0.03262
2861.57907,0.03237
2859.51890,0.03213
2857.45873,0.03198
2855.39855,0.03198
2853.33838,0.03197
2851.27821,0.03184
2849.21804,0.03178
2847.15787,0.03186
2845.09769,0.03188
2843.03752,0.03170
2840.97735,0.03145
2838.91718,0.03121
2836.85700,0.03100
2834.79683,0.03086
2832.73666,0.03074
2830.67649,0.03065
2828.61632,0.03052
2826.55614,0.03038
2824.49597,0.03039
2822.43580,0.03036
2820.37563,0.03012
2818.31546,0.02991
2816.25528,0.02984
2814.19511,0.02986
2812.13494,0.02986
2810.07477,0.02970
2808.01460,0.02950
2805.95442,0.02933
2803.89425,0.02913
2801.83408,0.02903
2799.77391,0.02905
2797.71373,0.02898
2795.65356,0.02881
2793.59339,0.02870
2791.53322,0.02862
2789.47305,0.02851
2787.41287,0.02836
2785.35270,0.02827
2783.29253,0.02824
2781.23236,0.02817
2779.17219,0.02807
2777.11201,0.02796
2775.05184,0.02778
2772.99167,0.02759
2770.93150,0.02749
2768.87133,0.02743
2766.81115,0.02728
2764.75098,0.02713
2762.69081,0.02701
2760.63064,0.02685
2758.57046,0.02678
2756.51029,0.02685
2754.45012,0.02688
2752.38995,0.02690
2750.32978,0.02691
2748.26960,0.02676
2746.20943,0.02648
2744.14926,0.02622
2742.08909,0.02611
2740.02892,0.02611
2737.96874,0.02601
2735.90857,0.02582
2733.84840,0.02576
2731.78823,0.02585
2729.72805,0.02592
2727.66788,0.02585
2725.60771,0.02568
2723.54754,0.02549
2721.48737,0.02531
2719.42719,0.02514
2717.36702,0.02504
2715.30685,0.02498
2713.24668,0.02487
2711.18651,0.02479
2709.12633,0.02475
2707.06616,0.02466
2705.00599,0.02457
2702.94582,0.02450
2700.88565,0.02446
2698.82547,0.02436
2696.76530,0.02412
2694.70513,0.02393
2692.64496,0.02394
2690.58478,0.02401
2688.52461,0.02396
2686.46444,0.02383
2684.40427,0.02379
2682.34410,0.02374
2680.28392,0.02359
2678.22375,0.02352
2676.16358,0.02352
2674.10341,0.02347
2672.04324,0.02331
2669.98306,0.02311
2667.92289,0.02297
2665.86272,0.02293
2663.80255,0.02294
2661.74238,0.02298
2659.68220,0.02294
2657.62203,0.02277
2655.56186,0.02261
2653.50169,0.02258
2651.44151,0.02261
2649.38134,0.02251
2647.32117,0.02234
2645.26100,0.02217
2643.20083,0.02199
2641.14065,0.02188
2639.08048,0.02182
2637.02031,0.02183
2634.96014,0.02193
2632.89997,0.02191
2630.83979,0.02173
2628.77962,0.02158
2626.71945,0.02153
2624.65928,0.02156
2622.59910,0.02151
2620.53893,0.02140
2618.47876,0.02144
2616.41859,0.02152
2614.35842,0.02150
2612.29824,0.02150
2610.23807,0.02149
2608.17790,0.02141
2606.11773,0.02133
2604.05756,0.02127
2601.99738,0.02127
2599.93721,0.02117
2597.87704,0.02093
2595.81687,0.02076
2593.75670,0.02080
2591.69652,0.02087
2589.63635,0.02089
2587.57618,0.02098
2585.51601,0.02110
2583.45583,0.02117
2581.39566,0.02119
2579.33549,0.02106
2577.27532,0.02083
2575.21515,0.02077
2573.15497,0.02089
2571.09480,0.02088
2569.03463,0.02077
2566.97446,0.02083
2564.91429,0.02102
2562.85411,0.02113
2560.79394,0.02122
2558.73377,0.02132
2556.67360,0.02126
2554.61342,0.02110
2552.55325,0.02100
2550.49308,0.02098
2548.43291,0.02104
2546.37274,0.02111
2544.31256,0.02113
2542.25239,0.02109
2540.19222,0.02093
2538.13205,0.02074
2536.07188,0.02072
2534.01170,0.02084
2531.95153,0.02106
2529.89136,0.02130
2527.83119,0.02143
2525.77102,0.02162
2523.71084,0.02181
2521.65067,0.02160
2519.59050,0.02131
2517.53033,0.02131
2515.47015,0.02135
2513.40998,0.02139
2511.34981,0.02151
2509.28964,0.02166
2507.22947,0.02180
2505.16929,0.02182
2503.10912,0.02177
2501.04895,0.02178
2498.98878,0.02170
2496.92861,0.02174
2494.86843,0.02208
2492.80826,0.02238
2490.74809,0.02244
2488.68792,0.02234
2486.62775,0.02232
2484.56757,0.02252
2482.50740,0.02266
2480.44723,0.02253
2478.38706,0.02240
2476.32688,0.02250
2474.26671,0.02283
2472.20654,0.02308
2470.14637,0.02296
2468.08620,0.02277
2466.02602,0.02283
2463.96585,0.02313
2461.90568,0.02356
2459.84551,0.02379
2457.78534,0.02362
2455.72516,0.02333
2453.66499,0.02322
2451.60482,0.02324
2449.54465,0.02320
2447.48447,0.02327
2445.42430,0.02353
2443.36413,0.02376
2441.30396,0.02377
2439.24379,0.02360
2437.18361,0.02349
2435.12344,0.02349
2433.06327,0.02342
2431.00310,0.02330
2428.94293,0.02343
2426.88275,0.02369
2424.82258,0.02360
2422.76241,0.02342
2420.70224,0.02345
2418.64207,0.02340
2416.58189,0.02328
2414.52172,0.02324
2412.46155,0.02315
2410.40138,0.02301
2408.34120,0.02300
2406.28103,0.02323
2404.22086,0.02354
2402.16069,0.02364
2400.10052,0.02349
2398.04034,0.02350
2395.98017,0.02357
2393.92000,0.02356
2391.85983,0.02342
2389.79966,0.02327
2387.73948,0.02317
2385.67931,0.02321
2383.61914,0.02315
2381.55897,0.02278
2379.49880,0.02262
2377.43862,0.02257
2375.37845,0.02149
2373.31828,0.02189
2371.25811,0.02239
2369.19793,0.02154
2367.13776,0.02114
2365.07759,0.02216
2363.01742,0.02030
2360.95725,0.02213
2358.89707,0.02097
2356.83690,0.02027
2354.77673,0.01873
2352.71656,0.02018
2350.65639,0.02721
2348.59621,0.03185
2346.53604,0.02020
2344.47587,0.01821
2342.41570,0.02126
2340.35552,0.02352
2338.29535,0.02363
2336.23518,0.02375
2334.17501,0.02387
2332.11484,0.02285
2330.05466,0.02227
2327.99449,0.01999
2325.93432,0.02194
2323.87415,0.02122
2321.81398,0.02201
2319.75380,0.02048
2317.69363,0.02165
2315.63346,0.02160
2313.57329,0.02029
2311.51312,0.02043
2309.45294,0.02091
2307.39277,0.02127
2305.33260,0.02150
2303.27243,0.02178
2301.21225,0.02152
2299.15208,0.02150
2297.09191,0.02136
2295.03174,0.02084
2292.97157,0.02079
2290.91139,0.02089
2288.85122,0.02082
2286.79105,0.02075
2284.73088,0.02071
2282.67071,0.02072
2280.61053,0.02088
2278.55036,0.02094
2276.49019,0.02077
2274.43002,0.02067
2272.36984,0.02035
2270.30967,0.02013
2268.24950,0.02022
2266.18933,0.02017
2264.12916,0.01998
2262.06898,0.02017
2260.00881,0.02052
2257.94864,0.02071
2255.88847,0.02039
2253.82830,0.02004
2251.76812,0.01982
2249.70795,0.01946
2247.64778,0.01949
2245.58761,0.01988
2243.52744,0.01949
2241.46726,0.01874
2239.40709,0.01864
2237.34692,0.01874
2235.28675,0.01874
2233.22657,0.01909
2231.16640,0.01967
2229.10623,0.02004
2227.04606,0.01992
2224.98589,0.01950
2222.92571,0.01905
2220.86554,0.01870
2218.80537,0.01849
2216.74520,0.01835
2214.68503,0.01836
2212.62485,0.01843
2210.56468,0.01829
2208.50451,0.01792
2206.44434,0.01752
2204.38417,0.01748
2202.32399,0.01774
2200.26382,0.01750
2198.20365,0.01725
2196.14348,0.01757
2194.08330,0.01751
2192.02313,0.01746
2189.96296,0.01782
2187.90279,0.01777
2185.84262,0.01757
2183.78244,0.01746
2181.72227,0.01700
2179.66210,0.01681
2177.60193,0.01720
2175.54176,0.01739
2173.48158,0.01711
2171.42141,0.01653
2169.36124,0.01589
2167.30107,0.01554
2165.24089,0.01556
2163.18072,0.01554
2161.12055,0.01471
2159.06038,0.01370
2157.00021,0.01404
2154.94003,0.01553
2152.87986,0.01711
2150.81969,0.01773
2148.75952,0.01693
2146.69935,0.01595
2144.63917,0.01584
2142.57900,0.01603
2140.51883,0.01587
2138.45866,0.01561
2136.39849,0.01548
2134.33831,0.01538
2132.27814,0.01552
2130.21797,0.01592
2128.15780,0.01630
2126.09762,0.01652
2124.03745,0.01647
2121.97728,0.01645
2119.91711,0.01677
2117.85694,0.01690
2115.79676,0.01653
2113.73659,0.01616
2111.67642,0.01602
2109.61625,0.01589
2107.55608,0.01580
2105.49590,0.01591
2103.43573,0.01615
2101.37556,0.01646
2099.31539,0.01693
2097.25521,0.01703
2095.19504,0.01675
2093.13487,0.01624
2091.07470,0.01587
2089.01453,0.01580
2086.95435,0.01586
2084.89418,0.01581
2082.83401,0.01581
2080.77384,0.01630
2078.71367,0.01694
2076.65349,0.01699
2074.59332,0.01656
2072.53315,0.01617
2070.47298,0.01590
2068.41281,0.01577
2066.35263,0.01577
2064.29246,0.01546
2062.23229,0.01491
2060.17212,0.01486
2058.11194,0.01526
2056.05177,0.01550
2053.99160,0.01587
2051.93143,0.01647
2049.87126,0.01659
2047.81108,0.01665
2045.75091,0.01718
2043.69074,0.01720
2041.63057,0.01648
2039.57040,0.01614
2037.51022,0.01634
2035.45005,0.01637
2033.38988,0.01564
2031.32971,0.01428
2029.26954,0.01344
2027.20936,0.01370
2025.14919,0.01468
2023.08902,0.01565
2021.02885,0.01612
2018.96867,0.01623
2016.90850,0.01611
2014.84833,0.01587
2012.78816,0.01559
2010.72799,0.01557
2008.66781,0.01589
2006.60764,0.01577
2004.54747,0.01543
2002.48730,0.01546
2000.42713,0.01552
1998.36695,0.01574
1996.30678,0.01615
1994.24661,0.01620
1992.18644,0.01562
1990.12626,0.01492
1988.06609,0.01484
1986.00592,0.01502
1983.94575,0.01498
1981.88558,0.01525
1979.82540,0.01608
1977.76523,0.01660
1975.70506,0.01621
1973.64489,0.01576
1971.58472,0.01583
1969.52454,0.01606
1967.46437,0.01628
1965.40420,0.01610
1963.34403,0.01545
1961.28386,0.01488
1959.22368,0.01477
1957.16351,0.01510
1955.10334,0.01563
1953.04317,0.01603
1950.98299,0.01618
1948.92282,0.01642
1946.86265,0.01680
1944.80248,0.01691
1942.74231,0.01666
1940.68213,0.01620
1938.62196,0.01578
1936.56179,0.01574
1934.50162,0.01606
1932.44145,0.01640
1930.38127,0.01658
1928.32110,0.01672
1926.26093,0.01666
1924.20076,0.01628
1922.14059,0.01586
1920.08041,0.01565
1918.02024,0.01574
1915.96007,0.01626
1913.89990,0.01685
1911.83972,0.01706
1909.77955,0.01696
1907.71938,0.01690
1905.65921,0.01706
1903.59904,0.01735
1901.53886,0.01746
1899.47869,0.01718
1897.41852,0.01692
1895.35835,0.01690
1893.29818,0.01680
1891.23800,0.01676
1889.17783,0.01708
1887.11766,0.01752
1885.05749,0.01770
1882.99731,0.01758
1880.93714,0.01728
1878.87697,0.01705
1876.81680,0.01710
1874.75663,0.01732
1872.69645,0.01747
1870.63628,0.01759
1868.57611,0.01775
1866.51594,0.01779
1864.45577,0.01768
1862.39559,0.01756
1860.33542,0.01753
1858.27525,0.01765
1856.21508,0.01794
1854.15491,0.01818
1852.09473,0.01818
1850.03456,0.01801
1847.97439,0.01772
1845.91422,0.01735
1843.85404,0.01723
1841.79387,0.01752
1839.73370,0.01800
1837.67353,0.01844
1835.61336,0.01854
1833.55318,0.01839
1831.49301,0.01846
1829.43284,0.01874
1827.37267,0.01889
1825.31250,0.01895
1823.25232,0.01907
1821.19215,0.01919
1819.13198,0.01916
1817.07181,0.01905
1815.01163,0.01903
1812.95146,0.01895
1810.89129,0.01869
1808.83112,0.01852
1806.77095,0.01868
1804.71077,0.01892
1802.65060,0.01901
1800.59043,0.01907
1798.53026,0.01911
1796.47009,0.01912
1794.40991,0.01920
1792.34974,0.01925
1790.28957,0.01916
1788.22940,0.01895
1786.16923,0.01875
1784.10905,0.01886
1782.04888,0.01927
1779.98871,0.01952
1777.92854,0.01952
1775.86836,0.01957
1773.80819,0.01980
1771.74802,0.01983
1769.68785,0.01949
1767.62768,0.01925
1765.56750,0.01934
1763.50733,0.01961
1761.44716,0.01977
1759.38699,0.01981
1757.32682,0.01998
1755.26664,0.02026
1753.20647,0.02048
1751.14630,0.02065
1749.08613,0.02081
1747.02596,0.02085
1744.96578,0.02093
1742.90561,0.02122
1740.84544,0.02153
1738.78527,0.02160
1736.72509,0.02161
1734.66492,0.02172
1732.60475,0.02176
1730.54458,0.02168
1728.48441,0.02154
1726.42423,0.02147
1724.36406,0.02145
1722.30389,0.02151
1720.24372,0.02178
1718.18355,0.02203
1716.12337,0.02177
1714.06320,0.02149
1712.00303,0.02145
1709.94286,0.02162
1707.88268,0.02187
1705.82251,0.02194
1703.76234,0.02192
1701.70217,0.02226
1699.64200,0.02285
1697.58182,0.02333
1695.52165,0.02369
1693.46148,0.02398
1691.40131,0.02435
1689.34114,0.02500
1687.28096,0.02589
1685.22079,0.02686
1683.16062,0.02742
1681.10045,0.02760
1679.04028,0.02800
1676.98010,0.02880
1674.91993,0.02971
1672.85976,0.03047
1670.79959,0.03111
1668.73941,0.03155
1666.67924,0.03177
1664.61907,0.03208
1662.55890,0.03250
1660.49873,0.03269
1658.43855,0.03275
1656.37838,0.03305
1654.31821,0.03359
1652.25804,0.03379
1650.19787,0.03372
1648.13769,0.03364
1646.07752,0.03348
1644.01735,0.03309
1641.95718,0.03280
1639.89701,0.03290
1637.83683,0.03321
1635.77666,0.03315
1633.71649,0.03254
1631.65632,0.03198
1629.59614,0.03175
1627.53597,0.03178
1625.47580,0.03181
1623.41563,0.03155
1621.35546,0.03104
1619.29528,0.03082
1617.23511,0.03086
1615.17494,0.03056
1613.11477,0.03007
1611.05460,0.02976
1608.99442,0.02962
1606.93425,0.02950
1604.87408,0.02947
1602.81391,0.02939
1600.75373,0.02908
1598.69356,0.02869
1596.63339,0.02844
1594.57322,0.02824
1592.51305,0.02797
1590.45287,0.02763
1588.39270,0.02727
1586.33253,0.02689
1584.27236,0.02648
1582.21219,0.02608
1580.15201,0.02590
1578.09184,0.02593
1576.03167,0.02563
1573.97150,0.02493
1571.91133,0.02453
1569.85115,0.02437
1567.79098,0.02397
1565.73081,0.02347
1563.67064,0.02330
1561.61046,0.02361
1559.55029,0.02374
1557.49012,0.02284
1555.42995,0.02201
1553.36978,0.02164
1551.30960,0.02147
1549.24943,0.02131
1547.18926,0.02120
1545.12909,0.02127
1543.06892,0.02158
1541.00874,0.02186
1538.94857,0.02143
1536.88840,0.02071
1534.82823,0.02041
1532.76805,0.02033
1530.70788,0.02006
1528.64771,0.01971
1526.58754,0.01934
1524.52737,0.01909
1522.46719,0.01904
1520.40702,0.01885
1518.34685,0.01862
1516.28668,0.01833
1514.22651,0.01786
1512.16633,0.01753
1510.10616,0.01772
1508.04599,0.01820
1505.98582,0.01819
1503.92565,0.01769
1501.86547,0.01729
1499.80530,0.01730
1497.74513,0.01748
1495.68496,0.01759
1493.62478,0.01778
1491.56461,0.01798
1489.50444,0.01791
1487.44427,0.01765
1485.38410,0.01751
1483.32392,0.01748
1481.26375,0.01754
1479.20358,0.01768
1477.14341,0.01791
1475.08324,0.01818
1473.02306,0.01831
1470.96289,0.01821
1468.90272,0.01814
1466.84255,0.01835
1464.78238,0.01859
1462.72220,0.01867
1460.66203,0.01892
1458.60186,0.01918
1456.54169,0.01894
1454.48151,0.01866
1452.42134,0.01872
1450.36117,0.01907
1448.30100,0.01942
1446.24083,0.01958
1444.18065,0.01964
1442.12048,0.01973
1440.06031,0.01983
1438.00014,0.01983
1435.93997,0.01974
1433.87979,0.01980
1431.81962,0.02009
1429.75945,0.02051
1427.69928,0.02083
1425.63910,0.02112
1423.57893,0.02143
1421.51876,0.02169
1419.45859,0.02177
1417.39842,0.02180
1415.33824,0.02206
1413.27807,0.02245
1411.21790,0.02275
1409.15773,0.02295
1407.09756,0.02312
1405.03738,0.02324
1402.97721,0.02332
1400.91704,0.02332
1398.85687,0.02315
1396.79670,0.02292
1394.73652,0.02285
1392.67635,0.02282
1390.61618,0.02286
1388.55601,0.02299
1386.49583,0.02311
1384.43566,0.02313
1382.37549,0.02315
1380.31532,0.02325
1378.25515,0.02346
1376.19497,0.02366
1374.13480,0.02358
1372.07463,0.02337
1370.01446,0.02337
1367.95429,0.02351
1365.89411,0.02357
1363.83394,0.02343
1361.77377,0.02320
1359.71360,0.02316
1357.65343,0.02332
1355.59325,0.02342
1353.53308,0.02335
1351.47291,0.02314
1349.41274,0.02287
1347.35256,0.02262
1345.29239,0.02237
1343.23222,0.02202
1341.17205,0.02149
1339.11188,0.02091
1337.05170,0.02066
1334.99153,0.02077
1332.93136,0.02086
1330.87119,0.02072
1328.81102,0.02054
1326.75084,0.02045
1324.69067,0.02037
1322.63050,0.02024
1320.57033,0.02013
1318.51015,0.01998
1316.44998,0.01977
1314.38981,0.01956
1312.32964,0.01942
1310.26947,0.01941
1308.20929,0.01944
1306.14912,0.01943
1304.08895,0.01943
1302.02878,0.01942
1299.96861,0.01942
1297.90843,0.01948
1295.84826,0.01956
1293.78809,0.01957
1291.72792,0.01941
1289.66775,0.01915
1287.60757,0.01901
1285.54740,0.01902
1283.48723,0.01905
1281.42706,0.01902
1279.36688,0.01899
1277.30671,0.01903
1275.24654,0.01914
1273.18637,0.01924
1271.12620,0.01924
1269.06602,0.01914
1267.00585,0.01901
1264.94568,0.01894
1262.88551,0.01900
1260.82534,0.01913
1258.76516,0.01922
1256.70499,0.01922
1254.64482,0.01912
1252.58465,0.01905
1250.52447,0.01908
1248.46430,0.01909
1246.40413,0.01896
1244.34396,0.01877
1242.28379,0.01858
1240.22361,0.01839
1238.16344,0.01821
1236.10327,0.01805
1234.04310,0.01792
1231.98293,0.01782
1229.92275,0.01767
1227.86258,0.01746
1225.80241,0.01726
1223.74224,0.01708
1221.68207,0.01680
1219.62189,0.01656
1217.56172,0.01645
1215.50155,0.01632
1213.44138,0.01610
1211.38120,0.01588
1209.32103,0.01573
1207.26086,0.01568
1205.20069,0.01578
1203.14052,0.01599
1201.08034,0.01617
1199.02017,0.01643
1196.96000,0.01699
1194.89983,0.01755
1192.83966,0.01794
1190.77948,0.01845
1188.71931,0.01926
1186.65914,0.02021
1184.59897,0.02129
1182.53880,0.02246
1180.47862,0.02363
1178.41845,0.02487
1176.35828,0.02600
1174.29811,0.02704
1172.23793,0.02822
1170.17776,0.02950
1168.11759,0.03074
1166.05742,0.03196
1163.99725,0.03319
1161.93707,0.03444
1159.87690,0.03578
1157.81673,0.03722
1155.75656,0.03865
1153.69639,0.04000
1151.63621,0.04142
1149.57604,0.04290
1147.51587,0.04425
1145.45570,0.04547
1143.39552,0.04673
1141.33535,0.04802
1139.27518,0.04914
1137.21501,0.05010
1135.15484,0.05103
1133.09466,0.05198
1131.03449,0.05292
1128.97432,0.05384
1126.91415,0.05475
1124.85398,0.05576
1122.79380,0.05698
1120.73363,0.05828
1118.67346,0.05949
1116.61329,0.06071
1114.55312,0.06206
1112.49294,0.06349
1110.43277,0.06483
1108.37260,0.06616
1106.31243,0.06766
1104.25225,0.06915
1102.19208,0.07050
1100.13191,0.07187
1098.07174,0.07331
1096.01157,0.07468
1093.95139,0.07596
1091.89122,0.07723
1089.83105,0.07854
1087.77088,0.07978
1085.71071,0.08100
1083.65053,0.08228
1081.59036,0.08354
1079.53019,0.08468
1077.47002,0.08573
1075.40985,0.08676
1073.34967,0.08763
1071.28950,0.08811
1069.22933,0.08811
1067.16916,0.08780
1065.10898,0.08734
1063.04881,0.08680
1060.98864,0.08603
1058.92847,0.08483
1056.86830,0.08340
1054.80812,0.08193
1052.74795,0.08024
1050.68778,0.07816
1048.62761,0.07588
1046.56744,0.07363
1044.50726,0.07141
1042.44709,0.06906
1040.38692,0.06653
1038.32675,0.06401
1036.26657,0.06152
1034.20640,0.05901
1032.14623,0.05673
1030.08606,0.05482
1028.02589,0.05303
1025.96571,0.05126
1023.90554,0.04966
1021.84537,0.04822
1019.78520,0.04697
1017.72503,0.04596
1015.66485,0.04527
1013.60468,0.04492
1011.54451,0.04477
1009.48434,0.04489
1007.42417,0.04534
1005.36399,0.04601
1003.30382,0.04694
1001.24365,0.04814
999.18348,0.04952
997.12330,0.05106
995.06313,0.05248
993.00296,0.05356
990.94279,0.05453
988.88262,0.05544
986.82244,0.05615
984.76227,0.05673
982.70210,0.05711
980.64193,0.05726
978.58176,0.05724
976.52158,0.05704
974.46141,0.05680
972.40124,0.05643
970.34107,0.05572
968.28089,0.05468
966.22072,0.05355
964.16055,0.05248
962.10038,0.05147
960.04021,0.05058
957.98003,0.04994
955.91986,0.04937
953.85969,0.04856
951.79952,0.04756
949.73935,0.04672
947.67917,0.04609
945.61900,0.04541
943.55883,0.04454
941.49866,0.04362
939.43849,0.04271
937.37831,0.04185
935.31814,0.04093
933.25797,0.03979
931.19780,0.03865
929.13762,0.03772
927.07745,0.03688
925.01728,0.03607
922.95711,0.03525
920.89694,0.03429
918.83676,0.03329
916.77659,0.03233
914.71642,0.03136
912.65625,0.03047
910.59608,0.02968
908.53590,0.02895
906.47573,0.02841
904.41556,0.02804
902.35539,0.02783
900.29522,0.02769
898.23504,0.02745
896.17487,0.02741
894.11470,0.02771
892.05453,0.02817
889.99435,0.02882
887.93418,0.02946
885.87401,0.03011
883.81384,0.03107
881.75367,0.03215
879.69349,0.03311
877.63332,0.03429
875.57315,0.03581
873.51298,0.03743
871.45281,0.03918
869.39263,0.04107
867.33246,0.04286
865.27229,0.04452
863.21212,0.04609
861.15194,0.04734
859.09177,0.04833
857.03160,0.04909
854.97143,0.04940
852.91126,0.04928
850.85108,0.04882
848.79091,0.04814
846.73074,0.04734
844.67057,0.04645
842.61040,0.04528
840.55022,0.04398
838.49005,0.04281
836.42988,0.04152
834.36971,0.04007
832.30954,0.03869
830.24936,0.03746
828.18919,0.03652
826.12902,0.03570
824.06885,0.03481
822.00867,0.03411
819.94850,0.03351
817.88833,0.03257
815.82816,0.03145
813.76799,0.03053
811.70781,0.02961
809.64764,0.02874
807.58747,0.02829
805.52730,0.02807
803.46713,0.02774
801.40695,0.02717
799.34678,0.02637
797.28661,0.02553
795.22644,0.02495
793.16627,0.02473
791.10609,0.02454
789.04592,0.02414
786.98575,0.02373
784.92558,0.02343
782.86540,0.02316
780.80523,0.02284
778.74506,0.02263
776.68489,0.02249
774.62472,0.02209
772.56454,0.02167
770.50437,0.02161
768.44420,0.02148
766.38403,0.02089
764.32386,0.02034
762.26368,0.02002
760.20351,0.01969
758.14334,0.01937
756.08317,0.01908
754.02299,0.01873
751.96282,0.01853
749.90265,0.01866
747.84248,0.01870
745.78231,0.01840
743.72213,0.01796
741.66196,0.01752
739.60179,0.01712
737.54162,0.01681
735.48145,0.01667
733.42127,0.01691
731.36110,0.01727
729.30093,0.01721
727.24076,0.01687
725.18059,0.01654
723.12041,0.01643
721.06024,0.01541
719.00007,0.01687
716.93990,0.01686
714.87972,0.01629
712.81955,0.01606
710.75938,0.01603
708.69921,0.01607
706.63904,0.01633
704.57886,0.01693
702.51869,0.01737
700.45852,0.01740
698.39835,0.01710
696.33818,0.01686
694.27800,0.01704
692.21783,0.01754
690.15766,0.01833
688.09749,0.01926
686.03731,0.01999
683.97714,0.02058
681.91697,0.02090
679.85680,0.02044
677.79663,0.01924
675.73645,0.01812
673.67628,0.02028
671.61611,0.03085
669.55594,0.02931
667.49577,0.00000
665.43559,0.02407
663.37542,0.02157
661.31525,0.01577
659.25508,0.01525
657.19491,0.01527
655.13473,0.01461
653.07456,0.01430
651.01439,0.01408
648.95422,0.01302
646.89404,0.01314
644.83387,0.01277
642.77370,0.01244
640.71353,0.01188
638.65336,0.01069
636.59318,0.00951
634.53301,0.00868
632.47284,0.00790
630.41267,0.00729
628.35250,0.00689
626.29232,0.00650
624.23215,0.00561
622.17198,0.00542
620.11181,0.00574
618.05164,0.00498
615.99146,0.00308
613.93129,0.00109
611.87112,0.00027
609.81095,0.00105
607.75077,0.00202
605.69060,0.00206
603.63043,0.00140
601.57026,0.00063
599.51009,0.00000
