3996.73391,-0.00051
3994.67373,-0.00044
3992.61356,-0.00030
3990.55339,-0.00011
3988.49322,0.00002
3986.43305,0.00015
3984.37287,0.00030
3982.31270,0.00028
3980.25253,-0.00003
3978.19236,-0.00037
3976.13219,-0.00044
3974.07201,-0.00033
3972.01184,-0.00020
3969.95167,-0.00002
3967.89150,0.00025
3965.83133,0.00045
3963.77115,0.00047
3961.71098,0.00037
3959.65081,0.00019
3957.59064,0.00011
3955.53046,0.00030
3953.47029,0.00057
3951.41012,0.00051
3949.34995,0.00016
3947.28978,0.00000
3945.22960,0.00014
3943.16943,0.00022
3941.10926,0.00028
3939.04909,0.00048
3936.98892,0.00055
3934.92874,0.00024
3932.86857,-0.00007
3930.80840,0.00000
3928.74823,0.00023
3926.68805,0.00032
3924.62788,0.00024
3922.56771,-0.00005
3920.50754,-0.00034
3918.44737,-0.00036
3916.38719,0.00016
3914.32702,0.00090
3912.26685,0.00119
3910.20668,0.00104
3908.14651,0.00076
3906.08633,0.00040
3904.02616,-0.00001
3901.96599,0.00000
3899.90582,0.00062
3897.84565,0.00119
3895.78547,0.00120
3893.72530,0.00090
3891.66513,0.00069
3889.60496,0.00052
3887.54478,0.00029
3885.48461,0.00018
3883.42444,0.00020
3881.36427,0.00032
3879.30410,0.00054
3877.24392,0.00058
3875.18375,0.00041
3873.12358,0.00023
3871.06341,0.00022
3869.00324,0.00044
3866.94306,0.00047
3864.88289,0.00015
3862.82272,-0.00001
3860.76255,0.00022
3858.70237,0.00031
3856.64220,-0.00003
3854.58203,0.00000
3852.52186,0.00083
3850.46169,0.00135
3848.40151,0.00108
3846.34134,0.00078
3844.28117,0.00082
3842.22100,0.00092
3840.16083,0.00084
3838.10065,0.00071
3836.04048,0.00083
3833.98031,0.00120
3831.92014,0.00159
3829.85997,0.00176
3827.79979,0.00161
3825.73962,0.00127
3823.67945,0.00108
3821.61928,0.00126
3819.55910,0.00152
3817.49893,0.00161
3815.43876,0.00167
3813.37859,0.00169
3811.31842,0.00158
3809.25824,0.00143
3807.19807,0.00136
3805.13790,0.00137
3803.07773,0.00160
3801.01756,0.00201
3798.95738,0.00217
3796.89721,0.00217
3794.83704,0.00240
3792.77687,0.00261
3790.71670,0.00266
3788.65652,0.00268
3786.59635,0.00267
3784.53618,0.00262
3782.47601,0.00272
3780.41583,0.00308
3778.35566,0.00342
3776.29549,0.00354
3774.23532,0.00345
3772.17515,0.00327
3770.11497,0.00305
3768.05480,0.00284
3765.99463,0.00271
3763.93446,0.00263
3761.87429,0.00251
3759.81411,0.00230
3757.75394,0.00191
3755.69377,0.00146
3753.63360,0.00094
3751.57342,0.00033
3749.51325,-0.00003
3747.45308,0.00000
3745.39291,0.00017
3743.33274,0.00080
3741.27256,0.00134
3739.21239,0.00132
3737.15222,0.00124
3735.09205,0.00145
3733.03188,0.00157
3730.97170,0.00165
3728.91153,0.00141
3726.85136,0.00108
3724.79119,0.00119
3722.73102,0.00149
3720.67084,0.00206
3718.61067,0.00228
3716.55050,0.00242
3714.49033,0.00267
3712.43015,0.00276
3710.36998,0.00339
3708.30981,0.00371
3706.24964,0.00386
3704.18947,0.00389
3702.12929,0.00373
3700.06912,0.00357
3698.00895,0.00337
3695.94878,0.00317
3693.88861,0.00308
3691.82843,0.00351
3689.76826,0.00391
3687.70809,0.00422
3685.64792,0.00435
3683.58775,0.00453
3681.52757,0.00444
3679.46740,0.00394
3677.40723,0.00348
3675.34706,0.00362
3673.28688,0.00380
3671.22671,0.00400
3669.16654,0.00467
3667.10637,0.00511
3665.04620,0.00500
3662.98602,0.00487
3660.92585,0.00491
3658.86568,0.00491
3656.80551,0.00488
3654.74534,0.00507
3652.68516,0.00557
3650.62499,0.00632
3648.56482,0.00687
3646.50465,0.00706
3644.44447,0.00690
3642.38430,0.00693
3640.32413,0.00718
3638.26396,0.00733
3636.20379,0.00744
3634.14361,0.00767
3632.08344,0.00824
3630.02327,0.00892
3627.96310,0.00945
3625.90293,0.00957
3623.84275,0.00984
3621.78258,0.01013
3619.72241,0.01020
3617.66224,0.01029
3615.60207,0.01031
3613.54189,0.01060
3611.48172,0.01093
3609.42155,0.01157
3607.36138,0.01241
3605.30120,0.01275
3603.24103,0.01297
3601.18086,0.01337
3599.12069,0.01400
3597.06052,0.01434
3595.00034,0.01464
3592.94017,0.01471
3590.88000,0.01509
3588.81983,0.01540
3586.75966,0.01572
3584.69948,0.01626
3582.63931,0.01692
3580.57914,0.01769
3578.51897,0.01840
3576.45879,0.01897
3574.39862,0.01929
3572.33845,0.01937
3570.27828,0.01928
3568.21811,0.01937
3566.15793,0.01997
3564.09776,0.02066
3562.03759,0.02104
3559.97742,0.02132
3557.91725,0.02164
3555.85707,0.02197
3553.79690,0.02240
3551.73673,0.02281
3549.67656,0.02289
3547.61639,0.02274
3545.55621,0.02288
3543.49604,0.02349
3541.43587,0.02430
3539.37570,0.02511
3537.31552,0.02573
3535.25535,0.02615
3533.19518,0.02651
3531.13501,0.02681
3529.07484,0.02697
3527.01466,0.02713
3524.95449,0.02745
3522.89432,0.02799
3520.83415,0.02860
3518.77398,0.02907
3516.71380,0.02940
3514.65363,0.02968
3512.59346,0.02996
3510.53329,0.03026
3508.47312,0.03058
3506.41294,0.03084
3504.35277,0.03093
3502.29260,0.03109
3500.23243,0.03163
3498.17225,0.03238
3496.11208,0.03297
3494.05191,0.03331
3491.99174,0.03358
3489.93157,0.03386
3487.87139,0.03405
3485.81122,0.03414
3483.75105,0.03442
3481.69088,0.03495
3479.63071,0.03540
3477.57053,0.03571
3475.51036,0.03600
3473.45019,0.03627
3471.39002,0.03658
3469.32984,0.03701
3467.26967,0.03731
3465.20950,0.03741
3463.14933,0.03756
3461.08916,0.03792
3459.02898,0.03844
3456.96881,0.03911
3454.90864,0.03970
3452.84847,0.03998
3450.78830,0.04000
3448.72812,0.03995
3446.66795,0.04002
3444.60778,0.04018
3442.54761,0.04033
3440.48744,0.04050
3438.42726,0.04082
3436.36709,0.04121
3434.30692,0.04152
3432.24675,0.04168
3430.18657,0.04179
3428.12640,0.04202
3426.06623,0.04223
3424.00606,0.04234
3421.94589,0.04256
3419.88571,0.04293
3417.82554,0.04346
3415.76537,0.04404
3413.70520,0.04439
3411.64503,0.04434
3409.58485,0.04413
3407.52468,0.04425
3405.46451,0.04469
3403.40434,0.04499
3401.34416,0.04498
3399.28399,0.04466
3397.22382,0.04492
3395.16365,0.04522
3393.10348,0.04538
3391.04330,0.04566
3388.98313,0.04601
3386.92296,0.04615
3384.86279,0.04620
3382.80262,0.04635
3380.74244,0.04657
3378.68227,0.04700
3376.62210,0.04753
3374.56193,0.04779
3372.50176,0.04768
3370.44158,0.04767
3368.38141,0.04792
3366.32124,0.04811
3364.26107,0.04815
3362.20089,0.04824
3360.14072,0.04837
3358.08055,0.04844
3356.02038,0.04847
3353.96021,0.04846
3351.90003,0.04842
3349.83986,0.04857
3347.77969,0.04892
3345.71952,0.04910
3343.65935,0.04917
3341.59917,0.04923
3339.53900,0.04907
3337.47883,0.04892
3335.41866,0.04916
3333.35849,0.04957
3331.29831,0.04999
3329.23814,0.05044
3327.17797,0.05071
3325.11780,0.05065
3323.05762,0.05047
3320.99745,0.05045
3318.93728,0.05057
3316.87711,0.05070
3314.81694,0.05066
3312.75676,0.05044
3310.69659,0.05032
3308.63642,0.05039
3306.57625,0.05054
3304.51608,0.05080
3302.45590,0.05111
3300.39573,0.05115
3298.33556,0.05103
3296.27539,0.05113
3294.21521,0.05131
3292.15504,0.05134
3290.09487,0.05132
3288.03470,0.05143
3285.97453,0.05155
3283.91435,0.05157
3281.85418,0.05165
3279.79401,0.05172
3277.73384,0.05161
3275.67367,0.05146
3273.61349,0.05153
3271.55332,0.05164
3269.49315,0.05166
3267.43298,0.05185
3265.37281,0.05227
3263.31263,0.05252
3261.25246,0.05247
3259.19229,0.05241
3257.13212,0.05240
3255.07194,0.05225
3253.01177,0.05205
3250.95160,0.05208
3248.89143,0.05236
3246.83126,0.05260
3244.77108,0.05263
3242.71091,0.05258
3240.65074,0.05252
3238.59057,0.05239
3236.53040,0.05227
3234.47022,0.05227
3232.41005,0.05236
3230.34988,0.05238
3228.28971,0.05237
3226.22954,0.05243
3224.16936,0.05241
3222.10919,0.05211
3220.04902,0.05181
3217.98885,0.05196
3215.92867,0.05231
3213.86850,0.05245
3211.80833,0.05242
3209.74816,0.05231
3207.68799,0.05227
3205.62781,0.05235
3203.56764,0.05235
3201.50747,0.05214
3199.44730,0.05204
3197.38713,0.05214
3195.32695,0.05216
3193.26678,0.05199
3191.20661,0.05184
3189.14644,0.05179
3187.08626,0.05168
3185.02609,0.05141
3182.96592,0.05117
3180.90575,0.05119
3178.84558,0.05143
3176.78540,0.05163
3174.72523,0.05161
3172.66506,0.05142
3170.60489,0.05134
3168.54472,0.05140
3166.48454,0.05130
3164.42437,0.05106
3162.36420,0.05088
3160.30403,0.05091
3158.24386,0.05104
3156.18368,0.05099
3154.12351,0.05073
3152.06334,0.05060
3150.00317,0.05056
3147.94299,0.05033
3145.88282,0.05005
3143.82265,0.04997
3141.76248,0.05005
3139.70231,0.05010
3137.64213,0.05004
3135.58196,0.04983
3133.52179,0.04952
3131.46162,0.04942
3129.40145,0.04944
3127.34127,0.04928
3125.28110,0.04903
3123.22093,0.04892
3121.16076,0.04886
3119.10058,0.04872
3117.04041,0.04849
3114.98024,0.04820
3112.92007,0.04799
3110.85990,0.04799
3108.79972,0.04800
3106.73955,0.04792
3104.67938,0.04781
3102.61921,0.04761
3100.55904,0.04740
3098.49886,0.04736
3096.43869,0.04731
3094.37852,0.04713
3092.31835,0.04702
3090.25818,0.04694
3088.19800,0.04677
3086.13783,0.04662
3084.07766,0.04652
3082.01749,0.04633
3079.95731,0.04614
3077.89714,0.04610
3075.83697,0.04609
3073.77680,0.04594
3071.71663,0.04579
3069.65645,0.04578
3067.59628,0.04569
3065.53611,0.04550
3063.47594,0.04543
3061.41577,0.04538
3059.35559,0.04515
3057.29542,0.04480
3055.23525,0.04454
3053.17508,0.04440
3051.11491,0.04428
3049.05473,0.04411
3046.99456,0.04395
3044.93439,0.04382
3042.87422,0.04370
3040.81404,0.04354
3038.75387,0.04338
3036.69370,0.04331
3034.63353,0.04325
3032.57336,0.04302
3030.51318,0.04270
3028.45301,0.04241
3026.39284,0.04220
3024.33267,0.04211
3022.27250,0.04206
3020.21232,0.04190
3018.15215,0.04162
3016.09198,0.04125
3014.03181,0.04092
3011.97163,0.04075
3009.91146,0.04070
3007.85129,0.04057
3005.79112,0.04041
3003.73095,0.04028
3001.67077,0.04010
2999.61060,0.03993
2997.55043,0.03975
2995.49026,0.03967
2993.43009,0.03963
2991.36991,0.03960
2989.30974,0.03951
2987.24957,0.03943
2985.18940,0.03945
2983.12923,0.03947
2981.06905,0.03947
2979.00888,0.03942
2976.94871,0.03931
2974.88854,0.03913
2972.82836,0.03889
2970.76819,0.03878
2968.70802,0.03891
2966.64785,0.03904
2964.58768,0.03905
2962.52750,0.03904
2960.46733,0.03903
2958.40716,0.03908
2956.34699,0.03914
2954.28682,0.03905
2952.22664,0.03902
2950.16647,0.03912
2948.10630,0.03905
2946.04613,0.03879
2943.98596,0.03856
2941.92578,0.03848
2939.86561,0.03846
2937.80544,0.03848
2935.74527,0.03853
2933.68509,0.03856
2931.62492,0.03856
2929.56475,0.03844
2927.50458,0.03823
2925.44441,0.03810
2923.38423,0.03805
2921.32406,0.03800
2919.26389,0.03790
2917.20372,0.03775
2915.14355,0.03765
2913.08337,0.03759
2911.02320,0.03742
2908.96303,0.03724
2906.90286,0.03714
2904.84268,0.03705
2902.78251,0.03689
2900.72234,0.03673
2898.66217,0.03677
2896.60200,0.03685
2894.54182,0.03674
2892.48165,0.03651
2890.42148,0.03639
2888.36131,0.03646
2886.30114,0.03651
2884.24096,0.03649
2882.18079,0.03650
2880.12062,0.03643
2878.06045,0.03628
2876.00028,0.03618
2873.94010,0.03604
2871.87993,0.03588
2869.81976,0.03582
2867.75959,0.03574
2865.69941,0.03556
2863.63924,0.03533
2861.57907,0.03518
2859.51890,0.03511
2857.45873,0.03501
2855.39855,0.03490
2853.33838,0.03483
2851.27821,0.03473
2849.21804,0.03456
2847.15787,0.03438
2845.09769,0.03422
2843.03752,0.03409
2840.97735,0.03394
2838.91718,0.03378
2836.85700,0.03361
2834.79683,0.03340
2832.73666,0.03316
2830.67649,0.03303
2828.61632,0.03297
2826.55614,0.03290
2824.49597,0.03283
2822.43580,0.03269
2820.37563,0.03249
2818.31546,0.03243
2816.25528,0.03245
2814.19511,0.03242
2812.13494,0.03240
2810.07477,0.03231
2808.01460,0.03204
2805.95442,0.03172
2803.89425,0.03148
2801.83408,0.03138
2799.77391,0.03134
2797.71373,0.03124
2795.65356,0.03110
2793.59339,0.03103
2791.53322,0.03103
2789.47305,0.03099
2787.41287,0.03086
2785.35270,0.03070
2783.29253,0.03063
2781.23236,0.03062
2779.17219,0.03050
2777.11201,0.03026
2775.05184,0.03006
2772.99167,0.02994
2770.93150,0.02986
2768.87133,0.02978
2766.81115,0.02966
2764.75098,0.02952
2762.69081,0.02944
2760.63064,0.02933
2758.57046,0.02917
2756.51029,0.02908
2754.45012,0.02906
2752.38995,0.02906
2750.32978,0.02898
2748.26960,0.02887
2746.20943,0.02871
2744.14926,0.02851
2742.08909,0.02839
2740.02892,0.02840
2737.96874,0.02843
2735.90857,0.02829
2733.84840,0.02805
2731.78823,0.02792
2729.72805,0.02795
2727.66788,0.02794
2725.60771,0.02777
2723.54754,0.02755
2721.48737,0.02746
2719.42719,0.02740
2717.36702,0.02730
2715.30685,0.02727
2713.24668,0.02719
2711.18651,0.02705
2709.12633,0.02698
2707.06616,0.02696
2705.00599,0.02688
2702.94582,0.02679
2700.88565,0.02674
2698.82547,0.02668
2696.76530,0.02658
2694.70513,0.02646
2692.64496,0.02637
2690.58478,0.02630
2688.52461,0.02624
2686.46444,0.02617
2684.40427,0.02603
2682.34410,0.02590
2680.28392,0.02583
2678.22375,0.02574
2676.16358,0.02555
2674.10341,0.02540
2672.04324,0.02539
2669.98306,0.02533
2667.92289,0.02519
2665.86272,0.02514
2663.80255,0.02517
2661.74238,0.02515
2659.68220,0.02506
2657.62203,0.02492
2655.56186,0.02480
2653.50169,0.02469
2651.44151,0.02456
2649.38134,0.02444
2647.32117,0.02429
2645.26100,0.02410
2643.20083,0.02391
2641.14065,0.02375
2639.08048,0.02374
2637.02031,0.02386
2634.96014,0.02393
2632.89997,0.02385
2630.83979,0.02376
2628.77962,0.02369
2626.71945,0.02358
2624.65928,0.02353
2622.59910,0.02356
2620.53893,0.02353
2618.47876,0.02342
2616.41859,0.02335
2614.35842,0.02339
2612.29824,0.02350
2610.23807,0.02343
2608.17790,0.02322
2606.11773,0.02309
2604.05756,0.02313
2601.99738,0.02324
2599.93721,0.02324
2597.87704,0.02310
2595.81687,0.02301
2593.75670,0.02296
2591.69652,0.02298
2589.63635,0.02308
2587.57618,0.02309
2585.51601,0.02305
2583.45583,0.02303
2581.39566,0.02301
2579.33549,0.02304
2577.27532,0.02308
2575.21515,0.02306
2573.15497,0.02298
2571.09480,0.02284
2569.03463,0.02278
2566.97446,0.02296
2564.91429,0.02308
2562.85411,0.02297
2560.79394,0.02288
2558.73377,0.02291
2556.67360,0.02297
2554.61342,0.02308
2552.55325,0.02319
2550.49308,0.02316
2548.43291,0.02319
2546.37274,0.02329
2544.31256,0.02317
2542.25239,0.02300
2540.19222,0.02300
2538.13205,0.02302
2536.07188,0.02299
2534.01170,0.02303
2531.95153,0.02320
2529.89136,0.02345
2527.83119,0.02369
2525.77102,0.02377
2523.71084,0.02366
2521.65067,0.02353
2519.59050,0.02354
2517.53033,0.02371
2515.47015,0.02377
2513.40998,0.02365
2511.34981,0.02372
2509.28964,0.02399
2507.22947,0.02412
2505.16929,0.02407
2503.10912,0.02406
2501.04895,0.02407
2498.98878,0.02394
2496.92861,0.02387
2494.86843,0.02413
2492.80826,0.02446
2490.74809,0.02458
2488.68792,0.02456
2486.62775,0.02456
2484.56757,0.02473
2482.50740,0.02498
2480.44723,0.02499
2478.38706,0.02480
2476.32688,0.02488
2474.26671,0.02520
2472.20654,0.02527
2470.14637,0.02510
2468.08620,0.02500
2466.02602,0.02497
2463.96585,0.02500
2461.90568,0.02517
2459.84551,0.02534
2457.78534,0.02541
2455.72516,0.02542
2453.66499,0.02542
2451.60482,0.02540
2449.54465,0.02551
2447.48447,0.02578
2445.42430,0.02591
2443.36413,0.02579
2441.30396,0.02569
2439.24379,0.02580
2437.18361,0.02594
2435.12344,0.02584
2433.06327,0.02563
2431.00310,0.02555
2428.94293,0.02560
2426.88275,0.02567
2424.82258,0.02569
2422.76241,0.02567
2420.70224,0.02549
2418.64207,0.02532
2416.58189,0.02540
2414.52172,0.02558
2412.46155,0.02553
2410.40138,0.02524
2408.34120,0.02513
2406.28103,0.02529
2404.22086,0.02546
2402.16069,0.02562
2400.10052,0.02585
2398.04034,0.02619
2395.98017,0.02625
2393.92000,0.02603
2391.85983,0.02577
2389.79966,0.02573
2387.73948,0.02587
2385.67931,0.02622
2383.61914,0.02627
2381.55897,0.02557
2379.49880,0.02509
2377.43862,0.02472
2375.37845,0.02313
2373.31828,0.02468
2371.25811,0.02563
2369.19793,0.02377
2367.13776,0.02274
2365.07759,0.02469
2363.01742,0.02324
2360.95725,0.02630
2358.89707,0.02370
2356.83690,0.02224
2354.77673,0.01942
2352.71656,0.02180
2350.65639,0.03193
2348.59621,0.03910
2346.53604,0.02141
2344.47587,0.01728
2342.41570,0.02217
2340.35552,0.02662
2338.29535,0.02504
2336.23518,0.02340
2334.17501,0.02321
2332.11484,0.02355
2330.05466,0.02625
2327.99449,0.02500
2325.93432,0.02880
2323.87415,0.02721
2321.81398,0.02772
2319.75380,0.02338
2317.69363,0.02335
2315.63346,0.02270
2313.57329,0.02048
2311.51312,0.02148
2309.45294,0.02253
2307.39277,0.02315
2305.33260,0.02408
2303.27243,0.02513
2301.21225,0.02529
2299.15208,0.02529
2297.09191,0.02486
2295.03174,0.02388
2292.97157,0.02358
2290.91139,0.02335
2288.85122,0.02296
2286.79105,0.02289
2284.73088,0.02310
2282.67071,0.02336
2280.61053,0.02392
2278.55036,0.02435
2276.49019,0.02419
2274.43002,0.02381
2272.36984,0.02310
2270.30967,0.02263
2268.24950,0.02267
2266.18933,0.02300
2264.12916,0.02335
2262.06898,0.02373
2260.00881,0.02349
2257.94864,0.02304
2255.88847,0.02258
2253.82830,0.02211
2251.76812,0.02161
2249.70795,0.02143
2247.64778,0.02180
2245.58761,0.02238
2243.52744,0.02228
2241.46726,0.02174
2239.40709,0.02172
2237.34692,0.02201
2235.28675,0.02197
2233.22657,0.02201
2231.16640,0.02231
2229.10623,0.02234
2227.04606,0.02209
2224.98589,0.02176
2222.92571,0.02127
2220.86554,0.02108
2218.80537,0.02160
2216.74520,0.02194
2214.68503,0.02147
2212.62485,0.02095
2210.56468,0.02093
2208.50451,0.02078
2206.44434,0.02020
2204.38417,0.02019
2202.32399,0.02080
2200.26382,0.02081
2198.20365,0.02051
2196.14348,0.02092
2194.08330,0.02137
2192.02313,0.02149
2189.96296,0.02152
2187.90279,0.02082
2185.84262,0.01979
2183.78244,0.01983
2181.72227,0.02038
2179.66210,0.02026
2177.60193,0.02017
2175.54176,0.02030
2173.48158,0.01996
2171.42141,0.01940
2169.36124,0.01917
2167.30107,0.01926
2165.24089,0.01918
2163.18072,0.01873
2161.12055,0.01827
2159.06038,0.01786
2157.00021,0.01784
2154.94003,0.01873
2152.87986,0.01995
2150.81969,0.02027
2148.75952,0.01996
2146.69935,0.02006
2144.63917,0.02016
2142.57900,0.01976
2140.51883,0.01941
2138.45866,0.01912
2136.39849,0.01862
2134.33831,0.01850
2132.27814,0.01893
2130.21797,0.01940
2128.15780,0.01985
2126.09762,0.02014
2124.03745,0.02004
2121.97728,0.01989
2119.91711,0.01990
2117.85694,0.01969
2115.79676,0.01930
2113.73659,0.01921
2111.67642,0.01938
2109.61625,0.01937
2107.55608,0.01920
2105.49590,0.01902
2103.43573,0.01894
2101.37556,0.01944
2099.31539,0.02069
2097.25521,0.02126
2095.19504,0.02053
2093.13487,0.01929
2091.07470,0.01879
2089.01453,0.01902
2086.95435,0.01923
2084.89418,0.01914
2082.83401,0.01913
2080.77384,0.01961
2078.71367,0.02015
2076.65349,0.02039
2074.59332,0.02047
2072.53315,0.02015
2070.47298,0.01946
2068.41281,0.01905
2066.35263,0.01898
2064.29246,0.01874
2062.23229,0.01842
2060.17212,0.01848
2058.11194,0.01885
2056.05177,0.01907
2053.99160,0.01914
2051.93143,0.01937
2049.87126,0.01946
2047.81108,0.01943
2045.75091,0.01982
2043.69074,0.02018
2041.63057,0.02014
2039.57040,0.02014
2037.51022,0.01996
2035.45005,0.01916
2033.38988,0.01805
2031.32971,0.01708
2029.26954,0.01687
2027.20936,0.01796
2025.14919,0.01951
2023.08902,0.01988
2021.02885,0.01918
2018.96867,0.01853
2016.90850,0.01847
2014.84833,0.01894
2012.78816,0.01927
2010.72799,0.01921
2008.66781,0.01916
2006.60764,0.01900
2004.54747,0.01838
2002.48730,0.01779
2000.42713,0.01786
1998.36695,0.01846
1996.30678,0.01912
1994.24661,0.01954
1992.18644,0.01945
1990.12626,0.01906
1988.06609,0.01878
1986.00592,0.01840
1983.94575,0.01809
1981.88558,0.01872
1979.82540,0.02015
1977.76523,0.02096
1975.70506,0.02058
1973.64489,0.02005
1971.58472,0.01994
1969.52454,0.01964
1967.46437,0.01919
1965.40420,0.01910
1963.34403,0.01907
1961.28386,0.01892
1959.22368,0.01868
1957.16351,0.01832
1955.10334,0.01821
1953.04317,0.01863
1950.98299,0.01923
1948.92282,0.01974
1946.86265,0.01997
1944.80248,0.01982
1942.74231,0.01960
1940.68213,0.01953
1938.62196,0.01960
1936.56179,0.01975
1934.50162,0.01956
1932.44145,0.01895
1930.38127,0.01878
1928.32110,0.01934
1926.26093,0.01975
1924.20076,0.01956
1922.14059,0.01931
1920.08041,0.01933
1918.02024,0.01942
1915.96007,0.01952
1913.89990,0.01985
1911.83972,0.02024
1909.77955,0.02030
1907.71938,0.02009
1905.65921,0.01998
1903.59904,0.01997
1901.53886,0.01991
1899.47869,0.01983
1897.41852,0.01985
1895.35835,0.01991
1893.29818,0.01985
1891.23800,0.01995
1889.17783,0.02028
1887.11766,0.02050
1885.05749,0.02044
1882.99731,0.02027
1880.93714,0.02025
1878.87697,0.02039
1876.81680,0.02055
1874.75663,0.02071
1872.69645,0.02089
1870.63628,0.02107
1868.57611,0.02119
1866.51594,0.02117
1864.45577,0.02106
1862.39559,0.02093
1860.33542,0.02090
1858.27525,0.02108
1856.21508,0.02130
1854.15491,0.02122
1852.09473,0.02106
1850.03456,0.02117
1847.97439,0.02140
1845.91422,0.02138
1843.85404,0.02118
1841.79387,0.02120
1839.73370,0.02143
1837.67353,0.02157
1835.61336,0.02151
1833.55318,0.02154
1831.49301,0.02186
1829.43284,0.02223
1827.37267,0.02239
1825.31250,0.02244
1823.25232,0.02256
1821.19215,0.02268
1819.13198,0.02259
1817.07181,0.02238
1815.01163,0.02230
1812.95146,0.02229
1810.89129,0.02217
1808.83112,0.02206
1806.77095,0.02211
1804.71077,0.02218
1802.65060,0.02218
1800.59043,0.02230
1798.53026,0.02243
1796.47009,0.02240
1794.40991,0.02235
1792.34974,0.02237
1790.28957,0.02242
1788.22940,0.02242
1786.16923,0.02234
1784.10905,0.02236
1782.04888,0.02255
1779.98871,0.02270
1777.92854,0.02275
1775.86836,0.02290
1773.80819,0.02313
1771.74802,0.02311
1769.68785,0.02277
1767.62768,0.02264
1765.56750,0.02284
1763.50733,0.02311
1761.44716,0.02326
1759.38699,0.02337
1757.32682,0.02366
1755.26664,0.02403
1753.20647,0.02425
1751.14630,0.02439
1749.08613,0.02457
1747.02596,0.02467
1744.96578,0.02474
1742.90561,0.02500
1740.84544,0.02532
1738.78527,0.02545
1736.72509,0.02549
1734.66492,0.02555
1732.60475,0.02561
1730.54458,0.02573
1728.48441,0.02576
1726.42423,0.02567
1724.36406,0.02560
1722.30389,0.02571
1720.24372,0.02600
1718.18355,0.02605
1716.12337,0.02566
1714.06320,0.02548
1712.00303,0.02558
1709.94286,0.02582
1707.88268,0.02609
1705.82251,0.02620
1703.76234,0.02626
1701.70217,0.02675
1699.64200,0.02750
1697.58182,0.02794
1695.52165,0.02818
1693.46148,0.02855
1691.40131,0.02909
1689.34114,0.02984
1687.28096,0.03075
1685.22079,0.03178
1683.16062,0.03255
1681.10045,0.03299
1679.04028,0.03353
1676.98010,0.03432
1674.91993,0.03521
1672.85976,0.03602
1670.79959,0.03677
1668.73941,0.03740
1666.67924,0.03782
1664.61907,0.03827
1662.55890,0.03871
1660.49873,0.03892
1658.43855,0.03906
1656.37838,0.03940
1654.31821,0.03985
1652.25804,0.03990
1650.19787,0.03977
1648.13769,0.03970
1646.07752,0.03961
1644.01735,0.03936
1641.95718,0.03916
1639.89701,0.03921
1637.83683,0.03939
1635.77666,0.03919
1633.71649,0.03858
1631.65632,0.03811
1629.59614,0.03789
1627.53597,0.03775
1625.47580,0.03755
1623.41563,0.03720
1621.35546,0.03674
1619.29528,0.03655
1617.23511,0.03656
1615.17494,0.03633
1613.11477,0.03594
1611.05460,0.03566
1608.99442,0.03544
1606.93425,0.03521
1604.87408,0.03507
1602.81391,0.03493
1600.75373,0.03465
1598.69356,0.03437
1596.63339,0.03414
1594.57322,0.03384
1592.51305,0.03345
1590.45287,0.03308
1588.39270,0.03274
1586.33253,0.03237
1584.27236,0.03194
1582.21219,0.03149
1580.15201,0.03125
1578.09184,0.03114
1576.03167,0.03070
1573.97150,0.02996
1571.91133,0.02955
1569.85115,0.02948
1567.79098,0.02929
1565.73081,0.02894
1563.67064,0.02870
1561.61046,0.02879
1559.55029,0.02865
1557.49012,0.02763
1555.42995,0.02696
1553.36978,0.02685
1551.30960,0.02684
1549.24943,0.02673
1547.18926,0.02661
1545.12909,0.02661
1543.06892,0.02670
1541.00874,0.02670
1538.94857,0.02621
1536.88840,0.02562
1534.82823,0.02544
1532.76805,0.02543
1530.70788,0.02521
1528.64771,0.02496
1526.58754,0.02468
1524.52737,0.02430
1522.46719,0.02396
1520.40702,0.02363
1518.34685,0.02338
1516.28668,0.02313
1514.22651,0.02278
1512.16633,0.02252
1510.10616,0.02258
1508.04599,0.02286
1505.98582,0.02286
1503.92565,0.02251
1501.86547,0.02223
1499.80530,0.02235
1497.74513,0.02264
1495.68496,0.02275
1493.62478,0.02280
1491.56461,0.02288
1489.50444,0.02280
1487.44427,0.02261
1485.38410,0.02251
1483.32392,0.02250
1481.26375,0.02253
1479.20358,0.02261
1477.14341,0.02274
1475.08324,0.02292
1473.02306,0.02315
1470.96289,0.02331
1468.90272,0.02346
1466.84255,0.02380
1464.78238,0.02411
1462.72220,0.02409
1460.66203,0.02412
1458.60186,0.02432
1456.54169,0.02433
1454.48151,0.02425
1452.42134,0.02425
1450.36117,0.02450
1448.30100,0.02487
1446.24083,0.02509
1444.18065,0.02518
1442.12048,0.02528
1440.06031,0.02536
1438.00014,0.02534
1435.93997,0.02522
1433.87979,0.02521
1431.81962,0.02546
1429.75945,0.02588
1427.69928,0.02627
1425.63910,0.02657
1423.57893,0.02681
1421.51876,0.02697
1419.45859,0.02705
1417.39842,0.02722
1415.33824,0.02764
1413.27807,0.02809
1411.21790,0.02837
1409.15773,0.02855
1407.09756,0.02875
1405.03738,0.02887
1402.97721,0.02891
1400.91704,0.02886
1398.85687,0.02863
1396.79670,0.02833
1394.73652,0.02824
1392.67635,0.02830
1390.61618,0.02838
1388.55601,0.02848
1386.49583,0.02864
1384.43566,0.02877
1382.37549,0.02880
1380.31532,0.02875
1378.25515,0.02879
1376.19497,0.02897
1374.13480,0.02899
1372.07463,0.02884
1370.01446,0.02881
1367.95429,0.02893
1365.89411,0.02898
1363.83394,0.02884
1361.77377,0.02864
1359.71360,0.02864
1357.65343,0.02877
1355.59325,0.02883
1353.53308,0.02875
1351.47291,0.02861
1349.41274,0.02843
1347.35256,0.02814
1345.29239,0.02781
1343.23222,0.02745
1341.17205,0.02694
1339.11188,0.02640
1337.05170,0.02626
1334.99153,0.02650
1332.93136,0.02664
1330.87119,0.02649
1328.81102,0.02626
1326.75084,0.02610
1324.69067,0.02594
1322.63050,0.02582
1320.57033,0.02582
1318.51015,0.02580
1316.44998,0.02566
1314.38981,0.02550
1312.32964,0.02538
1310.26947,0.02533
1308.20929,0.02535
1306.14912,0.02538
1304.08895,0.02545
1302.02878,0.02548
1299.96861,0.02545
1297.90843,0.02546
1295.84826,0.02558
1293.78809,0.02569
1291.72792,0.02562
1289.66775,0.02542
1287.60757,0.02528
1285.54740,0.02527
1283.48723,0.02536
1281.42706,0.02544
1279.36688,0.02544
1277.30671,0.02543
1275.24654,0.02547
1273.18637,0.02550
1271.12620,0.02551
1269.06602,0.02552
1267.00585,0.02546
1264.94568,0.02540
1262.88551,0.02547
1260.82534,0.02561
1258.76516,0.02574
1256.70499,0.02581
1254.64482,0.02576
1252.58465,0.02568
1250.52447,0.02566
1248.46430,0.02564
1246.40413,0.02551
1244.34396,0.02537
1242.28379,0.02532
1240.22361,0.02527
1238.16344,0.02513
1236.10327,0.02492
1234.04310,0.02466
1231.98293,0.02447
1229.92275,0.02434
1227.86258,0.02407
1225.80241,0.02377
1223.74224,0.02358
1221.68207,0.02336
1219.62189,0.02307
1217.56172,0.02285
1215.50155,0.02272
1213.44138,0.02256
1211.38120,0.02230
1209.32103,0.02209
1207.26086,0.02204
1205.20069,0.02211
1203.14052,0.02218
1201.08034,0.02229
1199.02017,0.02253
1196.96000,0.02296
1194.89983,0.02339
1192.83966,0.02373
1190.77948,0.02421
1188.71931,0.02492
1186.65914,0.02581
1184.59897,0.02686
1182.53880,0.02790
1180.47862,0.02889
1178.41845,0.03001
1176.35828,0.03112
1174.29811,0.03211
1172.23793,0.03324
1170.17776,0.03460
1168.11759,0.03595
1166.05742,0.03716
1163.99725,0.03834
1161.93707,0.03968
1159.87690,0.04113
1157.81673,0.04258
1155.75656,0.04399
1153.69639,0.04545
1151.63621,0.04703
1149.57604,0.04871
1147.51587,0.05032
1145.45570,0.05175
1143.39552,0.05303
1141.33535,0.05424
1139.27518,0.05545
1137.21501,0.05669
1135.15484,0.05796
1133.09466,0.05915
1131.03449,0.06024
1128.97432,0.06137
1126.91415,0.06258
1124.85398,0.06383
1122.79380,0.06521
1120.73363,0.06666
1118.67346,0.06808
1116.61329,0.06953
1114.55312,0.07103
1112.49294,0.07261
1110.43277,0.07424
1108.37260,0.07578
1106.31243,0.07736
1104.25225,0.07900
1102.19208,0.08051
1100.13191,0.08186
1098.07174,0.08310
1096.01157,0.08430
1093.95139,0.08565
1091.89122,0.08706
1089.83105,0.08844
1087.77088,0.08987
1085.71071,0.09128
1083.65053,0.09258
1081.59036,0.09378
1079.53019,0.09493
1077.47002,0.09608
1075.40985,0.09713
1073.34967,0.09797
1071.28950,0.09859
1069.22933,0.09889
1067.16916,0.09874
1065.10898,0.09825
1063.04881,0.09763
1060.98864,0.09678
1058.92847,0.09554
1056.86830,0.09406
1054.80812,0.09244
1052.74795,0.09063
1050.68778,0.08865
1048.62761,0.08640
1046.56744,0.08389
1044.50726,0.08142
1042.44709,0.07889
1040.38692,0.07620
1038.32675,0.07352
1036.26657,0.07096
1034.20640,0.06847
1032.14623,0.06605
1030.08606,0.06390
1028.02589,0.06198
1025.96571,0.06010
1023.90554,0.05839
1021.84537,0.05692
1019.78520,0.05563
1017.72503,0.05456
1015.66485,0.05383
1013.60468,0.05344
1011.54451,0.05337
1009.48434,0.05365
1007.42417,0.05417
1005.36399,0.05487
1003.30382,0.05591
1001.24365,0.05724
999.18348,0.05866
997.12330,0.06008
995.06313,0.06139
993.00296,0.06258
990.94279,0.06382
988.88262,0.06513
986.82244,0.06613
984.76227,0.06661
982.70210,0.06682
980.64193,0.06705
978.58176,0.06719
976.52158,0.06701
974.46141,0.06662
972.40124,0.06611
970.34107,0.06530
968.28089,0.06407
966.22072,0.06268
964.16055,0.06143
962.10038,0.06029
960.04021,0.05920
957.98003,0.05828
955.91986,0.05755
953.85969,0.05675
951.79952,0.05570
949.73935,0.05459
947.67917,0.05370
945.61900,0.05291
943.55883,0.05204
941.49866,0.05118
939.43849,0.05027
937.37831,0.04921
935.31814,0.04819
933.25797,0.04729
931.19780,0.04636
929.13762,0.04529
927.07745,0.04422
925.01728,0.04335
922.95711,0.04257
920.89694,0.04174
918.83676,0.04086
916.77659,0.03985
914.71642,0.03887
912.65625,0.03809
910.59608,0.03744
908.53590,0.03681
906.47573,0.03618
904.41556,0.03570
902.35539,0.03557
900.29522,0.03556
898.23504,0.03543
896.17487,0.03548
894.11470,0.03587
892.05453,0.03647
889.99435,0.03717
887.93418,0.03798
885.87401,0.03892
883.81384,0.03998
881.75367,0.04102
879.69349,0.04198
877.63332,0.04311
875.57315,0.04448
873.51298,0.04594
871.45281,0.04753
869.39263,0.04924
867.33246,0.05094
865.27229,0.05259
863.21212,0.05407
861.15194,0.05521
859.09177,0.05616
857.03160,0.05687
854.97143,0.05701
852.91126,0.05677
850.85108,0.05648
848.79091,0.05605
846.73074,0.05538
844.67057,0.05449
842.61040,0.05344
840.55022,0.05213
838.49005,0.05070
836.42988,0.04940
834.36971,0.04818
832.30954,0.04703
830.24936,0.04605
828.18919,0.04520
826.12902,0.04428
824.06885,0.04332
822.00867,0.04256
819.94850,0.04180
817.88833,0.04082
815.82816,0.04005
813.76799,0.03942
811.70781,0.03848
809.64764,0.03758
807.58747,0.03712
805.52730,0.03694
803.46713,0.03680
801.40695,0.03636
799.34678,0.03553
797.28661,0.03481
795.22644,0.03439
793.16627,0.03395
791.10609,0.03359
789.04592,0.03342
786.98575,0.03318
784.92558,0.03274
782.86540,0.03225
780.80523,0.03198
778.74506,0.03198
776.68489,0.03194
774.62472,0.03146
772.56454,0.03086
770.50437,0.03068
768.44420,0.03070
766.38403,0.03049
764.32386,0.03023
762.26368,0.03012
760.20351,0.02989
758.14334,0.02943
756.08317,0.02912
754.02299,0.02897
751.96282,0.02895
749.90265,0.02903
747.84248,0.02889
745.78231,0.02860
743.72213,0.02823
741.66196,0.02736
739.60179,0.02640
737.54162,0.02620
735.48145,0.02659
733.42127,0.02683
731.36110,0.02671
729.30093,0.02646
727.24076,0.02626
725.18059,0.02616
723.12041,0.02640
721.06024,0.02544
719.00007,0.02776
716.93990,0.02747
714.87972,0.02706
712.81955,0.02710
710.75938,0.02677
708.69921,0.02625
706.63904,0.02616
704.57886,0.02681
702.51869,0.02750
700.45852,0.02800
698.39835,0.02834
696.33818,0.02866
694.27800,0.02932
692.21783,0.03023
690.15766,0.03112
688.09749,0.03180
686.03731,0.03239
683.97714,0.03296
681.91697,0.03323
679.85680,0.03296
677.79663,0.03202
675.73645,0.03047
673.67628,0.03279
671.61611,0.04910
669.55594,0.04992
667.49577,0.00000
665.43559,0.03620
663.37542,0.03541
661.31525,0.02753
659.25508,0.02713
657.19491,0.02768
655.13473,0.02648
653.07456,0.02517
651.01439,0.02409
648.95422,0.02198
646.89404,0.02190
644.83387,0.02070
642.77370,0.01912
640.71353,0.01773
638.65336,0.01624
636.59318,0.01493
634.53301,0.01400
632.47284,0.01280
630.41267,0.01121
628.35250,0.00972
626.29232,0.00907
624.23215,0.00839
622.17198,0.00781
620.11181,0.00733
618.05164,0.00679
615.99146,0.00585
613.93129,0.00425
611.87112,0.00257
609.81095,0.00147
607.75077,0.00163
605.69060,0.00229
603.63043,0.00155
601.57026,0.00011
599.51009,0.00000
