3996.73391,-0.00049
3994.67373,-0.00053
3992.61356,-0.00039
3990.55339,-0.00005
3988.49322,0.00017
3986.43305,0.00012
3984.37287,-0.00001
3982.31270,-0.00007
3980.25253,-0.00005
3978.19236,0.00006
3976.13219,0.00011
3974.07201,0.00004
3972.01184,-0.00006
3969.95167,0.00000
3967.89150,0.00030
3965.83133,0.00060
3963.77115,0.00060
3961.71098,0.00043
3959.65081,0.00037
3957.59064,0.00048
3955.53046,0.00076
3953.47029,0.00105
3951.41012,0.00092
3949.34995,0.00035
3947.28978,0.00000
3945.22960,0.00015
3943.16943,0.00027
3941.10926,0.00018
3939.04909,0.00022
3936.98892,0.00045
3934.92874,0.00053
3932.86857,0.00050
3930.80840,0.00071
3928.74823,0.00099
3926.68805,0.00107
3924.62788,0.00088
3922.56771,0.00044
3920.50754,0.00003
3918.44737,0.00000
3916.38719,0.00052
3914.32702,0.00126
3912.26685,0.00164
3910.20668,0.00160
3908.14651,0.00143
3906.08633,0.00115
3904.02616,0.00068
3901.96599,0.00045
3899.90582,0.00076
3897.84565,0.00108
3895.78547,0.00112
3893.72530,0.00103
3891.66513,0.00102
3889.60496,0.00107
3887.54478,0.00100
3885.48461,0.00076
3883.42444,0.00049
3881.36427,0.00042
3879.30410,0.00055
3877.24392,0.00058
3875.18375,0.00046
3873.12358,0.00026
3871.06341,0.00005
3869.00324,0.00015
3866.94306,0.00037
3864.88289,0.00030
3862.82272,0.00025
3860.76255,0.00049
3858.70237,0.00063
3856.64220,0.00026
3854.58203,0.00000
3852.52186,0.00063
3850.46169,0.00141
3848.40151,0.00138
3846.34134,0.00103
3844.28117,0.00089
3842.22100,0.00089
3840.16083,0.00075
3838.10065,0.00059
3836.04048,0.00082
3833.98031,0.00125
3831.92014,0.00154
3829.85997,0.00171
3827.79979,0.00178
3825.73962,0.00176
3823.67945,0.00162
3821.61928,0.00140
3819.55910,0.00111
3817.49893,0.00093
3815.43876,0.00113
3813.37859,0.00164
3811.31842,0.00202
3809.25824,0.00210
3807.19807,0.00184
3805.13790,0.00160
3803.07773,0.00186
3801.01756,0.00235
3798.95738,0.00244
3796.89721,0.00234
3794.83704,0.00255
3792.77687,0.00278
3790.71670,0.00268
3788.65652,0.00250
3786.59635,0.00250
3784.53618,0.00268
3782.47601,0.00294
3780.41583,0.00315
3778.35566,0.00329
3776.29549,0.00337
3774.23532,0.00329
3772.17515,0.00303
3770.11497,0.00264
3768.05480,0.00229
3765.99463,0.00222
3763.93446,0.00231
3761.87429,0.00222
3759.81411,0.00202
3757.75394,0.00194
3755.69377,0.00190
3753.63360,0.00161
3751.57342,0.00093
3749.51325,0.00032
3747.45308,0.00018
3745.39291,0.00018
3743.33274,0.00081
3741.27256,0.00165
3739.21239,0.00175
3737.15222,0.00142
3735.09205,0.00121
3733.03188,0.00155
3730.97170,0.00178
3728.91153,0.00176
3726.85136,0.00145
3724.79119,0.00109
3722.73102,0.00149
3720.67084,0.00196
3718.61067,0.00218
3716.55050,0.00194
3714.49033,0.00187
3712.43015,0.00273
3710.36998,0.00313
3708.30981,0.00333
3706.24964,0.00340
3704.18947,0.00339
3702.12929,0.00334
3700.06912,0.00321
3698.00895,0.00325
3695.94878,0.00338
3693.88861,0.00344
3691.82843,0.00323
3689.76826,0.00328
3687.70809,0.00352
3685.64792,0.00390
3683.58775,0.00394
3681.52757,0.00385
3679.46740,0.00346
3677.40723,0.00309
3675.34706,0.00318
3673.28688,0.00351
3671.22671,0.00375
3669.16654,0.00421
3667.10637,0.00461
3665.04620,0.00462
3662.98602,0.00457
3660.92585,0.00467
3658.86568,0.00483
3656.80551,0.00505
3654.74534,0.00526
3652.68516,0.00521
3650.62499,0.00493
3648.56482,0.00482
3646.50465,0.00537
3644.44447,0.00588
3642.38430,0.00614
3640.32413,0.00653
3638.26396,0.00695
3636.20379,0.00711
3634.14361,0.00723
3632.08344,0.00743
3630.02327,0.00787
3627.96310,0.00832
3625.90293,0.00874
3623.84275,0.00871
3621.78258,0.00862
3619.72241,0.00889
3617.66224,0.00902
3615.60207,0.00882
3613.54189,0.00853
3611.48172,0.00898
3609.42155,0.00976
3607.36138,0.01038
3605.30120,0.01105
3603.24103,0.01151
3601.18086,0.01196
3599.12069,0.01233
3597.06052,0.01268
3595.00034,0.01274
3592.94017,0.01298
3590.88000,0.01295
3588.81983,0.01298
3586.75966,0.01341
3584.69948,0.01419
3582.63931,0.01474
3580.57914,0.01503
3578.51897,0.01550
3576.45879,0.01606
3574.39862,0.01650
3572.33845,0.01683
3570.27828,0.01698
3568.21811,0.01686
3566.15793,0.01687
3564.09776,0.01743
3562.03759,0.01815
3559.97742,0.01867
3557.91725,0.01897
3555.85707,0.01919
3553.79690,0.01942
3551.73673,0.01968
3549.67656,0.01991
3547.61639,0.01991
3545.55621,0.01991
3543.49604,0.02031
3541.43587,0.02099
3539.37570,0.02164
3537.31552,0.02214
3535.25535,0.02252
3533.19518,0.02278
3531.13501,0.02292
3529.07484,0.02300
3527.01466,0.02311
3524.95449,0.02340
3522.89432,0.02396
3520.83415,0.02467
3518.77398,0.02525
3516.71380,0.02564
3514.65363,0.02596
3512.59346,0.02621
3510.53329,0.02637
3508.47312,0.02651
3506.41294,0.02662
3504.35277,0.02667
3502.29260,0.02689
3500.23243,0.02745
3498.17225,0.02808
3496.11208,0.02856
3494.05191,0.02898
3491.99174,0.02936
3489.93157,0.02965
3487.87139,0.02973
3485.81122,0.02961
3483.75105,0.02959
3481.69088,0.02990
3479.63071,0.03041
3477.57053,0.03100
3475.51036,0.03146
3473.45019,0.03159
3471.39002,0.03163
3469.32984,0.03196
3467.26967,0.03251
3465.20950,0.03287
3463.14933,0.03289
3461.08916,0.03285
3459.02898,0.03303
3456.96881,0.03341
3454.90864,0.03383
3452.84847,0.03409
3450.78830,0.03407
3448.72812,0.03391
3446.66795,0.03394
3444.60778,0.03424
3442.54761,0.03459
3440.48744,0.03482
3438.42726,0.03498
3436.36709,0.03515
3434.30692,0.03537
3432.24675,0.03571
3430.18657,0.03619
3428.12640,0.03660
3426.06623,0.03670
3424.00606,0.03669
3421.94589,0.03687
3419.88571,0.03715
3417.82554,0.03742
3415.76537,0.03769
3413.70520,0.03798
3411.64503,0.03821
3409.58485,0.03822
3407.52468,0.03826
3405.46451,0.03850
3403.40434,0.03875
3401.34416,0.03878
3399.28399,0.03833
3397.22382,0.03843
3395.16365,0.03880
3393.10348,0.03913
3391.04330,0.03933
3388.98313,0.03946
3386.92296,0.03960
3384.86279,0.03977
3382.80262,0.03999
3380.74244,0.04023
3378.68227,0.04053
3376.62210,0.04087
3374.56193,0.04108
3372.50176,0.04103
3370.44158,0.04088
3368.38141,0.04085
3366.32124,0.04095
3364.26107,0.04116
3362.20089,0.04143
3360.14072,0.04172
3358.08055,0.04190
3356.02038,0.04189
3353.96021,0.04177
3351.90003,0.04165
3349.83986,0.04169
3347.77969,0.04188
3345.71952,0.04192
3343.65935,0.04187
3341.59917,0.04199
3339.53900,0.04212
3337.47883,0.04227
3335.41866,0.04261
3333.35849,0.04295
3331.29831,0.04320
3329.23814,0.04339
3327.17797,0.04341
3325.11780,0.04326
3323.05762,0.04324
3320.99745,0.04354
3318.93728,0.04378
3316.87711,0.04366
3314.81694,0.04336
3312.75676,0.04324
3310.69659,0.04342
3308.63642,0.04365
3306.57625,0.04382
3304.51608,0.04398
3302.45590,0.04409
3300.39573,0.04416
3298.33556,0.04428
3296.27539,0.04443
3294.21521,0.04445
3292.15504,0.04432
3290.09487,0.04421
3288.03470,0.04418
3285.97453,0.04427
3283.91435,0.04458
3281.85418,0.04485
3279.79401,0.04474
3277.73384,0.04452
3275.67367,0.04452
3273.61349,0.04462
3271.55332,0.04463
3269.49315,0.04458
3267.43298,0.04460
3265.37281,0.04476
3263.31263,0.04498
3261.25246,0.04509
3259.19229,0.04508
3257.13212,0.04498
3255.07194,0.04487
3253.01177,0.04493
3250.95160,0.04505
3248.89143,0.04506
3246.83126,0.04504
3244.77108,0.04514
3242.71091,0.04526
3240.65074,0.04528
3238.59057,0.04525
3236.53040,0.04529
3234.47022,0.04536
3232.41005,0.04542
3230.34988,0.04544
3228.28971,0.04536
3226.22954,0.04525
3224.16936,0.04523
3222.10919,0.04515
3220.04902,0.04505
3217.98885,0.04515
3215.92867,0.04528
3213.86850,0.04522
3211.80833,0.04515
3209.74816,0.04514
3207.68799,0.04502
3205.62781,0.04488
3203.56764,0.04487
3201.50747,0.04491
3199.44730,0.04503
3197.38713,0.04526
3195.32695,0.04539
3193.26678,0.04532
3191.20661,0.04517
3189.14644,0.04507
3187.08626,0.04503
3185.02609,0.04501
3182.96592,0.04502
3180.90575,0.04494
3178.84558,0.04472
3176.78540,0.04470
3174.72523,0.04492
3172.66506,0.04504
3170.60489,0.04499
3168.54472,0.04492
3166.48454,0.04488
3164.42437,0.04477
3162.36420,0.04457
3160.30403,0.04450
3158.24386,0.04470
3156.18368,0.04477
3154.12351,0.04448
3152.06334,0.04430
3150.00317,0.04429
3147.94299,0.04415
3145.88282,0.04398
3143.82265,0.04386
3141.76248,0.04383
3139.70231,0.04385
3137.64213,0.04375
3135.58196,0.04350
3133.52179,0.04326
3131.46162,0.04324
3129.40145,0.04337
3127.34127,0.04328
3125.28110,0.04299
3123.22093,0.04288
3121.16076,0.04296
3119.10058,0.04298
3117.04041,0.04283
3114.98024,0.04265
3112.92007,0.04261
3110.85990,0.04267
3108.79972,0.04265
3106.73955,0.04246
3104.67938,0.04211
3102.61921,0.04180
3100.55904,0.04176
3098.49886,0.04185
3096.43869,0.04180
3094.37852,0.04166
3092.31835,0.04159
3090.25818,0.04156
3088.19800,0.04151
3086.13783,0.04149
3084.07766,0.04140
3082.01749,0.04125
3079.95731,0.04112
3077.89714,0.04104
3075.83697,0.04094
3073.77680,0.04072
3071.71663,0.04058
3069.65645,0.04064
3067.59628,0.04060
3065.53611,0.04044
3063.47594,0.04046
3061.41577,0.04054
3059.35559,0.04042
3057.29542,0.04027
3055.23525,0.04014
3053.17508,0.03991
3051.11491,0.03965
3049.05473,0.03947
3046.99456,0.03937
3044.93439,0.03927
3042.87422,0.03923
3040.81404,0.03925
3038.75387,0.03916
3036.69370,0.03893
3034.63353,0.03870
3032.57336,0.03850
3030.51318,0.03833
3028.45301,0.03825
3026.39284,0.03826
3024.33267,0.03826
3022.27250,0.03817
3020.21232,0.03803
3018.15215,0.03782
3016.09198,0.03743
3014.03181,0.03700
3011.97163,0.03675
3009.91146,0.03671
3007.85129,0.03678
3005.79112,0.03677
3003.73095,0.03665
3001.67077,0.03651
2999.61060,0.03646
2997.55043,0.03635
2995.49026,0.03628
2993.43009,0.03637
2991.36991,0.03652
2989.30974,0.03645
2987.24957,0.03626
2985.18940,0.03616
2983.12923,0.03611
2981.06905,0.03607
2979.00888,0.03605
2976.94871,0.03610
2974.88854,0.03617
2972.82836,0.03614
2970.76819,0.03609
2968.70802,0.03603
2966.64785,0.03588
2964.58768,0.03582
2962.52750,0.03599
2960.46733,0.03611
2958.40716,0.03612
2956.34699,0.03613
2954.28682,0.03603
2952.22664,0.03584
2950.16647,0.03579
2948.10630,0.03590
2946.04613,0.03601
2943.98596,0.03604
2941.92578,0.03595
2939.86561,0.03574
2937.80544,0.03559
2935.74527,0.03568
2933.68509,0.03587
2931.62492,0.03585
2929.56475,0.03561
2927.50458,0.03543
2925.44441,0.03541
2923.38423,0.03540
2921.32406,0.03545
2919.26389,0.03554
2917.20372,0.03550
2915.14355,0.03542
2913.08337,0.03546
2911.02320,0.03550
2908.96303,0.03547
2906.90286,0.03538
2904.84268,0.03520
2902.78251,0.03502
2900.72234,0.03499
2898.66217,0.03511
2896.60200,0.03517
2894.54182,0.03511
2892.48165,0.03495
2890.42148,0.03478
2888.36131,0.03476
2886.30114,0.03489
2884.24096,0.03505
2882.18079,0.03514
2880.12062,0.03503
2878.06045,0.03479
2876.00028,0.03455
2873.94010,0.03436
2871.87993,0.03425
2869.81976,0.03425
2867.75959,0.03432
2865.69941,0.03435
2863.63924,0.03426
2861.57907,0.03417
2859.51890,0.03416
2857.45873,0.03409
2855.39855,0.03401
2853.33838,0.03392
2851.27821,0.03376
2849.21804,0.03364
2847.15787,0.03360
2845.09769,0.03350
2843.03752,0.03342
2840.97735,0.03343
2838.91718,0.03334
2836.85700,0.03311
2834.79683,0.03298
2832.73666,0.03296
2830.67649,0.03288
2828.61632,0.03274
2826.55614,0.03266
2824.49597,0.03268
2822.43580,0.03261
2820.37563,0.03237
2818.31546,0.03211
2816.25528,0.03199
2814.19511,0.03195
2812.13494,0.03198
2810.07477,0.03194
2808.01460,0.03177
2805.95442,0.03156
2803.89425,0.03139
2801.83408,0.03128
2799.77391,0.03125
2797.71373,0.03124
2795.65356,0.03114
2793.59339,0.03101
2791.53322,0.03092
2789.47305,0.03083
2787.41287,0.03076
2785.35270,0.03069
2783.29253,0.03062
2781.23236,0.03053
2779.17219,0.03044
2777.11201,0.03040
2775.05184,0.03031
2772.99167,0.03007
2770.93150,0.02984
2768.87133,0.02974
2766.81115,0.02970
2764.75098,0.02964
2762.69081,0.02959
2760.63064,0.02953
2758.57046,0.02946
2756.51029,0.02942
2754.45012,0.02943
2752.38995,0.02946
2750.32978,0.02941
2748.26960,0.02930
2746.20943,0.02918
2744.14926,0.02900
2742.08909,0.02882
2740.02892,0.02874
2737.96874,0.02872
2735.90857,0.02861
2733.84840,0.02846
2731.78823,0.02842
2729.72805,0.02846
2727.66788,0.02842
2725.60771,0.02823
2723.54754,0.02804
2721.48737,0.02797
2719.42719,0.02795
2717.36702,0.02793
2715.30685,0.02795
2713.24668,0.02793
2711.18651,0.02787
2709.12633,0.02777
2707.06616,0.02758
2705.00599,0.02742
2702.94582,0.02740
2700.88565,0.02746
2698.82547,0.02744
2696.76530,0.02732
2694.70513,0.02725
2692.64496,0.02727
2690.58478,0.02725
2688.52461,0.02722
2686.46444,0.02722
2684.40427,0.02716
2682.34410,0.02696
2680.28392,0.02678
2678.22375,0.02672
2676.16358,0.02664
2674.10341,0.02657
2672.04324,0.02654
2669.98306,0.02647
2667.92289,0.02639
2665.86272,0.02639
2663.80255,0.02643
2661.74238,0.02641
2659.68220,0.02632
2657.62203,0.02617
2655.56186,0.02604
2653.50169,0.02604
2651.44151,0.02612
2649.38134,0.02611
2647.32117,0.02601
2645.26100,0.02591
2643.20083,0.02584
2641.14065,0.02576
2639.08048,0.02567
2637.02031,0.02567
2634.96014,0.02568
2632.89997,0.02559
2630.83979,0.02552
2628.77962,0.02552
2626.71945,0.02546
2624.65928,0.02538
2622.59910,0.02534
2620.53893,0.02536
2618.47876,0.02547
2616.41859,0.02555
2614.35842,0.02552
2612.29824,0.02552
2610.23807,0.02554
2608.17790,0.02542
2606.11773,0.02528
2604.05756,0.02525
2601.99738,0.02539
2599.93721,0.02556
2597.87704,0.02556
2595.81687,0.02540
2593.75670,0.02522
2591.69652,0.02519
2589.63635,0.02534
2587.57618,0.02550
2585.51601,0.02547
2583.45583,0.02536
2581.39566,0.02540
2579.33549,0.02541
2577.27532,0.02525
2575.21515,0.02509
2573.15497,0.02511
2571.09480,0.02521
2569.03463,0.02529
2566.97446,0.02530
2564.91429,0.02528
2562.85411,0.02537
2560.79394,0.02566
2558.73377,0.02584
2556.67360,0.02572
2554.61342,0.02554
2552.55325,0.02558
2550.49308,0.02575
2548.43291,0.02587
2546.37274,0.02590
2544.31256,0.02584
2542.25239,0.02574
2540.19222,0.02568
2538.13205,0.02565
2536.07188,0.02572
2534.01170,0.02593
2531.95153,0.02615
2529.89136,0.02619
2527.83119,0.02608
2525.77102,0.02605
2523.71084,0.02610
2521.65067,0.02615
2519.59050,0.02619
2517.53033,0.02630
2515.47015,0.02638
2513.40998,0.02631
2511.34981,0.02631
2509.28964,0.02639
2507.22947,0.02643
2505.16929,0.02651
2503.10912,0.02656
2501.04895,0.02654
2498.98878,0.02648
2496.92861,0.02655
2494.86843,0.02685
2492.80826,0.02715
2490.74809,0.02726
2488.68792,0.02721
2486.62775,0.02711
2484.56757,0.02717
2482.50740,0.02746
2480.44723,0.02766
2478.38706,0.02760
2476.32688,0.02758
2474.26671,0.02773
2472.20654,0.02792
2470.14637,0.02813
2468.08620,0.02825
2466.02602,0.02820
2463.96585,0.02809
2461.90568,0.02811
2459.84551,0.02823
2457.78534,0.02823
2455.72516,0.02820
2453.66499,0.02836
2451.60482,0.02848
2449.54465,0.02841
2447.48447,0.02838
2445.42430,0.02851
2443.36413,0.02858
2441.30396,0.02867
2439.24379,0.02898
2437.18361,0.02915
2435.12344,0.02892
2433.06327,0.02856
2431.00310,0.02838
2428.94293,0.02853
2426.88275,0.02879
2424.82258,0.02879
2422.76241,0.02868
2420.70224,0.02880
2418.64207,0.02896
2416.58189,0.02886
2414.52172,0.02872
2412.46155,0.02863
2410.40138,0.02845
2408.34120,0.02838
2406.28103,0.02858
2404.22086,0.02877
2402.16069,0.02873
2400.10052,0.02863
2398.04034,0.02880
2395.98017,0.02887
2393.92000,0.02880
2391.85983,0.02864
2389.79966,0.02837
2387.73948,0.02791
2385.67931,0.02704
2383.61914,0.02628
2381.55897,0.02630
2379.49880,0.02647
2377.43862,0.02682
2375.37845,0.02861
2373.31828,0.02766
2371.25811,0.02705
2369.19793,0.02930
2367.13776,0.03109
2365.07759,0.02923
2363.01742,0.02984
2360.95725,0.02559
2358.89707,0.02730
2356.83690,0.02926
2354.77673,0.03293
2352.71656,0.03123
2350.65639,0.02083
2348.59621,0.01308
2346.53604,0.02994
2344.47587,0.03373
2342.41570,0.02997
2340.35552,0.02651
2338.29535,0.02655
2336.23518,0.02677
2334.17501,0.02719
2332.11484,0.02768
2330.05466,0.02530
2327.99449,0.02619
2325.93432,0.02229
2323.87415,0.02366
2321.81398,0.02321
2319.75380,0.02696
2317.69363,0.02619
2315.63346,0.02627
2313.57329,0.02806
2311.51312,0.02719
2309.45294,0.02629
2307.39277,0.02581
2305.33260,0.02541
2303.27243,0.02512
2301.21225,0.02537
2299.15208,0.02493
2297.09191,0.02480
2295.03174,0.02587
2292.97157,0.02658
2290.91139,0.02683
2288.85122,0.02710
2286.79105,0.02709
2284.73088,0.02660
2282.67071,0.02629
2280.61053,0.02640
2278.55036,0.02672
2276.49019,0.02696
2274.43002,0.02675
2272.36984,0.02652
2270.30967,0.02641
2268.24950,0.02655
2266.18933,0.02670
2264.12916,0.02668
2262.06898,0.02646
2260.00881,0.02649
2257.94864,0.02614
2255.88847,0.02580
2253.82830,0.02574
2251.76812,0.02566
2249.70795,0.02565
2247.64778,0.02595
2245.58761,0.02634
2243.52744,0.02611
2241.46726,0.02542
2239.40709,0.02528
2237.34692,0.02570
2235.28675,0.02584
2233.22657,0.02577
2231.16640,0.02578
2229.10623,0.02572
2227.04606,0.02560
2224.98589,0.02549
2222.92571,0.02541
2220.86554,0.02522
2218.80537,0.02490
2216.74520,0.02463
2214.68503,0.02450
2212.62485,0.02435
2210.56468,0.02446
2208.50451,0.02497
2206.44434,0.02505
2204.38417,0.02482
2202.32399,0.02486
2200.26382,0.02436
2198.20365,0.02352
2196.14348,0.02384
2194.08330,0.02452
2192.02313,0.02435
2189.96296,0.02400
2187.90279,0.02385
2185.84262,0.02340
2183.78244,0.02270
2181.72227,0.02255
2179.66210,0.02317
2177.60193,0.02407
2175.54176,0.02470
2173.48158,0.02461
2171.42141,0.02426
2169.36124,0.02433
2167.30107,0.02454
2165.24089,0.02463
2163.18072,0.02423
2161.12055,0.02298
2159.06038,0.02191
2157.00021,0.02225
2154.94003,0.02354
2152.87986,0.02470
2150.81969,0.02500
2148.75952,0.02418
2146.69935,0.02299
2144.63917,0.02262
2142.57900,0.02297
2140.51883,0.02330
2138.45866,0.02326
2136.39849,0.02307
2134.33831,0.02330
2132.27814,0.02330
2130.21797,0.02270
2128.15780,0.02268
2126.09762,0.02324
2124.03745,0.02353
2121.97728,0.02355
2119.91711,0.02360
2117.85694,0.02361
2115.79676,0.02350
2113.73659,0.02338
2111.67642,0.02332
2109.61625,0.02315
2107.55608,0.02296
2105.49590,0.02291
2103.43573,0.02298
2101.37556,0.02333
2099.31539,0.02395
2097.25521,0.02382
2095.19504,0.02326
2093.13487,0.02285
2091.07470,0.02258
2089.01453,0.02255
2086.95435,0.02286
2084.89418,0.02313
2082.83401,0.02342
2080.77384,0.02410
2078.71367,0.02476
2076.65349,0.02479
2074.59332,0.02433
2072.53315,0.02376
2070.47298,0.02314
2068.41281,0.02278
2066.35263,0.02294
2064.29246,0.02305
2062.23229,0.02280
2060.17212,0.02279
2058.11194,0.02314
2056.05177,0.02332
2053.99160,0.02317
2051.93143,0.02282
2049.87126,0.02275
2047.81108,0.02350
2045.75091,0.02463
2043.69074,0.02516
2041.63057,0.02490
2039.57040,0.02443
2037.51022,0.02367
2035.45005,0.02267
2033.38988,0.02199
2031.32971,0.02164
2029.26954,0.02179
2027.20936,0.02271
2025.14919,0.02378
2023.08902,0.02422
2021.02885,0.02422
2018.96867,0.02433
2016.90850,0.02476
2014.84833,0.02518
2012.78816,0.02471
2010.72799,0.02364
2008.66781,0.02322
2006.60764,0.02340
2004.54747,0.02334
2002.48730,0.02303
2000.42713,0.02304
1998.36695,0.02321
1996.30678,0.02301
1994.24661,0.02284
1992.18644,0.02279
1990.12626,0.02258
1988.06609,0.02284
1986.00592,0.02359
1983.94575,0.02418
1981.88558,0.02442
1979.82540,0.02457
1977.76523,0.02498
1975.70506,0.02527
1973.64489,0.02504
1971.58472,0.02437
1969.52454,0.02367
1967.46437,0.02353
1965.40420,0.02369
1963.34403,0.02383
1961.28386,0.02403
1959.22368,0.02379
1957.16351,0.02310
1955.10334,0.02278
1953.04317,0.02303
1950.98299,0.02350
1948.92282,0.02404
1946.86265,0.02431
1944.80248,0.02424
1942.74231,0.02422
1940.68213,0.02436
1938.62196,0.02449
1936.56179,0.02453
1934.50162,0.02447
1932.44145,0.02438
1930.38127,0.02450
1928.32110,0.02490
1926.26093,0.02504
1924.20076,0.02459
1922.14059,0.02404
1920.08041,0.02376
1918.02024,0.02357
1915.96007,0.02368
1913.89990,0.02427
1911.83972,0.02481
1909.77955,0.02497
1907.71938,0.02500
1905.65921,0.02512
1903.59904,0.02524
1901.53886,0.02528
1899.47869,0.02521
1897.41852,0.02508
1895.35835,0.02493
1893.29818,0.02479
1891.23800,0.02481
1889.17783,0.02505
1887.11766,0.02541
1885.05749,0.02572
1882.99731,0.02587
1880.93714,0.02594
1878.87697,0.02604
1876.81680,0.02619
1874.75663,0.02629
1872.69645,0.02624
1870.63628,0.02616
1868.57611,0.02621
1866.51594,0.02620
1864.45577,0.02605
1862.39559,0.02596
1860.33542,0.02602
1858.27525,0.02626
1856.21508,0.02662
1854.15491,0.02682
1852.09473,0.02684
1850.03456,0.02685
1847.97439,0.02682
1845.91422,0.02656
1843.85404,0.02625
1841.79387,0.02641
1839.73370,0.02698
1837.67353,0.02740
1835.61336,0.02737
1833.55318,0.02721
1831.49301,0.02731
1829.43284,0.02751
1827.37267,0.02753
1825.31250,0.02750
1823.25232,0.02762
1821.19215,0.02780
1819.13198,0.02787
1817.07181,0.02787
1815.01163,0.02789
1812.95146,0.02782
1810.89129,0.02763
1808.83112,0.02753
1806.77095,0.02760
1804.71077,0.02764
1802.65060,0.02765
1800.59043,0.02783
1798.53026,0.02799
1796.47009,0.02792
1794.40991,0.02782
1792.34974,0.02789
1790.28957,0.02805
1788.22940,0.02808
1786.16923,0.02797
1784.10905,0.02798
1782.04888,0.02820
1779.98871,0.02829
1777.92854,0.02815
1775.86836,0.02811
1773.80819,0.02826
1771.74802,0.02824
1769.68785,0.02798
1767.62768,0.02790
1765.56750,0.02812
1763.50733,0.02843
1761.44716,0.02859
1759.38699,0.02863
1757.32682,0.02871
1755.26664,0.02881
1753.20647,0.02890
1751.14630,0.02902
1749.08613,0.02913
1747.02596,0.02918
1744.96578,0.02930
1742.90561,0.02963
1740.84544,0.02991
1738.78527,0.03001
1736.72509,0.03011
1734.66492,0.03022
1732.60475,0.03013
1730.54458,0.03009
1728.48441,0.03020
1726.42423,0.03031
1724.36406,0.03025
1722.30389,0.03020
1720.24372,0.03037
1718.18355,0.03038
1716.12337,0.02992
1714.06320,0.02972
1712.00303,0.02984
1709.94286,0.03009
1707.88268,0.03035
1705.82251,0.03044
1703.76234,0.03037
1701.70217,0.03039
1699.64200,0.03049
1697.58182,0.03072
1695.52165,0.03129
1693.46148,0.03202
1691.40131,0.03254
1689.34114,0.03288
1687.28096,0.03326
1685.22079,0.03392
1683.16062,0.03465
1681.10045,0.03524
1679.04028,0.03584
1676.98010,0.03662
1674.91993,0.03745
1672.85976,0.03814
1670.79959,0.03874
1668.73941,0.03925
1666.67924,0.03966
1664.61907,0.04010
1662.55890,0.04049
1660.49873,0.04062
1658.43855,0.04067
1656.37838,0.04088
1654.31821,0.04122
1652.25804,0.04138
1650.19787,0.04142
1648.13769,0.04140
1646.07752,0.04132
1644.01735,0.04108
1641.95718,0.04091
1639.89701,0.04097
1637.83683,0.04108
1635.77666,0.04092
1633.71649,0.04061
1631.65632,0.04035
1629.59614,0.04014
1627.53597,0.03994
1625.47580,0.03972
1623.41563,0.03949
1621.35546,0.03930
1619.29528,0.03933
1617.23511,0.03944
1615.17494,0.03925
1613.11477,0.03890
1611.05460,0.03863
1608.99442,0.03845
1606.93425,0.03835
1604.87408,0.03832
1602.81391,0.03818
1600.75373,0.03787
1598.69356,0.03760
1596.63339,0.03741
1594.57322,0.03714
1592.51305,0.03677
1590.45287,0.03645
1588.39270,0.03620
1586.33253,0.03593
1584.27236,0.03556
1582.21219,0.03515
1580.15201,0.03490
1578.09184,0.03474
1576.03167,0.03430
1573.97150,0.03364
1571.91133,0.03322
1569.85115,0.03298
1567.79098,0.03268
1565.73081,0.03241
1563.67064,0.03231
1561.61046,0.03246
1559.55029,0.03234
1557.49012,0.03149
1555.42995,0.03092
1553.36978,0.03071
1551.30960,0.03059
1549.24943,0.03051
1547.18926,0.03043
1545.12909,0.03028
1543.06892,0.03015
1541.00874,0.03020
1538.94857,0.03011
1536.88840,0.02970
1534.82823,0.02938
1532.76805,0.02934
1530.70788,0.02930
1528.64771,0.02906
1526.58754,0.02862
1524.52737,0.02825
1522.46719,0.02808
1520.40702,0.02783
1518.34685,0.02762
1516.28668,0.02746
1514.22651,0.02717
1512.16633,0.02683
1510.10616,0.02667
1508.04599,0.02672
1505.98582,0.02685
1503.92565,0.02687
1501.86547,0.02675
1499.80530,0.02681
1497.74513,0.02708
1495.68496,0.02729
1493.62478,0.02736
1491.56461,0.02728
1489.50444,0.02702
1487.44427,0.02689
1485.38410,0.02704
1483.32392,0.02720
1481.26375,0.02731
1479.20358,0.02744
1477.14341,0.02754
1475.08324,0.02755
1473.02306,0.02760
1470.96289,0.02774
1468.90272,0.02790
1466.84255,0.02817
1464.78238,0.02848
1462.72220,0.02862
1460.66203,0.02871
1458.60186,0.02863
1456.54169,0.02827
1454.48151,0.02822
1452.42134,0.02852
1450.36117,0.02899
1448.30100,0.02947
1446.24083,0.02980
1444.18065,0.02995
1442.12048,0.02999
1440.06031,0.02999
1438.00014,0.02998
1435.93997,0.02995
1433.87979,0.03006
1431.81962,0.03039
1429.75945,0.03083
1427.69928,0.03114
1425.63910,0.03135
1423.57893,0.03157
1421.51876,0.03174
1419.45859,0.03181
1417.39842,0.03202
1415.33824,0.03254
1413.27807,0.03308
1411.21790,0.03346
1409.15773,0.03377
1407.09756,0.03403
1405.03738,0.03419
1402.97721,0.03428
1400.91704,0.03419
1398.85687,0.03383
1396.79670,0.03357
1394.73652,0.03370
1392.67635,0.03390
1390.61618,0.03394
1388.55601,0.03398
1386.49583,0.03419
1384.43566,0.03443
1382.37549,0.03450
1380.31532,0.03446
1378.25515,0.03451
1376.19497,0.03463
1374.13480,0.03468
1372.07463,0.03474
1370.01446,0.03490
1367.95429,0.03504
1365.89411,0.03503
1363.83394,0.03482
1361.77377,0.03463
1359.71360,0.03472
1357.65343,0.03486
1355.59325,0.03490
1353.53308,0.03485
1351.47291,0.03471
1349.41274,0.03447
1347.35256,0.03413
1345.29239,0.03371
1343.23222,0.03323
1341.17205,0.03267
1339.11188,0.03219
1337.05170,0.03212
1334.99153,0.03230
1332.93136,0.03230
1330.87119,0.03202
1328.81102,0.03166
1326.75084,0.03142
1324.69067,0.03129
1322.63050,0.03114
1320.57033,0.03090
1318.51015,0.03065
1316.44998,0.03050
1314.38981,0.03039
1312.32964,0.03028
1310.26947,0.03022
1308.20929,0.03016
1306.14912,0.03009
1304.08895,0.03011
1302.02878,0.03016
1299.96861,0.03014
1297.90843,0.03012
1295.84826,0.03011
1293.78809,0.03005
1291.72792,0.02989
1289.66775,0.02970
1287.60757,0.02960
1285.54740,0.02959
1283.48723,0.02963
1281.42706,0.02966
1279.36688,0.02968
1277.30671,0.02966
1275.24654,0.02961
1273.18637,0.02955
1271.12620,0.02948
1269.06602,0.02940
1267.00585,0.02933
1264.94568,0.02932
1262.88551,0.02946
1260.82534,0.02964
1258.76516,0.02970
1256.70499,0.02966
1254.64482,0.02961
1252.58465,0.02960
1250.52447,0.02963
1248.46430,0.02961
1246.40413,0.02948
1244.34396,0.02928
1242.28379,0.02915
1240.22361,0.02914
1238.16344,0.02917
1236.10327,0.02912
1234.04310,0.02895
1231.98293,0.02875
1229.92275,0.02857
1227.86258,0.02842
1225.80241,0.02829
1223.74224,0.02810
1221.68207,0.02783
1219.62189,0.02765
1217.56172,0.02761
1215.50155,0.02749
1213.44138,0.02727
1211.38120,0.02708
1209.32103,0.02703
1207.26086,0.02713
1205.20069,0.02739
1203.14052,0.02777
1201.08034,0.02813
1199.02017,0.02842
1196.96000,0.02892
1194.89983,0.02963
1192.83966,0.03037
1190.77948,0.03122
1188.71931,0.03224
1186.65914,0.03341
1184.59897,0.03481
1182.53880,0.03626
1180.47862,0.03766
1178.41845,0.03912
1176.35828,0.04047
1174.29811,0.04175
1172.23793,0.04312
1170.17776,0.04448
1168.11759,0.04581
1166.05742,0.04715
1163.99725,0.04848
1161.93707,0.04980
1159.87690,0.05115
1157.81673,0.05250
1155.75656,0.05378
1153.69639,0.05507
1151.63621,0.05641
1149.57604,0.05771
1147.51587,0.05894
1145.45570,0.06009
1143.39552,0.06105
1141.33535,0.06184
1139.27518,0.06264
1137.21501,0.06336
1135.15484,0.06390
1133.09466,0.06440
1131.03449,0.06488
1128.97432,0.06534
1126.91415,0.06594
1124.85398,0.06665
1122.79380,0.06746
1120.73363,0.06850
1118.67346,0.06959
1116.61329,0.07060
1114.55312,0.07167
1112.49294,0.07294
1110.43277,0.07437
1108.37260,0.07577
1106.31243,0.07709
1104.25225,0.07840
1102.19208,0.07975
1100.13191,0.08125
1098.07174,0.08281
1096.01157,0.08414
1093.95139,0.08525
1091.89122,0.08646
1089.83105,0.08789
1087.77088,0.08939
1085.71071,0.09082
1083.65053,0.09223
1081.59036,0.09358
1079.53019,0.09487
1077.47002,0.09612
1075.40985,0.09716
1073.34967,0.09791
1071.28950,0.09845
1069.22933,0.09869
1067.16916,0.09856
1065.10898,0.09812
1063.04881,0.09753
1060.98864,0.09685
1058.92847,0.09594
1056.86830,0.09470
1054.80812,0.09323
1052.74795,0.09166
1050.68778,0.08994
1048.62761,0.08790
1046.56744,0.08571
1044.50726,0.08360
1042.44709,0.08141
1040.38692,0.07912
1038.32675,0.07688
1036.26657,0.07460
1034.20640,0.07226
1032.14623,0.07004
1030.08606,0.06813
1028.02589,0.06644
1025.96571,0.06481
1023.90554,0.06320
1021.84537,0.06168
1019.78520,0.06033
1017.72503,0.05918
1015.66485,0.05840
1013.60468,0.05799
1011.54451,0.05779
1009.48434,0.05786
1007.42417,0.05826
1005.36399,0.05883
1003.30382,0.05960
1001.24365,0.06066
999.18348,0.06181
997.12330,0.06299
995.06313,0.06406
993.00296,0.06491
990.94279,0.06579
988.88262,0.06675
986.82244,0.06751
984.76227,0.06805
982.70210,0.06838
980.64193,0.06857
978.58176,0.06867
976.52158,0.06858
974.46141,0.06836
972.40124,0.06806
970.34107,0.06760
968.28089,0.06693
966.22072,0.06602
964.16055,0.06508
962.10038,0.06436
960.04021,0.06386
957.98003,0.06348
955.91986,0.06313
953.85969,0.06264
951.79952,0.06201
949.73935,0.06140
947.67917,0.06100
945.61900,0.06065
943.55883,0.06004
941.49866,0.05932
939.43849,0.05859
937.37831,0.05775
935.31814,0.05683
933.25797,0.05584
931.19780,0.05478
929.13762,0.05359
927.07745,0.05237
925.01728,0.05131
922.95711,0.05023
920.89694,0.04910
918.83676,0.04809
916.77659,0.04716
914.71642,0.04612
912.65625,0.04506
910.59608,0.04417
908.53590,0.04346
906.47573,0.04282
904.41556,0.04215
902.35539,0.04158
900.29522,0.04133
898.23504,0.04122
896.17487,0.04120
894.11470,0.04138
892.05453,0.04176
889.99435,0.04239
887.93418,0.04311
885.87401,0.04386
883.81384,0.04480
881.75367,0.04601
879.69349,0.04738
877.63332,0.04890
875.57315,0.05058
873.51298,0.05237
871.45281,0.05422
869.39263,0.05627
867.33246,0.05844
865.27229,0.06051
863.21212,0.06233
861.15194,0.06384
859.09177,0.06491
857.03160,0.06552
854.97143,0.06577
852.91126,0.06571
850.85108,0.06530
848.79091,0.06455
846.73074,0.06357
844.67057,0.06239
842.61040,0.06107
840.55022,0.05960
838.49005,0.05791
836.42988,0.05632
834.36971,0.05517
832.30954,0.05428
830.24936,0.05335
828.18919,0.05226
826.12902,0.05104
824.06885,0.04998
822.00867,0.04927
819.94850,0.04857
817.88833,0.04766
815.82816,0.04670
813.76799,0.04581
811.70781,0.04487
809.64764,0.04380
807.58747,0.04307
805.52730,0.04286
803.46713,0.04266
801.40695,0.04209
799.34678,0.04123
797.28661,0.04047
795.22644,0.04002
793.16627,0.03953
791.10609,0.03898
789.04592,0.03862
786.98575,0.03839
784.92558,0.03809
782.86540,0.03772
780.80523,0.03741
778.74506,0.03729
776.68489,0.03729
774.62472,0.03688
772.56454,0.03625
770.50437,0.03605
768.44420,0.03595
766.38403,0.03547
764.32386,0.03491
762.26368,0.03463
760.20351,0.03438
758.14334,0.03407
756.08317,0.03392
754.02299,0.03379
751.96282,0.03360
749.90265,0.03342
747.84248,0.03309
745.78231,0.03269
743.72213,0.03225
741.66196,0.03164
739.60179,0.03098
737.54162,0.03085
735.48145,0.03129
733.42127,0.03149
731.36110,0.03135
729.30093,0.03106
727.24076,0.03064
725.18059,0.03032
723.12041,0.02933
721.06024,0.02993
719.00007,0.02850
716.93990,0.02942
714.87972,0.02994
712.81955,0.02989
710.75938,0.02975
708.69921,0.02934
706.63904,0.02914
704.57886,0.02943
702.51869,0.02974
700.45852,0.02899
698.39835,0.02736
696.33818,0.02600
694.27800,0.02520
692.21783,0.02448
690.15766,0.02333
688.09749,0.02208
686.03731,0.02148
683.97714,0.02135
681.91697,0.02090
679.85680,0.02009
677.79663,0.01982
675.73645,0.02117
673.67628,0.02074
671.61611,0.00672
669.55594,0.00000
667.49577,0.03659
665.43559,0.01147
663.37542,0.01540
661.31525,0.02053
659.25508,0.01872
657.19491,0.01627
655.13473,0.01505
653.07456,0.01427
651.01439,0.01391
648.95422,0.01473
646.89404,0.01427
644.83387,0.01463
642.77370,0.01512
640.71353,0.01514
638.65336,0.01471
636.59318,0.01422
634.53301,0.01386
632.47284,0.01330
630.41267,0.01206
628.35250,0.01061
626.29232,0.00949
624.23215,0.00911
622.17198,0.00872
620.11181,0.00768
618.05164,0.00629
615.99146,0.00532
613.93129,0.00405
611.87112,0.00284
609.81095,0.00232
607.75077,0.00168
605.69060,0.00089
603.63043,0.00037
601.57026,0.00014
599.51009,0.00000
