3996.73391,-0.00024
3994.67373,-0.00004
3992.61356,0.00017
3990.55339,0.00043
3988.49322,0.00053
3986.43305,0.00045
3984.37287,0.00029
3982.31270,0.00006
3980.25253,-0.00009
3978.19236,-0.00008
3976.13219,0.00009
3974.07201,0.00029
3972.01184,0.00027
3969.95167,0.00010
3967.89150,0.00004
3965.83133,0.00010
3963.77115,0.00013
3961.71098,0.00006
3959.65081,0.00000
3957.59064,0.00004
3955.53046,0.00009
3953.47029,0.00013
3951.41012,0.00027
3949.34995,0.00048
3947.28978,0.00058
3945.22960,0.00057
3943.16943,0.00056
3941.10926,0.00050
3939.04909,0.00041
3936.98892,0.00035
3934.92874,0.00037
3932.86857,0.00043
3930.80840,0.00046
3928.74823,0.00050
3926.68805,0.00059
3924.62788,0.00066
3922.56771,0.00066
3920.50754,0.00065
3918.44737,0.00062
3916.38719,0.00054
3914.32702,0.00054
3912.26685,0.00070
3910.20668,0.00087
3908.14651,0.00085
3906.08633,0.00071
3904.02616,0.00053
3901.96599,0.00042
3899.90582,0.00042
3897.84565,0.00033
3895.78547,0.00027
3893.72530,0.00050
3891.66513,0.00081
3889.60496,0.00078
3887.54478,0.00060
3885.48461,0.00059
3883.42444,0.00071
3881.36427,0.00078
3879.30410,0.00065
3877.24392,0.00045
3875.18375,0.00047
3873.12358,0.00080
3871.06341,0.00117
3869.00324,0.00119
3866.94306,0.00092
3864.88289,0.00075
3862.82272,0.00054
3860.76255,0.00020
3858.70237,0.00000
3856.64220,0.00015
3854.58203,0.00078
3852.52186,0.00131
3850.46169,0.00113
3848.40151,0.00070
3846.34134,0.00058
3844.28117,0.00059
3842.22100,0.00046
3840.16083,0.00035
3838.10065,0.00031
3836.04048,0.00027
3833.98031,0.00024
3831.92014,0.00024
3829.85997,0.00039
3827.79979,0.00053
3825.73962,0.00043
3823.67945,0.00024
3821.61928,0.00017
3819.55910,0.00026
3817.49893,0.00048
3815.43876,0.00066
3813.37859,0.00058
3811.31842,0.00030
3809.25824,0.00022
3807.19807,0.00043
3805.13790,0.00069
3803.07773,0.00085
3801.01756,0.00088
3798.95738,0.00087
3796.89721,0.00095
3794.83704,0.00108
3792.77687,0.00105
3790.71670,0.00090
3788.65652,0.00086
3786.59635,0.00104
3784.53618,0.00132
3782.47601,0.00144
3780.41583,0.00127
3778.35566,0.00093
3776.29549,0.00079
3774.23532,0.00095
3772.17515,0.00115
3770.11497,0.00114
3768.05480,0.00101
3765.99463,0.00088
3763.93446,0.00077
3761.87429,0.00079
3759.81411,0.00098
3757.75394,0.00105
3755.69377,0.00092
3753.63360,0.00092
3751.57342,0.00105
3749.51325,0.00093
3747.45308,0.00075
3745.39291,0.00073
3743.33274,0.00077
3741.27256,0.00066
3739.21239,0.00066
3737.15222,0.00111
3735.09205,0.00160
3733.03188,0.00158
3730.97170,0.00136
3728.91153,0.00122
3726.85136,0.00110
3724.79119,0.00103
3722.73102,0.00103
3720.67084,0.00110
3718.61067,0.00116
3716.55050,0.00122
3714.49033,0.00115
3712.43015,0.00088
3710.36998,0.00068
3708.30981,0.00068
3706.24964,0.00069
3704.18947,0.00061
3702.12929,0.00056
3700.06912,0.00066
3698.00895,0.00097
3695.94878,0.00135
3693.88861,0.00158
3691.82843,0.00148
3689.76826,0.00101
3687.70809,0.00080
3685.64792,0.00116
3683.58775,0.00151
3681.52757,0.00155
3679.46740,0.00154
3677.40723,0.00174
3675.34706,0.00197
3673.28688,0.00195
3671.22671,0.00180
3669.16654,0.00174
3667.10637,0.00182
3665.04620,0.00198
3662.98602,0.00214
3660.92585,0.00216
3658.86568,0.00198
3656.80551,0.00188
3654.74534,0.00203
3652.68516,0.00245
3650.62499,0.00311
3648.56482,0.00357
3646.50465,0.00356
3644.44447,0.00332
3642.38430,0.00310
3640.32413,0.00299
3638.26396,0.00308
3636.20379,0.00350
3634.14361,0.00408
3632.08344,0.00443
3630.02327,0.00452
3627.96310,0.00454
3625.90293,0.00469
3623.84275,0.00496
3621.78258,0.00513
3619.72241,0.00512
3617.66224,0.00516
3615.60207,0.00533
3613.54189,0.00555
3611.48172,0.00572
3609.42155,0.00597
3607.36138,0.00632
3605.30120,0.00659
3603.24103,0.00681
3601.18086,0.00706
3599.12069,0.00732
3597.06052,0.00761
3595.00034,0.00791
3592.94017,0.00817
3590.88000,0.00855
3588.81983,0.00897
3586.75966,0.00901
3584.69948,0.00866
3582.63931,0.00857
3580.57914,0.00877
3578.51897,0.00884
3576.45879,0.00885
3574.39862,0.00906
3572.33845,0.00952
3570.27828,0.01020
3568.21811,0.01085
3566.15793,0.01094
3564.09776,0.01058
3562.03759,0.01044
3559.97742,0.01063
3557.91725,0.01076
3555.85707,0.01077
3553.79690,0.01089
3551.73673,0.01109
3549.67656,0.01132
3547.61639,0.01169
3545.55621,0.01206
3543.49604,0.01214
3541.43587,0.01220
3539.37570,0.01253
3537.31552,0.01293
3535.25535,0.01312
3533.19518,0.01326
3531.13501,0.01345
3529.07484,0.01362
3527.01466,0.01384
3524.95449,0.01409
3522.89432,0.01414
3520.83415,0.01400
3518.77398,0.01395
3516.71380,0.01402
3514.65363,0.01408
3512.59346,0.01427
3510.53329,0.01462
3508.47312,0.01491
3506.41294,0.01507
3504.35277,0.01520
3502.29260,0.01535
3500.23243,0.01554
3498.17225,0.01580
3496.11208,0.01607
3494.05191,0.01625
3491.99174,0.01632
3489.93157,0.01645
3487.87139,0.01673
3485.81122,0.01698
3483.75105,0.01715
3481.69088,0.01725
3479.63071,0.01723
3477.57053,0.01732
3475.51036,0.01766
3473.45019,0.01796
3471.39002,0.01804
3469.32984,0.01808
3467.26967,0.01818
3465.20950,0.01820
3463.14933,0.01829
3461.08916,0.01858
3459.02898,0.01877
3456.96881,0.01889
3454.90864,0.01913
3452.84847,0.01930
3450.78830,0.01937
3448.72812,0.01959
3446.66795,0.01986
3444.60778,0.01986
3442.54761,0.01980
3440.48744,0.01994
3438.42726,0.02023
3436.36709,0.02060
3434.30692,0.02089
3432.24675,0.02093
3430.18657,0.02076
3428.12640,0.02063
3426.06623,0.02073
3424.00606,0.02100
3421.94589,0.02120
3419.88571,0.02125
3417.82554,0.02134
3415.76537,0.02159
3413.70520,0.02178
3411.64503,0.02187
3409.58485,0.02194
3407.52468,0.02193
3405.46451,0.02201
3403.40434,0.02224
3401.34416,0.02231
3399.28399,0.02220
3397.22382,0.02236
3395.16365,0.02255
3393.10348,0.02269
3391.04330,0.02271
3388.98313,0.02262
3386.92296,0.02263
3384.86279,0.02280
3382.80262,0.02300
3380.74244,0.02321
3378.68227,0.02339
3376.62210,0.02342
3374.56193,0.02334
3372.50176,0.02322
3370.44158,0.02313
3368.38141,0.02318
3366.32124,0.02330
3364.26107,0.02341
3362.20089,0.02359
3360.14072,0.02381
3358.08055,0.02386
3356.02038,0.02381
3353.96021,0.02376
3351.90003,0.02376
3349.83986,0.02388
3347.77969,0.02406
3345.71952,0.02424
3343.65935,0.02429
3341.59917,0.02417
3339.53900,0.02413
3337.47883,0.02421
3335.41866,0.02434
3333.35849,0.02451
3331.29831,0.02459
3329.23814,0.02454
3327.17797,0.02460
3325.11780,0.02488
3323.05762,0.02510
3320.99745,0.02509
3318.93728,0.02499
3316.87711,0.02473
3314.81694,0.02428
3312.75676,0.02406
3310.69659,0.02431
3308.63642,0.02471
3306.57625,0.02494
3304.51608,0.02509
3302.45590,0.02521
3300.39573,0.02516
3298.33556,0.02510
3296.27539,0.02520
3294.21521,0.02527
3292.15504,0.02525
3290.09487,0.02532
3288.03470,0.02566
3285.97453,0.02593
3283.91435,0.02580
3281.85418,0.02555
3279.79401,0.02545
3277.73384,0.02546
3275.67367,0.02555
3273.61349,0.02548
3271.55332,0.02522
3269.49315,0.02515
3267.43298,0.02534
3265.37281,0.02548
3263.31263,0.02544
3261.25246,0.02534
3259.19229,0.02535
3257.13212,0.02551
3255.07194,0.02568
3253.01177,0.02578
3250.95160,0.02586
3248.89143,0.02589
3246.83126,0.02584
3244.77108,0.02582
3242.71091,0.02581
3240.65074,0.02573
3238.59057,0.02574
3236.53040,0.02586
3234.47022,0.02587
3232.41005,0.02578
3230.34988,0.02585
3228.28971,0.02596
3226.22954,0.02590
3224.16936,0.02580
3222.10919,0.02572
3220.04902,0.02573
3217.98885,0.02584
3215.92867,0.02589
3213.86850,0.02581
3211.80833,0.02575
3209.74816,0.02591
3207.68799,0.02615
3205.62781,0.02620
3203.56764,0.02606
3201.50747,0.02573
3199.44730,0.02534
3197.38713,0.02525
3195.32695,0.02550
3193.26678,0.02577
3191.20661,0.02583
3189.14644,0.02576
3187.08626,0.02575
3185.02609,0.02580
3182.96592,0.02585
3180.90575,0.02589
3178.84558,0.02589
3176.78540,0.02584
3174.72523,0.02578
3172.66506,0.02572
3170.60489,0.02552
3168.54472,0.02518
3166.48454,0.02507
3164.42437,0.02516
3162.36420,0.02516
3160.30403,0.02502
3158.24386,0.02489
3156.18368,0.02490
3154.12351,0.02503
3152.06334,0.02506
3150.00317,0.02500
3147.94299,0.02503
3145.88282,0.02503
3143.82265,0.02483
3141.76248,0.02462
3139.70231,0.02462
3137.64213,0.02469
3135.58196,0.02470
3133.52179,0.02473
3131.46162,0.02474
3129.40145,0.02462
3127.34127,0.02451
3125.28110,0.02456
3123.22093,0.02454
3121.16076,0.02431
3119.10058,0.02413
3117.04041,0.02412
3114.98024,0.02408
3112.92007,0.02392
3110.85990,0.02382
3108.79972,0.02386
3106.73955,0.02394
3104.67938,0.02385
3102.61921,0.02365
3100.55904,0.02352
3098.49886,0.02349
3096.43869,0.02352
3094.37852,0.02356
3092.31835,0.02355
3090.25818,0.02345
3088.19800,0.02327
3086.13783,0.02300
3084.07766,0.02283
3082.01749,0.02290
3079.95731,0.02308
3077.89714,0.02313
3075.83697,0.02300
3073.77680,0.02279
3071.71663,0.02258
3069.65645,0.02242
3067.59628,0.02235
3065.53611,0.02236
3063.47594,0.02237
3061.41577,0.02242
3059.35559,0.02253
3057.29542,0.02252
3055.23525,0.02236
3053.17508,0.02221
3051.11491,0.02212
3049.05473,0.02200
3046.99456,0.02175
3044.93439,0.02147
3042.87422,0.02140
3040.81404,0.02154
3038.75387,0.02158
3036.69370,0.02137
3034.63353,0.02111
3032.57336,0.02098
3030.51318,0.02090
3028.45301,0.02079
3026.39284,0.02067
3024.33267,0.02051
3022.27250,0.02040
3020.21232,0.02044
3018.15215,0.02038
3016.09198,0.02011
3014.03181,0.02000
3011.97163,0.02010
3009.91146,0.02011
3007.85129,0.01988
3005.79112,0.01959
3003.73095,0.01945
3001.67077,0.01937
2999.61060,0.01924
2997.55043,0.01914
2995.49026,0.01908
2993.43009,0.01894
2991.36991,0.01888
2989.30974,0.01893
2987.24957,0.01901
2985.18940,0.01908
2983.12923,0.01915
2981.06905,0.01920
2979.00888,0.01909
2976.94871,0.01887
2974.88854,0.01872
2972.82836,0.01866
2970.76819,0.01861
2968.70802,0.01857
2966.64785,0.01855
2964.58768,0.01850
2962.52750,0.01834
2960.46733,0.01816
2958.40716,0.01812
2956.34699,0.01822
2954.28682,0.01831
2952.22664,0.01826
2950.16647,0.01814
2948.10630,0.01809
2946.04613,0.01799
2943.98596,0.01787
2941.92578,0.01782
2939.86561,0.01773
2937.80544,0.01766
2935.74527,0.01769
2933.68509,0.01772
2931.62492,0.01768
2929.56475,0.01756
2927.50458,0.01745
2925.44441,0.01741
2923.38423,0.01737
2921.32406,0.01732
2919.26389,0.01727
2917.20372,0.01709
2915.14355,0.01689
2913.08337,0.01668
2911.02320,0.01654
2908.96303,0.01655
2906.90286,0.01660
2904.84268,0.01656
2902.78251,0.01644
2900.72234,0.01627
2898.66217,0.01614
2896.60200,0.01612
2894.54182,0.01618
2892.48165,0.01613
2890.42148,0.01599
2888.36131,0.01592
2886.30114,0.01594
2884.24096,0.01601
2882.18079,0.01597
2880.12062,0.01574
2878.06045,0.01548
2876.00028,0.01536
2873.94010,0.01531
2871.87993,0.01523
2869.81976,0.01512
2867.75959,0.01495
2865.69941,0.01469
2863.63924,0.01450
2861.57907,0.01458
2859.51890,0.01470
2857.45873,0.01456
2855.39855,0.01434
2853.33838,0.01421
2851.27821,0.01403
2849.21804,0.01384
2847.15787,0.01384
2845.09769,0.01387
2843.03752,0.01379
2840.97735,0.01367
2838.91718,0.01351
2836.85700,0.01338
2834.79683,0.01332
2832.73666,0.01320
2830.67649,0.01304
2828.61632,0.01296
2826.55614,0.01294
2824.49597,0.01295
2822.43580,0.01295
2820.37563,0.01295
2818.31546,0.01284
2816.25528,0.01260
2814.19511,0.01246
2812.13494,0.01249
2810.07477,0.01248
2808.01460,0.01240
2805.95442,0.01230
2803.89425,0.01215
2801.83408,0.01199
2799.77391,0.01192
2797.71373,0.01189
2795.65356,0.01185
2793.59339,0.01185
2791.53322,0.01188
2789.47305,0.01188
2787.41287,0.01179
2785.35270,0.01166
2783.29253,0.01154
2781.23236,0.01141
2779.17219,0.01133
2777.11201,0.01120
2775.05184,0.01105
2772.99167,0.01097
2770.93150,0.01090
2768.87133,0.01079
2766.81115,0.01072
2764.75098,0.01074
2762.69081,0.01072
2760.63064,0.01065
2758.57046,0.01067
2756.51029,0.01077
2754.45012,0.01077
2752.38995,0.01060
2750.32978,0.01040
2748.26960,0.01030
2746.20943,0.01027
2744.14926,0.01028
2742.08909,0.01032
2740.02892,0.01031
2737.96874,0.01016
2735.90857,0.00999
2733.84840,0.00986
2731.78823,0.00969
2729.72805,0.00955
2727.66788,0.00956
2725.60771,0.00960
2723.54754,0.00952
2721.48737,0.00939
2719.42719,0.00938
2717.36702,0.00939
2715.30685,0.00928
2713.24668,0.00912
2711.18651,0.00900
2709.12633,0.00897
2707.06616,0.00905
2705.00599,0.00908
2702.94582,0.00897
2700.88565,0.00881
2698.82547,0.00866
2696.76530,0.00847
2694.70513,0.00845
2692.64496,0.00856
2690.58478,0.00860
2688.52461,0.00863
2686.46444,0.00862
2684.40427,0.00855
2682.34410,0.00846
2680.28392,0.00841
2678.22375,0.00839
2676.16358,0.00837
2674.10341,0.00828
2672.04324,0.00814
2669.98306,0.00805
2667.92289,0.00815
2665.86272,0.00823
2663.80255,0.00814
2661.74238,0.00807
2659.68220,0.00800
2657.62203,0.00792
2655.56186,0.00793
2653.50169,0.00793
2651.44151,0.00783
2649.38134,0.00772
2647.32117,0.00763
2645.26100,0.00760
2643.20083,0.00763
2641.14065,0.00761
2639.08048,0.00752
2637.02031,0.00738
2634.96014,0.00719
2632.89997,0.00712
2630.83979,0.00720
2628.77962,0.00730
2626.71945,0.00736
2624.65928,0.00733
2622.59910,0.00720
2620.53893,0.00697
2618.47876,0.00678
2616.41859,0.00677
2614.35842,0.00678
2612.29824,0.00675
2610.23807,0.00674
2608.17790,0.00670
2606.11773,0.00659
2604.05756,0.00641
2601.99738,0.00619
2599.93721,0.00621
2597.87704,0.00648
2595.81687,0.00667
2593.75670,0.00665
2591.69652,0.00647
2589.63635,0.00629
2587.57618,0.00617
2585.51601,0.00601
2583.45583,0.00580
2581.39566,0.00583
2579.33549,0.00612
2577.27532,0.00634
2575.21515,0.00638
2573.15497,0.00616
2571.09480,0.00584
2569.03463,0.00571
2566.97446,0.00562
2564.91429,0.00553
2562.85411,0.00574
2560.79394,0.00600
2558.73377,0.00606
2556.67360,0.00604
2554.61342,0.00601
2552.55325,0.00593
2550.49308,0.00586
2548.43291,0.00592
2546.37274,0.00608
2544.31256,0.00608
2542.25239,0.00592
2540.19222,0.00592
2538.13205,0.00608
2536.07188,0.00617
2534.01170,0.00603
2531.95153,0.00588
2529.89136,0.00578
2527.83119,0.00558
2525.77102,0.00566
2523.71084,0.00605
2521.65067,0.00618
2519.59050,0.00600
2517.53033,0.00591
2515.47015,0.00616
2513.40998,0.00642
2511.34981,0.00630
2509.28964,0.00620
2507.22947,0.00634
2505.16929,0.00634
2503.10912,0.00600
2501.04895,0.00567
2498.98878,0.00574
2496.92861,0.00603
2494.86843,0.00609
2492.80826,0.00592
2490.74809,0.00596
2488.68792,0.00619
2486.62775,0.00630
2484.56757,0.00634
2482.50740,0.00648
2480.44723,0.00656
2478.38706,0.00649
2476.32688,0.00645
2474.26671,0.00643
2472.20654,0.00622
2470.14637,0.00611
2468.08620,0.00646
2466.02602,0.00688
2463.96585,0.00702
2461.90568,0.00695
2459.84551,0.00682
2457.78534,0.00684
2455.72516,0.00691
2453.66499,0.00680
2451.60482,0.00658
2449.54465,0.00625
2447.48447,0.00588
2445.42430,0.00579
2443.36413,0.00602
2441.30396,0.00626
2439.24379,0.00626
2437.18361,0.00624
2435.12344,0.00645
2433.06327,0.00652
2431.00310,0.00626
2428.94293,0.00606
2426.88275,0.00605
2424.82258,0.00604
2422.76241,0.00597
2420.70224,0.00587
2418.64207,0.00591
2416.58189,0.00613
2414.52172,0.00635
2412.46155,0.00636
2410.40138,0.00627
2408.34120,0.00636
2406.28103,0.00645
2404.22086,0.00643
2402.16069,0.00641
2400.10052,0.00631
2398.04034,0.00549
2395.98017,0.00548
2393.92000,0.00588
2391.85983,0.00625
2389.79966,0.00661
2387.73948,0.00707
2385.67931,0.00762
2383.61914,0.00804
2381.55897,0.00806
2379.49880,0.00792
2377.43862,0.00799
2375.37845,0.00819
2373.31828,0.00819
2371.25811,0.00802
2369.19793,0.00802
2367.13776,0.00836
2365.07759,0.00911
2363.01742,0.01046
2360.95725,0.01203
2358.89707,0.01252
2356.83690,0.01211
2354.77673,0.01179
2352.71656,0.01150
2350.65639,0.01166
2348.59621,0.01180
2346.53604,0.01116
2344.47587,0.01023
2342.41570,0.01037
2340.35552,0.01149
2338.29535,0.01234
2336.23518,0.01260
2334.17501,0.01272
2332.11484,0.01248
2330.05466,0.01205
2327.99449,0.01202
2325.93432,0.01225
2323.87415,0.01199
2321.81398,0.01122
2319.75380,0.01065
2317.69363,0.01039
2315.63346,0.01016
2313.57329,0.00973
2311.51312,0.00925
2309.45294,0.00904
2307.39277,0.00887
2305.33260,0.00858
2303.27243,0.00837
2301.21225,0.00827
2299.15208,0.00824
2297.09191,0.00831
2295.03174,0.00844
2292.97157,0.00854
2290.91139,0.00846
2288.85122,0.00818
2286.79105,0.00772
2284.73088,0.00716
2282.67071,0.00657
2280.61053,0.00613
2278.55036,0.00599
2276.49019,0.00593
2274.43002,0.00577
2272.36984,0.00584
2270.30967,0.00626
2268.24950,0.00650
2266.18933,0.00628
2264.12916,0.00604
2262.06898,0.00607
2260.00881,0.00598
2257.94864,0.00557
2255.88847,0.00534
2253.82830,0.00544
2251.76812,0.00559
2249.70795,0.00569
2247.64778,0.00623
2245.58761,0.00642
2243.52744,0.00599
2241.46726,0.00554
2239.40709,0.00536
2237.34692,0.00533
2235.28675,0.00542
2233.22657,0.00531
2231.16640,0.00494
2229.10623,0.00496
2227.04606,0.00518
2224.98589,0.00509
2222.92571,0.00500
2220.86554,0.00520
2218.80537,0.00543
2216.74520,0.00569
2214.68503,0.00599
2212.62485,0.00596
2210.56468,0.00559
2208.50451,0.00496
2206.44434,0.00402
2204.38417,0.00364
2202.32399,0.00443
2200.26382,0.00522
2198.20365,0.00513
2196.14348,0.00484
2194.08330,0.00498
2192.02313,0.00505
2189.96296,0.00470
2187.90279,0.00450
2185.84262,0.00490
2183.78244,0.00523
2181.72227,0.00492
2179.66210,0.00464
2177.60193,0.00442
2175.54176,0.00452
2173.48158,0.00545
2171.42141,0.00597
2169.36124,0.00545
2167.30107,0.00463
2165.24089,0.00450
2163.18072,0.00516
2161.12055,0.00429
2159.06038,0.00139
2157.00021,0.00000
2154.94003,0.00072
2152.87986,0.00178
2150.81969,0.00189
2148.75952,0.00135
2146.69935,0.00227
2144.63917,0.00411
2142.57900,0.00476
2140.51883,0.00418
2138.45866,0.00302
2136.39849,0.00223
2134.33831,0.00249
2132.27814,0.00297
2130.21797,0.00320
2128.15780,0.00335
2126.09762,0.00334
2124.03745,0.00321
2121.97728,0.00307
2119.91711,0.00290
2117.85694,0.00266
2115.79676,0.00267
2113.73659,0.00341
2111.67642,0.00434
2109.61625,0.00448
2107.55608,0.00394
2105.49590,0.00337
2103.43573,0.00319
2101.37556,0.00335
2099.31539,0.00369
2097.25521,0.00354
2095.19504,0.00307
2093.13487,0.00300
2091.07470,0.00334
2089.01453,0.00344
2086.95435,0.00328
2084.89418,0.00323
2082.83401,0.00325
2080.77384,0.00319
2078.71367,0.00325
2076.65349,0.00344
2074.59332,0.00334
2072.53315,0.00280
2070.47298,0.00255
2068.41281,0.00318
2066.35263,0.00398
2064.29246,0.00403
2062.23229,0.00349
2060.17212,0.00308
2058.11194,0.00322
2056.05177,0.00357
2053.99160,0.00362
2051.93143,0.00370
2049.87126,0.00373
2047.81108,0.00319
2045.75091,0.00262
2043.69074,0.00233
2041.63057,0.00148
2039.57040,0.00052
2037.51022,0.00112
2035.45005,0.00285
2033.38988,0.00374
2031.32971,0.00357
2029.26954,0.00336
2027.20936,0.00294
2025.14919,0.00199
2023.08902,0.00119
2021.02885,0.00100
2018.96867,0.00111
2016.90850,0.00119
2014.84833,0.00159
2012.78816,0.00220
2010.72799,0.00250
2008.66781,0.00259
2006.60764,0.00262
2004.54747,0.00264
2002.48730,0.00247
2000.42713,0.00140
1998.36695,0.00036
1996.30678,0.00083
1994.24661,0.00167
1992.18644,0.00176
1990.12626,0.00163
1988.06609,0.00162
1986.00592,0.00186
1983.94575,0.00255
1981.88558,0.00356
1979.82540,0.00414
1977.76523,0.00357
1975.70506,0.00276
1973.64489,0.00227
1971.58472,0.00119
1969.52454,0.00026
1967.46437,0.00052
1965.40420,0.00094
1963.34403,0.00087
1961.28386,0.00085
1959.22368,0.00096
1957.16351,0.00108
1955.10334,0.00129
1953.04317,0.00143
1950.98299,0.00136
1948.92282,0.00130
1946.86265,0.00117
1944.80248,0.00089
1942.74231,0.00096
1940.68213,0.00149
1938.62196,0.00174
1936.56179,0.00138
1934.50162,0.00115
1932.44145,0.00143
1930.38127,0.00158
1928.32110,0.00139
1926.26093,0.00136
1924.20076,0.00161
1922.14059,0.00175
1920.08041,0.00157
1918.02024,0.00140
1915.96007,0.00151
1913.89990,0.00168
1911.83972,0.00154
1909.77955,0.00088
1907.71938,0.00021
1905.65921,0.00007
1903.59904,0.00021
1901.53886,0.00032
1899.47869,0.00050
1897.41852,0.00077
1895.35835,0.00092
1893.29818,0.00086
1891.23800,0.00082
1889.17783,0.00103
1887.11766,0.00143
1885.05749,0.00172
1882.99731,0.00165
1880.93714,0.00135
1878.87697,0.00121
1876.81680,0.00136
1874.75663,0.00154
1872.69645,0.00150
1870.63628,0.00133
1868.57611,0.00118
1866.51594,0.00106
1864.45577,0.00106
1862.39559,0.00119
1860.33542,0.00127
1858.27525,0.00120
1856.21508,0.00122
1854.15491,0.00145
1852.09473,0.00163
1850.03456,0.00160
1847.97439,0.00147
1845.91422,0.00132
1843.85404,0.00122
1841.79387,0.00109
1839.73370,0.00095
1837.67353,0.00105
1835.61336,0.00132
1833.55318,0.00150
1831.49301,0.00157
1829.43284,0.00160
1827.37267,0.00159
1825.31250,0.00161
1823.25232,0.00155
1821.19215,0.00129
1819.13198,0.00101
1817.07181,0.00091
1815.01163,0.00104
1812.95146,0.00123
1810.89129,0.00130
1808.83112,0.00127
1806.77095,0.00117
1804.71077,0.00103
1802.65060,0.00106
1800.59043,0.00128
1798.53026,0.00139
1796.47009,0.00141
1794.40991,0.00144
1792.34974,0.00141
1790.28957,0.00126
1788.22940,0.00115
1786.16923,0.00118
1784.10905,0.00136
1782.04888,0.00160
1779.98871,0.00166
1777.92854,0.00152
1775.86836,0.00143
1773.80819,0.00151
1771.74802,0.00157
1769.68785,0.00149
1767.62768,0.00140
1765.56750,0.00135
1763.50733,0.00138
1761.44716,0.00158
1759.38699,0.00189
1757.32682,0.00214
1755.26664,0.00233
1753.20647,0.00270
1751.14630,0.00320
1749.08613,0.00330
1747.02596,0.00309
1744.96578,0.00305
1742.90561,0.00306
1740.84544,0.00290
1738.78527,0.00278
1736.72509,0.00294
1734.66492,0.00337
1732.60475,0.00366
1730.54458,0.00356
1728.48441,0.00325
1726.42423,0.00307
1724.36406,0.00314
1722.30389,0.00327
1720.24372,0.00341
1718.18355,0.00378
1716.12337,0.00419
1714.06320,0.00427
1712.00303,0.00408
1709.94286,0.00398
1707.88268,0.00408
1705.82251,0.00428
1703.76234,0.00450
1701.70217,0.00480
1699.64200,0.00514
1697.58182,0.00539
1695.52165,0.00567
1693.46148,0.00607
1691.40131,0.00653
1689.34114,0.00705
1687.28096,0.00756
1685.22079,0.00811
1683.16062,0.00864
1681.10045,0.00909
1679.04028,0.00944
1676.98010,0.00977
1674.91993,0.01022
1672.85976,0.01084
1670.79959,0.01158
1668.73941,0.01217
1666.67924,0.01240
1664.61907,0.01256
1662.55890,0.01277
1660.49873,0.01287
1658.43855,0.01306
1656.37838,0.01353
1654.31821,0.01404
1652.25804,0.01415
1650.19787,0.01409
1648.13769,0.01408
1646.07752,0.01395
1644.01735,0.01366
1641.95718,0.01346
1639.89701,0.01350
1637.83683,0.01372
1635.77666,0.01364
1633.71649,0.01310
1631.65632,0.01261
1629.59614,0.01233
1627.53597,0.01223
1625.47580,0.01221
1623.41563,0.01206
1621.35546,0.01171
1619.29528,0.01141
1617.23511,0.01125
1615.17494,0.01097
1613.11477,0.01066
1611.05460,0.01055
1608.99442,0.01061
1606.93425,0.01066
1604.87408,0.01057
1602.81391,0.01029
1600.75373,0.00996
1598.69356,0.00980
1596.63339,0.00979
1594.57322,0.00969
1592.51305,0.00941
1590.45287,0.00908
1588.39270,0.00887
1586.33253,0.00872
1584.27236,0.00853
1582.21219,0.00827
1580.15201,0.00805
1578.09184,0.00788
1576.03167,0.00763
1573.97150,0.00730
1571.91133,0.00712
1569.85115,0.00707
1567.79098,0.00699
1565.73081,0.00688
1563.67064,0.00684
1561.61046,0.00703
1559.55029,0.00729
1557.49012,0.00697
1555.42995,0.00641
1553.36978,0.00615
1551.30960,0.00614
1549.24943,0.00610
1547.18926,0.00607
1545.12909,0.00629
1543.06892,0.00653
1541.00874,0.00635
1538.94857,0.00576
1536.88840,0.00529
1534.82823,0.00511
1532.76805,0.00502
1530.70788,0.00491
1528.64771,0.00490
1526.58754,0.00491
1524.52737,0.00481
1522.46719,0.00466
1520.40702,0.00444
1518.34685,0.00437
1516.28668,0.00440
1514.22651,0.00430
1512.16633,0.00423
1510.10616,0.00437
1508.04599,0.00432
1505.98582,0.00360
1503.92565,0.00299
1501.86547,0.00291
1499.80530,0.00309
1497.74513,0.00317
1495.68496,0.00302
1493.62478,0.00291
1491.56461,0.00306
1489.50444,0.00331
1487.44427,0.00320
1485.38410,0.00276
1483.32392,0.00244
1481.26375,0.00239
1479.20358,0.00250
1477.14341,0.00275
1475.08324,0.00306
1473.02306,0.00316
1470.96289,0.00295
1468.90272,0.00275
1466.84255,0.00283
1464.78238,0.00306
1462.72220,0.00319
1460.66203,0.00338
1458.60186,0.00373
1456.54169,0.00382
1454.48151,0.00352
1452.42134,0.00324
1450.36117,0.00325
1448.30100,0.00339
1446.24083,0.00335
1444.18065,0.00316
1442.12048,0.00306
1440.06031,0.00316
1438.00014,0.00342
1435.93997,0.00362
1433.87979,0.00362
1431.81962,0.00355
1429.75945,0.00350
1427.69928,0.00352
1425.63910,0.00366
1423.57893,0.00386
1421.51876,0.00404
1419.45859,0.00426
1417.39842,0.00439
1415.33824,0.00435
1413.27807,0.00429
1411.21790,0.00427
1409.15773,0.00427
1407.09756,0.00426
1405.03738,0.00420
1402.97721,0.00410
1400.91704,0.00416
1398.85687,0.00433
1396.79670,0.00433
1394.73652,0.00409
1392.67635,0.00371
1390.61618,0.00343
1388.55601,0.00340
1386.49583,0.00340
1384.43566,0.00330
1382.37549,0.00328
1380.31532,0.00337
1378.25515,0.00349
1376.19497,0.00357
1374.13480,0.00354
1372.07463,0.00340
1370.01446,0.00324
1367.95429,0.00306
1365.89411,0.00296
1363.83394,0.00297
1361.77377,0.00295
1359.71360,0.00287
1357.65343,0.00283
1355.59325,0.00279
1353.53308,0.00269
1351.47291,0.00258
1349.41274,0.00252
1347.35256,0.00246
1345.29239,0.00242
1343.23222,0.00251
1341.17205,0.00273
1339.11188,0.00281
1337.05170,0.00258
1334.99153,0.00231
1332.93136,0.00222
1330.87119,0.00220
1328.81102,0.00216
1326.75084,0.00208
1324.69067,0.00204
1322.63050,0.00215
1320.57033,0.00230
1318.51015,0.00238
1316.44998,0.00247
1314.38981,0.00253
1312.32964,0.00250
1310.26947,0.00242
1308.20929,0.00235
1306.14912,0.00233
1304.08895,0.00236
1302.02878,0.00244
1299.96861,0.00252
1297.90843,0.00264
1295.84826,0.00283
1293.78809,0.00301
1291.72792,0.00309
1289.66775,0.00313
1287.60757,0.00312
1285.54740,0.00294
1283.48723,0.00274
1281.42706,0.00268
1279.36688,0.00273
1277.30671,0.00283
1275.24654,0.00298
1273.18637,0.00304
1271.12620,0.00296
1269.06602,0.00284
1267.00585,0.00274
1264.94568,0.00269
1262.88551,0.00282
1260.82534,0.00302
1258.76516,0.00316
1256.70499,0.00321
1254.64482,0.00321
1252.58465,0.00317
1250.52447,0.00313
1248.46430,0.00308
1246.40413,0.00301
1244.34396,0.00291
1242.28379,0.00282
1240.22361,0.00277
1238.16344,0.00271
1236.10327,0.00262
1234.04310,0.00253
1231.98293,0.00246
1229.92275,0.00238
1227.86258,0.00229
1225.80241,0.00221
1223.74224,0.00205
1221.68207,0.00185
1219.62189,0.00172
1217.56172,0.00156
1215.50155,0.00136
1213.44138,0.00116
1211.38120,0.00093
1209.32103,0.00074
1207.26086,0.00062
1205.20069,0.00050
1203.14052,0.00031
1201.08034,0.00011
1199.02017,0.00000
1196.96000,-0.00002
1194.89983,0.00002
1192.83966,-0.00000
1190.77948,-0.00007
1188.71931,-0.00015
1186.65914,-0.00016
1184.59897,-0.00010
1182.53880,-0.00007
1180.47862,-0.00006
1178.41845,0.00005
1176.35828,0.00031
1174.29811,0.00062
1172.23793,0.00078
1170.17776,0.00089
1168.11759,0.00110
1166.05742,0.00138
1163.99725,0.00164
1161.93707,0.00187
1159.87690,0.00213
1157.81673,0.00251
1155.75656,0.00296
1153.69639,0.00337
1151.63621,0.00376
1149.57604,0.00409
1147.51587,0.00449
1145.45570,0.00502
1143.39552,0.00557
1141.33535,0.00607
1139.27518,0.00666
1137.21501,0.00729
1135.15484,0.00790
1133.09466,0.00860
1131.03449,0.00939
1128.97432,0.01015
1126.91415,0.01101
1124.85398,0.01209
1122.79380,0.01324
1120.73363,0.01440
1118.67346,0.01553
1116.61329,0.01647
1114.55312,0.01733
1112.49294,0.01834
1110.43277,0.01947
1108.37260,0.02058
1106.31243,0.02158
1104.25225,0.02253
1102.19208,0.02356
1100.13191,0.02462
1098.07174,0.02552
1096.01157,0.02623
1093.95139,0.02678
1091.89122,0.02737
1089.83105,0.02818
1087.77088,0.02896
1085.71071,0.02953
1083.65053,0.03007
1081.59036,0.03079
1079.53019,0.03164
1077.47002,0.03236
1075.40985,0.03287
1073.34967,0.03328
1071.28950,0.03371
1069.22933,0.03419
1067.16916,0.03462
1065.10898,0.03480
1063.04881,0.03471
1060.98864,0.03460
1058.92847,0.03448
1056.86830,0.03432
1054.80812,0.03404
1052.74795,0.03343
1050.68778,0.03259
1048.62761,0.03171
1046.56744,0.03068
1044.50726,0.02948
1042.44709,0.02815
1040.38692,0.02678
1038.32675,0.02539
1036.26657,0.02403
1034.20640,0.02272
1032.14623,0.02130
1030.08606,0.01977
1028.02589,0.01844
1025.96571,0.01742
1023.90554,0.01650
1021.84537,0.01563
1019.78520,0.01485
1017.72503,0.01424
1015.66485,0.01379
1013.60468,0.01344
1011.54451,0.01323
1009.48434,0.01321
1007.42417,0.01353
1005.36399,0.01411
1003.30382,0.01476
1001.24365,0.01553
999.18348,0.01646
997.12330,0.01743
995.06313,0.01832
993.00296,0.01908
990.94279,0.01973
988.88262,0.02045
986.82244,0.02122
984.76227,0.02178
982.70210,0.02206
980.64193,0.02213
978.58176,0.02206
976.52158,0.02192
974.46141,0.02164
972.40124,0.02116
970.34107,0.02055
968.28089,0.01979
966.22072,0.01885
964.16055,0.01786
962.10038,0.01695
960.04021,0.01594
957.98003,0.01475
955.91986,0.01358
953.85969,0.01252
951.79952,0.01159
949.73935,0.01073
947.67917,0.00977
945.61900,0.00882
943.55883,0.00806
941.49866,0.00757
939.43849,0.00709
937.37831,0.00632
935.31814,0.00550
933.25797,0.00483
931.19780,0.00430
929.13762,0.00399
927.07745,0.00379
925.01728,0.00348
922.95711,0.00296
920.89694,0.00242
918.83676,0.00219
916.77659,0.00222
914.71642,0.00212
912.65625,0.00178
910.59608,0.00138
908.53590,0.00121
906.47573,0.00128
904.41556,0.00134
902.35539,0.00141
900.29522,0.00160
898.23504,0.00175
896.17487,0.00192
894.11470,0.00223
892.05453,0.00253
889.99435,0.00266
887.93418,0.00284
885.87401,0.00337
883.81384,0.00404
881.75367,0.00449
879.69349,0.00466
877.63332,0.00487
875.57315,0.00549
873.51298,0.00638
871.45281,0.00700
869.39263,0.00737
867.33246,0.00797
865.27229,0.00865
863.21212,0.00890
861.15194,0.00882
859.09177,0.00873
857.03160,0.00863
854.97143,0.00872
852.91126,0.00902
850.85108,0.00907
848.79091,0.00875
846.73074,0.00846
844.67057,0.00828
842.61040,0.00803
840.55022,0.00777
838.49005,0.00752
836.42988,0.00691
834.36971,0.00609
832.30954,0.00558
830.24936,0.00527
828.18919,0.00498
826.12902,0.00477
824.06885,0.00451
822.00867,0.00428
819.94850,0.00423
817.88833,0.00404
815.82816,0.00347
813.76799,0.00288
811.70781,0.00261
809.64764,0.00260
807.58747,0.00253
805.52730,0.00221
803.46713,0.00197
801.40695,0.00201
799.34678,0.00198
797.28661,0.00169
795.22644,0.00143
793.16627,0.00134
791.10609,0.00132
789.04592,0.00125
786.98575,0.00130
784.92558,0.00138
782.86540,0.00127
780.80523,0.00112
778.74506,0.00128
776.68489,0.00160
774.62472,0.00157
772.56454,0.00139
770.50437,0.00126
768.44420,0.00102
766.38403,0.00087
764.32386,0.00070
762.26368,0.00065
760.20351,0.00107
758.14334,0.00125
756.08317,0.00091
754.02299,0.00070
751.96282,0.00069
749.90265,0.00068
747.84248,0.00070
745.78231,0.00082
743.72213,0.00108
741.66196,0.00118
739.60179,0.00086
737.54162,0.00071
735.48145,0.00087
733.42127,0.00074
731.36110,0.00058
729.30093,0.00080
727.24076,0.00078
725.18059,0.00041
723.12041,0.00086
721.06024,0.00088
719.00007,0.00080
716.93990,0.00060
714.87972,0.00031
712.81955,0.00053
710.75938,0.00115
708.69921,0.00158
706.63904,0.00170
704.57886,0.00190
702.51869,0.00239
700.45852,0.00294
698.39835,0.00302
696.33818,0.00282
694.27800,0.00304
692.21783,0.00350
690.15766,0.00339
688.09749,0.00277
686.03731,0.00233
683.97714,0.00238
681.91697,0.00289
679.85680,0.00353
677.79663,0.00369
675.73645,0.00322
673.67628,0.00234
671.61611,0.00084
669.55594,0.00000
667.49577,0.00140
665.43559,0.00238
663.37542,0.00308
661.31525,0.00269
659.25508,0.00203
657.19491,0.00230
655.13473,0.00323
653.07456,0.00416
651.01439,0.00477
648.95422,0.00470
646.89404,0.00410
644.83387,0.00325
642.77370,0.00240
640.71353,0.00177
638.65336,0.00095
636.59318,0.00000
634.53301,0.00004
632.47284,0.00082
630.41267,0.00100
628.35250,0.00049
626.29232,-0.00022
624.23215,-0.00063
622.17198,-0.00017
620.11181,0.00077
618.05164,0.00129
615.99146,0.00123
613.93129,0.00147
611.87112,0.00166
609.81095,0.00051
607.75077,-0.00053
605.69060,-0.00020
603.63043,0.00007
601.57026,0.00009
599.51009,0.00000
