3996.73391,0.00013
3994.67373,0.00027
3992.61356,0.00042
3990.55339,0.00053
3988.49322,0.00046
3986.43305,0.00025
3984.37287,0.00005
3982.31270,-0.00003
3980.25253,-0.00004
3978.19236,0.00001
3976.13219,0.00016
3974.07201,0.00025
3972.01184,0.00018
3969.95167,0.00007
3967.89150,0.00000
3965.83133,0.00016
3963.77115,0.00049
3961.71098,0.00059
3959.65081,0.00048
3957.59064,0.00046
3955.53046,0.00053
3953.47029,0.00060
3951.41012,0.00064
3949.34995,0.00063
3947.28978,0.00057
3945.22960,0.00062
3943.16943,0.00080
3941.10926,0.00088
3939.04909,0.00078
3936.98892,0.00064
3934.92874,0.00053
3932.86857,0.00047
3930.80840,0.00053
3928.74823,0.00078
3926.68805,0.00100
3924.62788,0.00099
3922.56771,0.00087
3920.50754,0.00079
3918.44737,0.00072
3916.38719,0.00063
3914.32702,0.00058
3912.26685,0.00062
3910.20668,0.00066
3908.14651,0.00064
3906.08633,0.00054
3904.02616,0.00036
3901.96599,0.00019
3899.90582,0.00010
3897.84565,0.00007
3895.78547,0.00022
3893.72530,0.00064
3891.66513,0.00107
3889.60496,0.00113
3887.54478,0.00090
3885.48461,0.00057
3883.42444,0.00038
3881.36427,0.00051
3879.30410,0.00068
3877.24392,0.00067
3875.18375,0.00055
3873.12358,0.00057
3871.06341,0.00081
3869.00324,0.00111
3866.94306,0.00130
3864.88289,0.00124
3862.82272,0.00091
3860.76255,0.00061
3858.70237,0.00047
3856.64220,0.00031
3854.58203,0.00016
3852.52186,0.00024
3850.46169,0.00054
3848.40151,0.00080
3846.34134,0.00091
3844.28117,0.00071
3842.22100,0.00031
3840.16083,0.00011
3838.10065,0.00012
3836.04048,0.00020
3833.98031,0.00039
3831.92014,0.00065
3829.85997,0.00077
3827.79979,0.00072
3825.73962,0.00063
3823.67945,0.00039
3821.61928,0.00004
3819.55910,0.00000
3817.49893,0.00035
3815.43876,0.00080
3813.37859,0.00106
3811.31842,0.00106
3809.25824,0.00101
3807.19807,0.00099
3805.13790,0.00086
3803.07773,0.00076
3801.01756,0.00094
3798.95738,0.00131
3796.89721,0.00163
3794.83704,0.00183
3792.77687,0.00181
3790.71670,0.00163
3788.65652,0.00153
3786.59635,0.00165
3784.53618,0.00187
3782.47601,0.00195
3780.41583,0.00176
3778.35566,0.00157
3776.29549,0.00166
3774.23532,0.00179
3772.17515,0.00178
3770.11497,0.00164
3768.05480,0.00148
3765.99463,0.00141
3763.93446,0.00140
3761.87429,0.00131
3759.81411,0.00105
3757.75394,0.00077
3755.69377,0.00075
3753.63360,0.00099
3751.57342,0.00121
3749.51325,0.00117
3747.45308,0.00114
3745.39291,0.00130
3743.33274,0.00127
3741.27256,0.00095
3739.21239,0.00077
3737.15222,0.00082
3735.09205,0.00087
3733.03188,0.00088
3730.97170,0.00122
3728.91153,0.00176
3726.85136,0.00209
3724.79119,0.00194
3722.73102,0.00149
3720.67084,0.00145
3718.61067,0.00173
3716.55050,0.00199
3714.49033,0.00183
3712.43015,0.00109
3710.36998,0.00072
3708.30981,0.00101
3706.24964,0.00147
3704.18947,0.00182
3702.12929,0.00204
3700.06912,0.00211
3698.00895,0.00209
3695.94878,0.00213
3693.88861,0.00203
3691.82843,0.00168
3689.76826,0.00124
3687.70809,0.00128
3685.64792,0.00163
3683.58775,0.00193
3681.52757,0.00209
3679.46740,0.00224
3677.40723,0.00224
3675.34706,0.00195
3673.28688,0.00154
3671.22671,0.00138
3669.16654,0.00170
3667.10637,0.00234
3665.04620,0.00285
3662.98602,0.00309
3660.92585,0.00308
3658.86568,0.00288
3656.80551,0.00269
3654.74534,0.00283
3652.68516,0.00334
3650.62499,0.00391
3648.56482,0.00429
3646.50465,0.00450
3644.44447,0.00451
3642.38430,0.00443
3640.32413,0.00430
3638.26396,0.00420
3636.20379,0.00443
3634.14361,0.00498
3632.08344,0.00554
3630.02327,0.00580
3627.96310,0.00585
3625.90293,0.00594
3623.84275,0.00609
3621.78258,0.00605
3619.72241,0.00582
3617.66224,0.00570
3615.60207,0.00577
3613.54189,0.00618
3611.48172,0.00667
3609.42155,0.00711
3607.36138,0.00745
3605.30120,0.00754
3603.24103,0.00748
3601.18086,0.00745
3599.12069,0.00783
3597.06052,0.00856
3595.00034,0.00919
3592.94017,0.00945
3590.88000,0.00967
3588.81983,0.00979
3586.75966,0.00975
3584.69948,0.00970
3582.63931,0.00984
3580.57914,0.01010
3578.51897,0.01035
3576.45879,0.01065
3574.39862,0.01108
3572.33845,0.01150
3570.27828,0.01178
3568.21811,0.01194
3566.15793,0.01199
3564.09776,0.01206
3562.03759,0.01229
3559.97742,0.01259
3557.91725,0.01268
3555.85707,0.01265
3553.79690,0.01276
3551.73673,0.01303
3549.67656,0.01321
3547.61639,0.01329
3545.55621,0.01351
3543.49604,0.01382
3541.43587,0.01402
3539.37570,0.01420
3537.31552,0.01445
3535.25535,0.01471
3533.19518,0.01498
3531.13501,0.01525
3529.07484,0.01533
3527.01466,0.01543
3524.95449,0.01570
3522.89432,0.01588
3520.83415,0.01587
3518.77398,0.01591
3516.71380,0.01604
3514.65363,0.01609
3512.59346,0.01625
3510.53329,0.01672
3508.47312,0.01728
3506.41294,0.01765
3504.35277,0.01783
3502.29260,0.01800
3500.23243,0.01824
3498.17225,0.01852
3496.11208,0.01873
3494.05191,0.01881
3491.99174,0.01883
3489.93157,0.01886
3487.87139,0.01904
3485.81122,0.01932
3483.75105,0.01953
3481.69088,0.01967
3479.63071,0.01973
3477.57053,0.01974
3475.51036,0.01984
3473.45019,0.02007
3471.39002,0.02032
3469.32984,0.02064
3467.26967,0.02089
3465.20950,0.02084
3463.14933,0.02085
3461.08916,0.02117
3459.02898,0.02131
3456.96881,0.02117
3454.90864,0.02112
3452.84847,0.02139
3450.78830,0.02173
3448.72812,0.02194
3446.66795,0.02219
3444.60778,0.02245
3442.54761,0.02256
3440.48744,0.02266
3438.42726,0.02282
3436.36709,0.02302
3434.30692,0.02326
3432.24675,0.02339
3430.18657,0.02339
3428.12640,0.02341
3426.06623,0.02354
3424.00606,0.02376
3421.94589,0.02393
3419.88571,0.02392
3417.82554,0.02396
3415.76537,0.02419
3413.70520,0.02436
3411.64503,0.02443
3409.58485,0.02449
3407.52468,0.02450
3405.46451,0.02458
3403.40434,0.02475
3401.34416,0.02477
3399.28399,0.02464
3397.22382,0.02484
3395.16365,0.02517
3393.10348,0.02553
3391.04330,0.02582
3388.98313,0.02589
3386.92296,0.02586
3384.86279,0.02587
3382.80262,0.02588
3380.74244,0.02593
3378.68227,0.02600
3376.62210,0.02589
3374.56193,0.02576
3372.50176,0.02583
3370.44158,0.02587
3368.38141,0.02584
3366.32124,0.02601
3364.26107,0.02627
3362.20089,0.02642
3360.14072,0.02650
3358.08055,0.02646
3356.02038,0.02641
3353.96021,0.02656
3351.90003,0.02677
3349.83986,0.02688
3347.77969,0.02694
3345.71952,0.02701
3343.65935,0.02705
3341.59917,0.02708
3339.53900,0.02715
3337.47883,0.02713
3335.41866,0.02714
3333.35849,0.02733
3331.29831,0.02744
3329.23814,0.02737
3327.17797,0.02738
3325.11780,0.02749
3323.05762,0.02747
3320.99745,0.02733
3318.93728,0.02732
3316.87711,0.02741
3314.81694,0.02743
3312.75676,0.02736
3310.69659,0.02729
3308.63642,0.02728
3306.57625,0.02741
3304.51608,0.02763
3302.45590,0.02778
3300.39573,0.02776
3298.33556,0.02771
3296.27539,0.02776
3294.21521,0.02781
3292.15504,0.02783
3290.09487,0.02792
3288.03470,0.02813
3285.97453,0.02833
3283.91435,0.02830
3281.85418,0.02815
3279.79401,0.02817
3277.73384,0.02822
3275.67367,0.02821
3273.61349,0.02824
3271.55332,0.02818
3269.49315,0.02803
3267.43298,0.02794
3265.37281,0.02796
3263.31263,0.02802
3261.25246,0.02800
3259.19229,0.02794
3257.13212,0.02792
3255.07194,0.02797
3253.01177,0.02817
3250.95160,0.02837
3248.89143,0.02842
3246.83126,0.02839
3244.77108,0.02839
3242.71091,0.02827
3240.65074,0.02797
3238.59057,0.02788
3236.53040,0.02810
3234.47022,0.02822
3232.41005,0.02811
3230.34988,0.02805
3228.28971,0.02812
3226.22954,0.02816
3224.16936,0.02814
3222.10919,0.02805
3220.04902,0.02794
3217.98885,0.02783
3215.92867,0.02772
3213.86850,0.02765
3211.80833,0.02772
3209.74816,0.02791
3207.68799,0.02799
3205.62781,0.02782
3203.56764,0.02762
3201.50747,0.02751
3199.44730,0.02743
3197.38713,0.02742
3195.32695,0.02757
3193.26678,0.02773
3191.20661,0.02769
3189.14644,0.02753
3187.08626,0.02753
3185.02609,0.02767
3182.96592,0.02776
3180.90575,0.02773
3178.84558,0.02758
3176.78540,0.02735
3174.72523,0.02725
3172.66506,0.02729
3170.60489,0.02725
3168.54472,0.02715
3166.48454,0.02707
3164.42437,0.02693
3162.36420,0.02674
3160.30403,0.02653
3158.24386,0.02639
3156.18368,0.02643
3154.12351,0.02652
3152.06334,0.02643
3150.00317,0.02637
3147.94299,0.02641
3145.88282,0.02637
3143.82265,0.02632
3141.76248,0.02636
3139.70231,0.02635
3137.64213,0.02623
3135.58196,0.02613
3133.52179,0.02611
3131.46162,0.02611
3129.40145,0.02597
3127.34127,0.02570
3125.28110,0.02551
3123.22093,0.02542
3121.16076,0.02528
3119.10058,0.02516
3117.04041,0.02518
3114.98024,0.02525
3112.92007,0.02523
3110.85990,0.02517
3108.79972,0.02513
3106.73955,0.02509
3104.67938,0.02504
3102.61921,0.02498
3100.55904,0.02481
3098.49886,0.02464
3096.43869,0.02461
3094.37852,0.02461
3092.31835,0.02454
3090.25818,0.02444
3088.19800,0.02424
3086.13783,0.02398
3084.07766,0.02387
3082.01749,0.02385
3079.95731,0.02383
3077.89714,0.02386
3075.83697,0.02394
3073.77680,0.02397
3071.71663,0.02384
3069.65645,0.02353
3067.59628,0.02325
3065.53611,0.02315
3063.47594,0.02320
3061.41577,0.02336
3059.35559,0.02342
3057.29542,0.02316
3055.23525,0.02280
3053.17508,0.02270
3051.11491,0.02272
3049.05473,0.02265
3046.99456,0.02257
3044.93439,0.02244
3042.87422,0.02224
3040.81404,0.02214
3038.75387,0.02209
3036.69370,0.02192
3034.63353,0.02178
3032.57336,0.02170
3030.51318,0.02156
3028.45301,0.02139
3026.39284,0.02132
3024.33267,0.02128
3022.27250,0.02120
3020.21232,0.02112
3018.15215,0.02100
3016.09198,0.02080
3014.03181,0.02060
3011.97163,0.02050
3009.91146,0.02053
3007.85129,0.02050
3005.79112,0.02036
3003.73095,0.02018
3001.67077,0.01995
2999.61060,0.01978
2997.55043,0.01977
2995.49026,0.01971
2993.43009,0.01957
2991.36991,0.01965
2989.30974,0.01979
2987.24957,0.01977
2985.18940,0.01970
2983.12923,0.01972
2981.06905,0.01980
2979.00888,0.01981
2976.94871,0.01962
2974.88854,0.01936
2972.82836,0.01924
2970.76819,0.01926
2968.70802,0.01928
2966.64785,0.01929
2964.58768,0.01937
2962.52750,0.01932
2960.46733,0.01909
2958.40716,0.01901
2956.34699,0.01908
2954.28682,0.01917
2952.22664,0.01932
2950.16647,0.01933
2948.10630,0.01917
2946.04613,0.01900
2943.98596,0.01889
2941.92578,0.01884
2939.86561,0.01880
2937.80544,0.01873
2935.74527,0.01861
2933.68509,0.01855
2931.62492,0.01860
2929.56475,0.01862
2927.50458,0.01860
2925.44441,0.01852
2923.38423,0.01836
2921.32406,0.01825
2919.26389,0.01816
2917.20372,0.01794
2915.14355,0.01772
2913.08337,0.01766
2911.02320,0.01761
2908.96303,0.01749
2906.90286,0.01741
2904.84268,0.01741
2902.78251,0.01743
2900.72234,0.01737
2898.66217,0.01720
2896.60200,0.01705
2894.54182,0.01693
2892.48165,0.01672
2890.42148,0.01651
2888.36131,0.01649
2886.30114,0.01662
2884.24096,0.01668
2882.18079,0.01664
2880.12062,0.01650
2878.06045,0.01631
2876.00028,0.01619
2873.94010,0.01612
2871.87993,0.01599
2869.81976,0.01586
2867.75959,0.01574
2865.69941,0.01554
2863.63924,0.01533
2861.57907,0.01527
2859.51890,0.01523
2857.45873,0.01508
2855.39855,0.01492
2853.33838,0.01472
2851.27821,0.01438
2849.21804,0.01411
2847.15787,0.01411
2845.09769,0.01418
2843.03752,0.01415
2840.97735,0.01406
2838.91718,0.01390
2836.85700,0.01371
2834.79683,0.01358
2832.73666,0.01344
2830.67649,0.01335
2828.61632,0.01334
2826.55614,0.01336
2824.49597,0.01332
2822.43580,0.01326
2820.37563,0.01320
2818.31546,0.01302
2816.25528,0.01278
2814.19511,0.01275
2812.13494,0.01284
2810.07477,0.01278
2808.01460,0.01264
2805.95442,0.01256
2803.89425,0.01241
2801.83408,0.01217
2799.77391,0.01198
2797.71373,0.01198
2795.65356,0.01208
2793.59339,0.01207
2791.53322,0.01192
2789.47305,0.01176
2787.41287,0.01161
2785.35270,0.01153
2783.29253,0.01150
2781.23236,0.01142
2779.17219,0.01134
2777.11201,0.01128
2775.05184,0.01110
2772.99167,0.01089
2770.93150,0.01091
2768.87133,0.01103
2766.81115,0.01107
2764.75098,0.01099
2762.69081,0.01080
2760.63064,0.01068
2758.57046,0.01072
2756.51029,0.01077
2754.45012,0.01075
2752.38995,0.01069
2750.32978,0.01063
2748.26960,0.01049
2746.20943,0.01024
2744.14926,0.01004
2742.08909,0.01000
2740.02892,0.01009
2737.96874,0.01014
2735.90857,0.01010
2733.84840,0.00999
2731.78823,0.00984
2729.72805,0.00973
2727.66788,0.00971
2725.60771,0.00968
2723.54754,0.00961
2721.48737,0.00946
2719.42719,0.00927
2717.36702,0.00917
2715.30685,0.00913
2713.24668,0.00908
2711.18651,0.00904
2709.12633,0.00904
2707.06616,0.00903
2705.00599,0.00896
2702.94582,0.00888
2700.88565,0.00891
2698.82547,0.00894
2696.76530,0.00880
2694.70513,0.00860
2692.64496,0.00849
2690.58478,0.00838
2688.52461,0.00826
2686.46444,0.00823
2684.40427,0.00834
2682.34410,0.00852
2680.28392,0.00857
2678.22375,0.00843
2676.16358,0.00828
2674.10341,0.00817
2672.04324,0.00796
2669.98306,0.00778
2667.92289,0.00786
2665.86272,0.00797
2663.80255,0.00787
2661.74238,0.00770
2659.68220,0.00761
2657.62203,0.00761
2655.56186,0.00779
2653.50169,0.00792
2651.44151,0.00777
2649.38134,0.00756
2647.32117,0.00747
2645.26100,0.00744
2643.20083,0.00740
2641.14065,0.00736
2639.08048,0.00737
2637.02031,0.00731
2634.96014,0.00715
2632.89997,0.00711
2630.83979,0.00704
2628.77962,0.00679
2626.71945,0.00662
2624.65928,0.00663
2622.59910,0.00656
2620.53893,0.00622
2618.47876,0.00592
2616.41859,0.00605
2614.35842,0.00629
2612.29824,0.00634
2610.23807,0.00638
2608.17790,0.00651
2606.11773,0.00657
2604.05756,0.00642
2601.99738,0.00619
2599.93721,0.00604
2597.87704,0.00600
2595.81687,0.00607
2593.75670,0.00617
2591.69652,0.00614
2589.63635,0.00597
2587.57618,0.00573
2585.51601,0.00550
2583.45583,0.00553
2581.39566,0.00577
2579.33549,0.00601
2577.27532,0.00622
2575.21515,0.00625
2573.15497,0.00589
2571.09480,0.00549
2569.03463,0.00543
2566.97446,0.00543
2564.91429,0.00537
2562.85411,0.00554
2560.79394,0.00573
2558.73377,0.00563
2556.67360,0.00556
2554.61342,0.00566
2552.55325,0.00578
2550.49308,0.00598
2548.43291,0.00607
2546.37274,0.00591
2544.31256,0.00570
2542.25239,0.00556
2540.19222,0.00544
2538.13205,0.00536
2536.07188,0.00533
2534.01170,0.00526
2531.95153,0.00525
2529.89136,0.00522
2527.83119,0.00507
2525.77102,0.00511
2523.71084,0.00541
2521.65067,0.00562
2519.59050,0.00561
2517.53033,0.00548
2515.47015,0.00549
2513.40998,0.00579
2511.34981,0.00595
2509.28964,0.00591
2507.22947,0.00597
2505.16929,0.00600
2503.10912,0.00572
2501.04895,0.00531
2498.98878,0.00517
2496.92861,0.00533
2494.86843,0.00530
2492.80826,0.00494
2490.74809,0.00480
2488.68792,0.00505
2486.62775,0.00538
2484.56757,0.00564
2482.50740,0.00571
2480.44723,0.00576
2478.38706,0.00583
2476.32688,0.00586
2474.26671,0.00582
2472.20654,0.00574
2470.14637,0.00586
2468.08620,0.00621
2466.02602,0.00648
2463.96585,0.00649
2461.90568,0.00633
2459.84551,0.00627
2457.78534,0.00638
2455.72516,0.00634
2453.66499,0.00615
2451.60482,0.00609
2449.54465,0.00593
2447.48447,0.00553
2445.42430,0.00535
2443.36413,0.00554
2441.30396,0.00571
2439.24379,0.00562
2437.18361,0.00552
2435.12344,0.00565
2433.06327,0.00574
2431.00310,0.00560
2428.94293,0.00538
2426.88275,0.00536
2424.82258,0.00558
2422.76241,0.00570
2420.70224,0.00567
2418.64207,0.00564
2416.58189,0.00565
2414.52172,0.00569
2412.46155,0.00573
2410.40138,0.00578
2408.34120,0.00578
2406.28103,0.00574
2404.22086,0.00584
2402.16069,0.00598
2400.10052,0.00593
2398.04034,0.00512
2395.98017,0.00507
2393.92000,0.00542
2391.85983,0.00586
2389.79966,0.00640
2387.73948,0.00700
2385.67931,0.00763
2383.61914,0.00801
2381.55897,0.00787
2379.49880,0.00747
2377.43862,0.00711
2375.37845,0.00638
2373.31828,0.00622
2371.25811,0.00680
2369.19793,0.00727
2367.13776,0.00829
2365.07759,0.01009
2363.01742,0.01014
2360.95725,0.01103
2358.89707,0.01035
2356.83690,0.01004
2354.77673,0.01005
2352.71656,0.01018
2350.65639,0.01369
2348.59621,0.01598
2346.53604,0.01018
2344.47587,0.00855
2342.41570,0.00947
2340.35552,0.01027
2338.29535,0.01089
2336.23518,0.01088
2334.17501,0.01061
2332.11484,0.00978
2330.05466,0.00969
2327.99449,0.00975
2325.93432,0.01103
2323.87415,0.01046
2321.81398,0.00918
2319.75380,0.00773
2317.69363,0.00843
2315.63346,0.00891
2313.57329,0.00856
2311.51312,0.00835
2309.45294,0.00825
2307.39277,0.00803
2305.33260,0.00768
2303.27243,0.00749
2301.21225,0.00712
2299.15208,0.00708
2297.09191,0.00743
2295.03174,0.00774
2292.97157,0.00774
2290.91139,0.00730
2288.85122,0.00675
2286.79105,0.00649
2284.73088,0.00641
2282.67071,0.00612
2280.61053,0.00560
2278.55036,0.00518
2276.49019,0.00489
2274.43002,0.00467
2272.36984,0.00455
2270.30967,0.00470
2268.24950,0.00486
2266.18933,0.00488
2264.12916,0.00493
2262.06898,0.00505
2260.00881,0.00502
2257.94864,0.00501
2255.88847,0.00505
2253.82830,0.00500
2251.76812,0.00494
2249.70795,0.00490
2247.64778,0.00532
2245.58761,0.00540
2243.52744,0.00480
2241.46726,0.00410
2239.40709,0.00387
2237.34692,0.00417
2235.28675,0.00480
2233.22657,0.00482
2231.16640,0.00398
2229.10623,0.00349
2227.04606,0.00380
2224.98589,0.00430
2222.92571,0.00459
2220.86554,0.00442
2218.80537,0.00392
2216.74520,0.00384
2214.68503,0.00436
2212.62485,0.00443
2210.56468,0.00359
2208.50451,0.00295
2206.44434,0.00295
2204.38417,0.00333
2202.32399,0.00404
2200.26382,0.00450
2198.20365,0.00429
2196.14348,0.00385
2194.08330,0.00388
2192.02313,0.00396
2189.96296,0.00368
2187.90279,0.00377
2185.84262,0.00399
2183.78244,0.00378
2181.72227,0.00344
2179.66210,0.00328
2177.60193,0.00308
2175.54176,0.00313
2173.48158,0.00371
2171.42141,0.00426
2169.36124,0.00469
2167.30107,0.00493
2165.24089,0.00505
2163.18072,0.00484
2161.12055,0.00301
2159.06038,0.00055
2157.00021,0.00000
2154.94003,0.00089
2152.87986,0.00171
2150.81969,0.00182
2148.75952,0.00186
2146.69935,0.00273
2144.63917,0.00342
2142.57900,0.00327
2140.51883,0.00279
2138.45866,0.00224
2136.39849,0.00203
2134.33831,0.00208
2132.27814,0.00213
2130.21797,0.00243
2128.15780,0.00267
2126.09762,0.00260
2124.03745,0.00241
2121.97728,0.00213
2119.91711,0.00203
2117.85694,0.00233
2115.79676,0.00288
2113.73659,0.00347
2111.67642,0.00365
2109.61625,0.00324
2107.55608,0.00273
2105.49590,0.00262
2103.43573,0.00287
2101.37556,0.00302
2099.31539,0.00305
2097.25521,0.00282
2095.19504,0.00261
2093.13487,0.00271
2091.07470,0.00280
2089.01453,0.00257
2086.95435,0.00233
2084.89418,0.00233
2082.83401,0.00245
2080.77384,0.00264
2078.71367,0.00290
2076.65349,0.00299
2074.59332,0.00288
2072.53315,0.00252
2070.47298,0.00210
2068.41281,0.00227
2066.35263,0.00291
2064.29246,0.00339
2062.23229,0.00356
2060.17212,0.00342
2058.11194,0.00304
2056.05177,0.00265
2053.99160,0.00271
2051.93143,0.00347
2049.87126,0.00370
2047.81108,0.00261
2045.75091,0.00167
2043.69074,0.00154
2041.63057,0.00116
2039.57040,0.00065
2037.51022,0.00080
2035.45005,0.00106
2033.38988,0.00124
2031.32971,0.00195
2029.26954,0.00263
2027.20936,0.00210
2025.14919,0.00102
2023.08902,0.00056
2021.02885,0.00057
2018.96867,0.00093
2016.90850,0.00158
2014.84833,0.00194
2012.78816,0.00213
2010.72799,0.00258
2008.66781,0.00288
2006.60764,0.00276
2004.54747,0.00249
2002.48730,0.00215
2000.42713,0.00152
1998.36695,0.00083
1996.30678,0.00061
1994.24661,0.00059
1992.18644,0.00082
1990.12626,0.00160
1988.06609,0.00193
1986.00592,0.00160
1983.94575,0.00181
1981.88558,0.00274
1979.82540,0.00311
1977.76523,0.00280
1975.70506,0.00309
1973.64489,0.00331
1971.58472,0.00201
1969.52454,0.00037
1967.46437,0.00000
1965.40420,0.00021
1963.34403,0.00011
1961.28386,0.00021
1959.22368,0.00089
1957.16351,0.00169
1955.10334,0.00210
1953.04317,0.00185
1950.98299,0.00108
1948.92282,0.00037
1946.86265,0.00013
1944.80248,0.00034
1942.74231,0.00077
1940.68213,0.00103
1938.62196,0.00093
1936.56179,0.00074
1934.50162,0.00068
1932.44145,0.00070
1930.38127,0.00070
1928.32110,0.00072
1926.26093,0.00079
1924.20076,0.00092
1922.14059,0.00102
1920.08041,0.00077
1918.02024,0.00040
1915.96007,0.00047
1913.89990,0.00071
1911.83972,0.00069
1909.77955,0.00048
1907.71938,0.00040
1905.65921,0.00052
1903.59904,0.00073
1901.53886,0.00093
1899.47869,0.00107
1897.41852,0.00114
1895.35835,0.00107
1893.29818,0.00094
1891.23800,0.00097
1889.17783,0.00110
1887.11766,0.00114
1885.05749,0.00107
1882.99731,0.00095
1880.93714,0.00092
1878.87697,0.00099
1876.81680,0.00111
1874.75663,0.00119
1872.69645,0.00097
1870.63628,0.00051
1868.57611,0.00017
1866.51594,0.00014
1864.45577,0.00039
1862.39559,0.00083
1860.33542,0.00111
1858.27525,0.00099
1856.21508,0.00082
1854.15491,0.00089
1852.09473,0.00104
1850.03456,0.00105
1847.97439,0.00097
1845.91422,0.00091
1843.85404,0.00088
1841.79387,0.00085
1839.73370,0.00079
1837.67353,0.00081
1835.61336,0.00095
1833.55318,0.00103
1831.49301,0.00100
1829.43284,0.00094
1827.37267,0.00095
1825.31250,0.00108
1823.25232,0.00127
1821.19215,0.00127
1819.13198,0.00102
1817.07181,0.00084
1815.01163,0.00090
1812.95146,0.00094
1810.89129,0.00080
1808.83112,0.00066
1806.77095,0.00061
1804.71077,0.00061
1802.65060,0.00069
1800.59043,0.00079
1798.53026,0.00086
1796.47009,0.00094
1794.40991,0.00091
1792.34974,0.00075
1790.28957,0.00076
1788.22940,0.00103
1786.16923,0.00124
1784.10905,0.00129
1782.04888,0.00129
1779.98871,0.00124
1777.92854,0.00115
1775.86836,0.00106
1773.80819,0.00093
1771.74802,0.00079
1769.68785,0.00085
1767.62768,0.00113
1765.56750,0.00135
1763.50733,0.00144
1761.44716,0.00155
1759.38699,0.00177
1757.32682,0.00209
1755.26664,0.00247
1753.20647,0.00274
1751.14630,0.00264
1749.08613,0.00223
1747.02596,0.00214
1744.96578,0.00243
1742.90561,0.00261
1740.84544,0.00257
1738.78527,0.00260
1736.72509,0.00281
1734.66492,0.00307
1732.60475,0.00323
1730.54458,0.00326
1728.48441,0.00322
1726.42423,0.00323
1724.36406,0.00332
1722.30389,0.00338
1720.24372,0.00333
1718.18355,0.00338
1716.12337,0.00364
1714.06320,0.00388
1712.00303,0.00390
1709.94286,0.00384
1707.88268,0.00385
1705.82251,0.00399
1703.76234,0.00425
1701.70217,0.00452
1699.64200,0.00474
1697.58182,0.00511
1695.52165,0.00570
1693.46148,0.00626
1691.40131,0.00674
1689.34114,0.00731
1687.28096,0.00797
1685.22079,0.00859
1683.16062,0.00913
1681.10045,0.00966
1679.04028,0.01023
1676.98010,0.01087
1674.91993,0.01153
1672.85976,0.01210
1670.79959,0.01268
1668.73941,0.01347
1666.67924,0.01419
1664.61907,0.01466
1662.55890,0.01499
1660.49873,0.01530
1658.43855,0.01557
1656.37838,0.01575
1654.31821,0.01575
1652.25804,0.01571
1650.19787,0.01578
1648.13769,0.01581
1646.07752,0.01583
1644.01735,0.01586
1641.95718,0.01580
1639.89701,0.01564
1637.83683,0.01537
1635.77666,0.01506
1633.71649,0.01488
1631.65632,0.01460
1629.59614,0.01415
1627.53597,0.01376
1625.47580,0.01355
1623.41563,0.01335
1621.35546,0.01307
1619.29528,0.01279
1617.23511,0.01252
1615.17494,0.01222
1613.11477,0.01200
1611.05460,0.01186
1608.99442,0.01176
1606.93425,0.01175
1604.87408,0.01173
1602.81391,0.01159
1600.75373,0.01137
1598.69356,0.01114
1596.63339,0.01092
1594.57322,0.01073
1592.51305,0.01057
1590.45287,0.01036
1588.39270,0.01009
1586.33253,0.00982
1584.27236,0.00954
1582.21219,0.00924
1580.15201,0.00893
1578.09184,0.00859
1576.03167,0.00823
1573.97150,0.00797
1571.91133,0.00777
1569.85115,0.00758
1567.79098,0.00750
1565.73081,0.00747
1563.67064,0.00749
1561.61046,0.00758
1559.55029,0.00737
1557.49012,0.00676
1555.42995,0.00650
1553.36978,0.00660
1551.30960,0.00673
1549.24943,0.00670
1547.18926,0.00661
1545.12909,0.00649
1543.06892,0.00612
1541.00874,0.00550
1538.94857,0.00519
1536.88840,0.00525
1534.82823,0.00531
1532.76805,0.00528
1530.70788,0.00521
1528.64771,0.00509
1526.58754,0.00488
1524.52737,0.00461
1522.46719,0.00438
1520.40702,0.00424
1518.34685,0.00420
1516.28668,0.00420
1514.22651,0.00412
1512.16633,0.00395
1510.10616,0.00371
1508.04599,0.00332
1505.98582,0.00288
1503.92565,0.00278
1501.86547,0.00287
1499.80530,0.00292
1497.74513,0.00287
1495.68496,0.00286
1493.62478,0.00291
1491.56461,0.00284
1489.50444,0.00270
1487.44427,0.00270
1485.38410,0.00273
1483.32392,0.00271
1481.26375,0.00270
1479.20358,0.00270
1477.14341,0.00274
1475.08324,0.00282
1473.02306,0.00293
1470.96289,0.00309
1468.90272,0.00327
1466.84255,0.00341
1464.78238,0.00354
1462.72220,0.00368
1460.66203,0.00383
1458.60186,0.00392
1456.54169,0.00385
1454.48151,0.00374
1452.42134,0.00369
1450.36117,0.00377
1448.30100,0.00391
1446.24083,0.00399
1444.18065,0.00401
1442.12048,0.00403
1440.06031,0.00407
1438.00014,0.00409
1435.93997,0.00403
1433.87979,0.00392
1431.81962,0.00386
1429.75945,0.00392
1427.69928,0.00408
1425.63910,0.00426
1423.57893,0.00441
1421.51876,0.00455
1419.45859,0.00465
1417.39842,0.00474
1415.33824,0.00484
1413.27807,0.00494
1411.21790,0.00498
1409.15773,0.00495
1407.09756,0.00488
1405.03738,0.00475
1402.97721,0.00463
1400.91704,0.00460
1398.85687,0.00454
1396.79670,0.00435
1394.73652,0.00414
1392.67635,0.00404
1390.61618,0.00404
1388.55601,0.00408
1386.49583,0.00407
1384.43566,0.00402
1382.37549,0.00396
1380.31532,0.00394
1378.25515,0.00393
1376.19497,0.00393
1374.13480,0.00396
1372.07463,0.00395
1370.01446,0.00386
1367.95429,0.00374
1365.89411,0.00364
1363.83394,0.00358
1361.77377,0.00345
1359.71360,0.00334
1357.65343,0.00333
1355.59325,0.00338
1353.53308,0.00338
1351.47291,0.00330
1349.41274,0.00318
1347.35256,0.00304
1345.29239,0.00288
1343.23222,0.00275
1341.17205,0.00275
1339.11188,0.00284
1337.05170,0.00291
1334.99153,0.00284
1332.93136,0.00267
1330.87119,0.00258
1328.81102,0.00261
1326.75084,0.00265
1324.69067,0.00267
1322.63050,0.00275
1320.57033,0.00284
1318.51015,0.00288
1316.44998,0.00293
1314.38981,0.00295
1312.32964,0.00290
1310.26947,0.00289
1308.20929,0.00301
1306.14912,0.00322
1304.08895,0.00333
1302.02878,0.00326
1299.96861,0.00316
1297.90843,0.00325
1295.84826,0.00348
1293.78809,0.00364
1291.72792,0.00366
1289.66775,0.00364
1287.60757,0.00361
1285.54740,0.00353
1283.48723,0.00346
1281.42706,0.00347
1279.36688,0.00352
1277.30671,0.00359
1275.24654,0.00367
1273.18637,0.00365
1271.12620,0.00355
1269.06602,0.00349
1267.00585,0.00343
1264.94568,0.00337
1262.88551,0.00347
1260.82534,0.00366
1258.76516,0.00375
1256.70499,0.00375
1254.64482,0.00377
1252.58465,0.00387
1250.52447,0.00396
1248.46430,0.00391
1246.40413,0.00376
1244.34396,0.00365
1242.28379,0.00360
1240.22361,0.00358
1238.16344,0.00351
1236.10327,0.00339
1234.04310,0.00325
1231.98293,0.00310
1229.92275,0.00293
1227.86258,0.00274
1225.80241,0.00258
1223.74224,0.00240
1221.68207,0.00221
1219.62189,0.00200
1217.56172,0.00173
1215.50155,0.00148
1213.44138,0.00130
1211.38120,0.00112
1209.32103,0.00089
1207.26086,0.00071
1205.20069,0.00058
1203.14052,0.00047
1201.08034,0.00035
1199.02017,0.00015
1196.96000,0.00000
1194.89983,0.00005
1192.83966,0.00019
1190.77948,0.00018
1188.71931,0.00011
1186.65914,0.00013
1184.59897,0.00015
1182.53880,0.00016
1180.47862,0.00030
1178.41845,0.00055
1176.35828,0.00087
1174.29811,0.00129
1172.23793,0.00158
1170.17776,0.00160
1168.11759,0.00165
1166.05742,0.00194
1163.99725,0.00240
1161.93707,0.00282
1159.87690,0.00309
1157.81673,0.00330
1155.75656,0.00366
1153.69639,0.00420
1151.63621,0.00469
1149.57604,0.00505
1147.51587,0.00550
1145.45570,0.00609
1143.39552,0.00670
1141.33535,0.00732
1139.27518,0.00793
1137.21501,0.00852
1135.15484,0.00917
1133.09466,0.00997
1131.03449,0.01088
1128.97432,0.01178
1126.91415,0.01269
1124.85398,0.01368
1122.79380,0.01465
1120.73363,0.01569
1118.67346,0.01692
1116.61329,0.01812
1114.55312,0.01918
1112.49294,0.02017
1110.43277,0.02117
1108.37260,0.02218
1106.31243,0.02320
1104.25225,0.02420
1102.19208,0.02522
1100.13191,0.02622
1098.07174,0.02700
1096.01157,0.02754
1093.95139,0.02813
1091.89122,0.02892
1089.83105,0.02983
1087.77088,0.03059
1085.71071,0.03107
1083.65053,0.03149
1081.59036,0.03212
1079.53019,0.03290
1077.47002,0.03350
1075.40985,0.03387
1073.34967,0.03423
1071.28950,0.03466
1069.22933,0.03510
1067.16916,0.03545
1065.10898,0.03560
1063.04881,0.03558
1060.98864,0.03557
1058.92847,0.03546
1056.86830,0.03517
1054.80812,0.03481
1052.74795,0.03427
1050.68778,0.03351
1048.62761,0.03260
1046.56744,0.03154
1044.50726,0.03046
1042.44709,0.02937
1040.38692,0.02815
1038.32675,0.02684
1036.26657,0.02561
1034.20640,0.02440
1032.14623,0.02302
1030.08606,0.02160
1028.02589,0.02030
1025.96571,0.01910
1023.90554,0.01804
1021.84537,0.01721
1019.78520,0.01654
1017.72503,0.01593
1015.66485,0.01534
1013.60468,0.01488
1011.54451,0.01461
1009.48434,0.01451
1007.42417,0.01477
1005.36399,0.01538
1003.30382,0.01602
1001.24365,0.01667
999.18348,0.01746
997.12330,0.01831
995.06313,0.01907
993.00296,0.01978
990.94279,0.02056
988.88262,0.02124
986.82244,0.02172
984.76227,0.02211
982.70210,0.02244
980.64193,0.02256
978.58176,0.02257
976.52158,0.02261
974.46141,0.02246
972.40124,0.02184
970.34107,0.02094
968.28089,0.02013
966.22072,0.01933
964.16055,0.01837
962.10038,0.01749
960.04021,0.01666
957.98003,0.01564
955.91986,0.01455
953.85969,0.01358
951.79952,0.01268
949.73935,0.01179
947.67917,0.01089
945.61900,0.00996
943.55883,0.00898
941.49866,0.00815
939.43849,0.00748
937.37831,0.00677
935.31814,0.00609
933.25797,0.00543
931.19780,0.00484
929.13762,0.00458
927.07745,0.00461
925.01728,0.00434
922.95711,0.00370
920.89694,0.00321
918.83676,0.00305
916.77659,0.00295
914.71642,0.00278
912.65625,0.00274
910.59608,0.00264
908.53590,0.00231
906.47573,0.00204
904.41556,0.00201
902.35539,0.00218
900.29522,0.00228
898.23504,0.00223
896.17487,0.00232
894.11470,0.00264
892.05453,0.00296
889.99435,0.00315
887.93418,0.00347
885.87401,0.00415
883.81384,0.00500
881.75367,0.00563
879.69349,0.00593
877.63332,0.00604
875.57315,0.00631
873.51298,0.00707
871.45281,0.00792
869.39263,0.00836
867.33246,0.00862
865.27229,0.00881
863.21212,0.00880
861.15194,0.00893
859.09177,0.00929
857.03160,0.00952
854.97143,0.00963
852.91126,0.00973
850.85108,0.00953
848.79091,0.00915
846.73074,0.00893
844.67057,0.00864
842.61040,0.00814
840.55022,0.00775
838.49005,0.00764
836.42988,0.00743
834.36971,0.00694
832.30954,0.00650
830.24936,0.00605
828.18919,0.00556
826.12902,0.00534
824.06885,0.00527
822.00867,0.00502
819.94850,0.00470
817.88833,0.00436
815.82816,0.00388
813.76799,0.00347
811.70781,0.00332
809.64764,0.00323
807.58747,0.00305
805.52730,0.00278
803.46713,0.00258
801.40695,0.00273
799.34678,0.00280
797.28661,0.00245
795.22644,0.00207
793.16627,0.00198
791.10609,0.00201
789.04592,0.00196
786.98575,0.00198
784.92558,0.00223
782.86540,0.00242
780.80523,0.00232
778.74506,0.00217
776.68489,0.00208
774.62472,0.00199
772.56454,0.00213
770.50437,0.00239
768.44420,0.00243
766.38403,0.00228
764.32386,0.00203
762.26368,0.00191
760.20351,0.00209
758.14334,0.00222
756.08317,0.00208
754.02299,0.00192
751.96282,0.00179
749.90265,0.00170
747.84248,0.00182
745.78231,0.00194
743.72213,0.00204
741.66196,0.00212
739.60179,0.00199
737.54162,0.00188
735.48145,0.00205
733.42127,0.00215
731.36110,0.00222
729.30093,0.00232
727.24076,0.00210
725.18059,0.00197
723.12041,0.00314
721.06024,0.00263
719.00007,0.00252
716.93990,0.00235
714.87972,0.00200
712.81955,0.00206
710.75938,0.00238
708.69921,0.00275
706.63904,0.00317
704.57886,0.00375
702.51869,0.00424
700.45852,0.00465
698.39835,0.00521
696.33818,0.00583
694.27800,0.00626
692.21783,0.00630
690.15766,0.00580
688.09749,0.00523
686.03731,0.00545
683.97714,0.00638
681.91697,0.00707
679.85680,0.00702
677.79663,0.00667
675.73645,0.00651
673.67628,0.00758
671.61611,0.00988
669.55594,0.00562
667.49577,0.00000
665.43559,0.01098
663.37542,0.00904
661.31525,0.00519
659.25508,0.00444
657.19491,0.00533
655.13473,0.00609
653.07456,0.00634
651.01439,0.00630
648.95422,0.00574
646.89404,0.00533
644.83387,0.00431
642.77370,0.00329
640.71353,0.00265
638.65336,0.00215
636.59318,0.00175
634.53301,0.00163
632.47284,0.00147
630.41267,0.00108
628.35250,0.00056
626.29232,0.00000
624.23215,0.00006
622.17198,0.00135
620.11181,0.00263
618.05164,0.00259
615.99146,0.00173
613.93129,0.00145
611.87112,0.00206
609.81095,0.00241
607.75077,0.00181
605.69060,0.00105
603.63043,0.00045
601.57026,0.00008
599.51009,0.00000
