3996.73391,0.00000
3994.67373,0.00019
3992.61356,0.00035
3990.55339,0.00046
3988.49322,0.00050
3986.43305,0.00042
3984.37287,0.00035
3982.31270,0.00047
3980.25253,0.00063
3978.19236,0.00064
3976.13219,0.00075
3974.07201,0.00102
3972.01184,0.00104
3969.95167,0.00080
3967.89150,0.00074
3965.83133,0.00093
3963.77115,0.00096
3961.71098,0.00084
3959.65081,0.00097
3957.59064,0.00119
3955.53046,0.00125
3953.47029,0.00120
3951.41012,0.00093
3949.34995,0.00038
3947.28978,0.00008
3945.22960,0.00026
3943.16943,0.00057
3941.10926,0.00094
3939.04909,0.00133
3936.98892,0.00154
3934.92874,0.00136
3932.86857,0.00090
3930.80840,0.00071
3928.74823,0.00094
3926.68805,0.00121
3924.62788,0.00127
3922.56771,0.00116
3920.50754,0.00096
3918.44737,0.00077
3916.38719,0.00108
3914.32702,0.00183
3912.26685,0.00245
3910.20668,0.00273
3908.14651,0.00270
3906.08633,0.00211
3904.02616,0.00085
3901.96599,0.00008
3899.90582,0.00077
3897.84565,0.00182
3895.78547,0.00205
3893.72530,0.00176
3891.66513,0.00162
3889.60496,0.00165
3887.54478,0.00157
3885.48461,0.00151
3883.42444,0.00149
3881.36427,0.00140
3879.30410,0.00149
3877.24392,0.00178
3875.18375,0.00191
3873.12358,0.00163
3871.06341,0.00113
3869.00324,0.00093
3866.94306,0.00119
3864.88289,0.00137
3862.82272,0.00099
3860.76255,0.00042
3858.70237,0.00024
3856.64220,0.00052
3854.58203,0.00123
3852.52186,0.00171
3850.46169,0.00164
3848.40151,0.00136
3846.34134,0.00132
3844.28117,0.00144
3842.22100,0.00150
3840.16083,0.00168
3838.10065,0.00211
3836.04048,0.00243
3833.98031,0.00243
3831.92014,0.00235
3829.85997,0.00241
3827.79979,0.00242
3825.73962,0.00230
3823.67945,0.00232
3821.61928,0.00253
3819.55910,0.00249
3817.49893,0.00244
3815.43876,0.00259
3813.37859,0.00258
3811.31842,0.00237
3809.25824,0.00256
3807.19807,0.00314
3805.13790,0.00357
3803.07773,0.00374
3801.01756,0.00363
3798.95738,0.00345
3796.89721,0.00354
3794.83704,0.00367
3792.77687,0.00358
3790.71670,0.00349
3788.65652,0.00358
3786.59635,0.00380
3784.53618,0.00400
3782.47601,0.00404
3780.41583,0.00387
3778.35566,0.00355
3776.29549,0.00335
3774.23532,0.00352
3772.17515,0.00384
3770.11497,0.00384
3768.05480,0.00341
3765.99463,0.00304
3763.93446,0.00302
3761.87429,0.00301
3759.81411,0.00267
3757.75394,0.00217
3755.69377,0.00196
3753.63360,0.00204
3751.57342,0.00205
3749.51325,0.00148
3747.45308,0.00065
3745.39291,0.00008
3743.33274,0.00046
3741.27256,0.00119
3739.21239,0.00116
3737.15222,0.00056
3735.09205,0.00032
3733.03188,0.00125
3730.97170,0.00226
3728.91153,0.00232
3726.85136,0.00180
3724.79119,0.00145
3722.73102,0.00160
3720.67084,0.00194
3718.61067,0.00203
3716.55050,0.00184
3714.49033,0.00177
3712.43015,0.00232
3710.36998,0.00313
3708.30981,0.00362
3706.24964,0.00379
3704.18947,0.00378
3702.12929,0.00366
3700.06912,0.00349
3698.00895,0.00329
3695.94878,0.00320
3693.88861,0.00362
3691.82843,0.00436
3689.76826,0.00451
3687.70809,0.00399
3685.64792,0.00356
3683.58775,0.00328
3681.52757,0.00309
3679.46740,0.00302
3677.40723,0.00306
3675.34706,0.00318
3673.28688,0.00330
3671.22671,0.00339
3669.16654,0.00339
3667.10637,0.00334
3665.04620,0.00338
3662.98602,0.00356
3660.92585,0.00368
3658.86568,0.00347
3656.80551,0.00297
3654.74534,0.00267
3652.68516,0.00291
3650.62499,0.00325
3648.56482,0.00321
3646.50465,0.00342
3644.44447,0.00365
3642.38430,0.00369
3640.32413,0.00394
3638.26396,0.00447
3636.20379,0.00481
3634.14361,0.00469
3632.08344,0.00437
3630.02327,0.00420
3627.96310,0.00430
3625.90293,0.00452
3623.84275,0.00452
3621.78258,0.00431
3619.72241,0.00398
3617.66224,0.00363
3615.60207,0.00349
3613.54189,0.00345
3611.48172,0.00337
3609.42155,0.00358
3607.36138,0.00439
3605.30120,0.00547
3603.24103,0.00645
3601.18086,0.00704
3599.12069,0.00676
3597.06052,0.00586
3595.00034,0.00531
3592.94017,0.00539
3590.88000,0.00539
3588.81983,0.00495
3586.75966,0.00490
3584.69948,0.00571
3582.63931,0.00641
3580.57914,0.00662
3578.51897,0.00679
3576.45879,0.00714
3574.39862,0.00741
3572.33845,0.00739
3570.27828,0.00713
3568.21811,0.00654
3566.15793,0.00613
3564.09776,0.00662
3562.03759,0.00733
3559.97742,0.00780
3557.91725,0.00834
3555.85707,0.00885
3553.79690,0.00894
3551.73673,0.00861
3549.67656,0.00806
3547.61639,0.00739
3545.55621,0.00717
3543.49604,0.00786
3541.43587,0.00875
3539.37570,0.00901
3537.31552,0.00881
3535.25535,0.00884
3533.19518,0.00930
3531.13501,0.00978
3529.07484,0.00985
3527.01466,0.00931
3524.95449,0.00879
3522.89432,0.00903
3520.83415,0.00977
3518.77398,0.01038
3516.71380,0.01064
3514.65363,0.01066
3512.59346,0.01056
3510.53329,0.01046
3508.47312,0.01059
3506.41294,0.01091
3504.35277,0.01093
3502.29260,0.01064
3500.23243,0.01072
3498.17225,0.01124
3496.11208,0.01158
3494.05191,0.01160
3491.99174,0.01159
3489.93157,0.01164
3487.87139,0.01176
3485.81122,0.01202
3483.75105,0.01218
3481.69088,0.01200
3479.63071,0.01181
3477.57053,0.01200
3475.51036,0.01247
3473.45019,0.01300
3471.39002,0.01319
3469.32984,0.01290
3467.26967,0.01266
3465.20950,0.01281
3463.14933,0.01302
3461.08916,0.01314
3459.02898,0.01337
3456.96881,0.01370
3454.90864,0.01384
3452.84847,0.01380
3450.78830,0.01369
3448.72812,0.01343
3446.66795,0.01330
3444.60778,0.01358
3442.54761,0.01386
3440.48744,0.01388
3438.42726,0.01396
3436.36709,0.01422
3434.30692,0.01445
3432.24675,0.01449
3430.18657,0.01459
3428.12640,0.01476
3426.06623,0.01472
3424.00606,0.01452
3421.94589,0.01444
3419.88571,0.01462
3417.82554,0.01502
3415.76537,0.01513
3413.70520,0.01479
3411.64503,0.01451
3409.58485,0.01482
3407.52468,0.01547
3405.46451,0.01578
3403.40434,0.01567
3401.34416,0.01551
3399.28399,0.01489
3397.22382,0.01467
3395.16365,0.01451
3393.10348,0.01458
3391.04330,0.01489
3388.98313,0.01520
3386.92296,0.01521
3384.86279,0.01493
3382.80262,0.01468
3380.74244,0.01457
3378.68227,0.01463
3376.62210,0.01500
3374.56193,0.01555
3372.50176,0.01584
3370.44158,0.01569
3368.38141,0.01538
3366.32124,0.01512
3364.26107,0.01502
3362.20089,0.01511
3360.14072,0.01532
3358.08055,0.01554
3356.02038,0.01566
3353.96021,0.01572
3351.90003,0.01574
3349.83986,0.01584
3347.77969,0.01597
3345.71952,0.01598
3343.65935,0.01599
3341.59917,0.01610
3339.53900,0.01614
3337.47883,0.01596
3335.41866,0.01580
3333.35849,0.01581
3331.29831,0.01588
3329.23814,0.01599
3327.17797,0.01615
3325.11780,0.01622
3323.05762,0.01602
3320.99745,0.01582
3318.93728,0.01599
3316.87711,0.01631
3314.81694,0.01640
3312.75676,0.01618
3310.69659,0.01588
3308.63642,0.01579
3306.57625,0.01583
3304.51608,0.01589
3302.45590,0.01599
3300.39573,0.01595
3298.33556,0.01584
3296.27539,0.01602
3294.21521,0.01622
3292.15504,0.01618
3290.09487,0.01619
3288.03470,0.01637
3285.97453,0.01655
3283.91435,0.01662
3281.85418,0.01658
3279.79401,0.01638
3277.73384,0.01610
3275.67367,0.01598
3273.61349,0.01611
3271.55332,0.01623
3269.49315,0.01618
3267.43298,0.01598
3265.37281,0.01578
3263.31263,0.01580
3261.25246,0.01596
3259.19229,0.01605
3257.13212,0.01606
3255.07194,0.01609
3253.01177,0.01614
3250.95160,0.01619
3248.89143,0.01613
3246.83126,0.01588
3244.77108,0.01562
3242.71091,0.01565
3240.65074,0.01595
3238.59057,0.01621
3236.53040,0.01626
3234.47022,0.01605
3232.41005,0.01573
3230.34988,0.01562
3228.28971,0.01577
3226.22954,0.01590
3224.16936,0.01584
3222.10919,0.01581
3220.04902,0.01588
3217.98885,0.01578
3215.92867,0.01563
3213.86850,0.01564
3211.80833,0.01571
3209.74816,0.01576
3207.68799,0.01582
3205.62781,0.01586
3203.56764,0.01579
3201.50747,0.01561
3199.44730,0.01544
3197.38713,0.01537
3195.32695,0.01540
3193.26678,0.01546
3191.20661,0.01552
3189.14644,0.01561
3187.08626,0.01558
3185.02609,0.01534
3182.96592,0.01527
3180.90575,0.01546
3178.84558,0.01550
3176.78540,0.01541
3174.72523,0.01543
3172.66506,0.01530
3170.60489,0.01503
3168.54472,0.01488
3166.48454,0.01478
3164.42437,0.01478
3162.36420,0.01496
3160.30403,0.01500
3158.24386,0.01482
3156.18368,0.01470
3154.12351,0.01478
3152.06334,0.01507
3150.00317,0.01533
3147.94299,0.01533
3145.88282,0.01520
3143.82265,0.01511
3141.76248,0.01510
3139.70231,0.01517
3137.64213,0.01517
3135.58196,0.01496
3133.52179,0.01463
3131.46162,0.01435
3129.40145,0.01432
3127.34127,0.01444
3125.28110,0.01437
3123.22093,0.01416
3121.16076,0.01403
3119.10058,0.01392
3117.04041,0.01380
3114.98024,0.01382
3112.92007,0.01396
3110.85990,0.01411
3108.79972,0.01417
3106.73955,0.01416
3104.67938,0.01404
3102.61921,0.01380
3100.55904,0.01368
3098.49886,0.01373
3096.43869,0.01381
3094.37852,0.01386
3092.31835,0.01381
3090.25818,0.01365
3088.19800,0.01353
3086.13783,0.01359
3084.07766,0.01373
3082.01749,0.01372
3079.95731,0.01343
3077.89714,0.01319
3075.83697,0.01330
3073.77680,0.01348
3071.71663,0.01340
3069.65645,0.01317
3067.59628,0.01300
3065.53611,0.01307
3063.47594,0.01330
3061.41577,0.01340
3059.35559,0.01341
3057.29542,0.01341
3055.23525,0.01337
3053.17508,0.01335
3051.11491,0.01330
3049.05473,0.01307
3046.99456,0.01272
3044.93439,0.01262
3042.87422,0.01279
3040.81404,0.01282
3038.75387,0.01264
3036.69370,0.01243
3034.63353,0.01224
3032.57336,0.01217
3030.51318,0.01236
3028.45301,0.01259
3026.39284,0.01261
3024.33267,0.01254
3022.27250,0.01244
3020.21232,0.01228
3018.15215,0.01214
3016.09198,0.01199
3014.03181,0.01175
3011.97163,0.01161
3009.91146,0.01173
3007.85129,0.01188
3005.79112,0.01198
3003.73095,0.01208
3001.67077,0.01207
2999.61060,0.01214
2997.55043,0.01208
2995.49026,0.01179
2993.43009,0.01147
2991.36991,0.01153
2989.30974,0.01175
2987.24957,0.01175
2985.18940,0.01173
2983.12923,0.01190
2981.06905,0.01208
2979.00888,0.01207
2976.94871,0.01194
2974.88854,0.01200
2972.82836,0.01212
2970.76819,0.01198
2968.70802,0.01177
2966.64785,0.01166
2964.58768,0.01161
2962.52750,0.01173
2960.46733,0.01193
2958.40716,0.01193
2956.34699,0.01181
2954.28682,0.01170
2952.22664,0.01165
2950.16647,0.01171
2948.10630,0.01175
2946.04613,0.01166
2943.98596,0.01168
2941.92578,0.01178
2939.86561,0.01176
2937.80544,0.01176
2935.74527,0.01182
2933.68509,0.01174
2931.62492,0.01155
2929.56475,0.01149
2927.50458,0.01153
2925.44441,0.01153
2923.38423,0.01159
2921.32406,0.01167
2919.26389,0.01162
2917.20372,0.01157
2915.14355,0.01156
2913.08337,0.01144
2911.02320,0.01122
2908.96303,0.01115
2906.90286,0.01125
2904.84268,0.01124
2902.78251,0.01103
2900.72234,0.01084
2898.66217,0.01075
2896.60200,0.01071
2894.54182,0.01064
2892.48165,0.01056
2890.42148,0.01063
2888.36131,0.01075
2886.30114,0.01074
2884.24096,0.01066
2882.18079,0.01051
2880.12062,0.01035
2878.06045,0.01032
2876.00028,0.01036
2873.94010,0.01041
2871.87993,0.01048
2869.81976,0.01054
2867.75959,0.01047
2865.69941,0.01034
2863.63924,0.01035
2861.57907,0.01047
2859.51890,0.01045
2857.45873,0.01014
2855.39855,0.00974
2853.33838,0.00962
2851.27821,0.00971
2849.21804,0.00983
2847.15787,0.00996
2845.09769,0.00995
2843.03752,0.00966
2840.97735,0.00928
2838.91718,0.00916
2836.85700,0.00919
2834.79683,0.00918
2832.73666,0.00930
2830.67649,0.00956
2828.61632,0.00963
2826.55614,0.00954
2824.49597,0.00948
2822.43580,0.00940
2820.37563,0.00929
2818.31546,0.00909
2816.25528,0.00890
2814.19511,0.00892
2812.13494,0.00905
2810.07477,0.00907
2808.01460,0.00901
2805.95442,0.00899
2803.89425,0.00892
2801.83408,0.00877
2799.77391,0.00867
2797.71373,0.00868
2795.65356,0.00879
2793.59339,0.00888
2791.53322,0.00886
2789.47305,0.00876
2787.41287,0.00869
2785.35270,0.00857
2783.29253,0.00833
2781.23236,0.00814
2779.17219,0.00829
2777.11201,0.00870
2775.05184,0.00888
2772.99167,0.00865
2770.93150,0.00838
2768.87133,0.00840
2766.81115,0.00846
2764.75098,0.00834
2762.69081,0.00826
2760.63064,0.00827
2758.57046,0.00819
2756.51029,0.00812
2754.45012,0.00809
2752.38995,0.00805
2750.32978,0.00802
2748.26960,0.00809
2746.20943,0.00816
2744.14926,0.00803
2742.08909,0.00783
2740.02892,0.00778
2737.96874,0.00791
2735.90857,0.00800
2733.84840,0.00801
2731.78823,0.00803
2729.72805,0.00805
2727.66788,0.00808
2725.60771,0.00814
2723.54754,0.00813
2721.48737,0.00799
2719.42719,0.00784
2717.36702,0.00774
2715.30685,0.00768
2713.24668,0.00766
2711.18651,0.00764
2709.12633,0.00755
2707.06616,0.00738
2705.00599,0.00730
2702.94582,0.00743
2700.88565,0.00756
2698.82547,0.00754
2696.76530,0.00753
2694.70513,0.00756
2692.64496,0.00749
2690.58478,0.00736
2688.52461,0.00724
2686.46444,0.00716
2684.40427,0.00722
2682.34410,0.00739
2680.28392,0.00741
2678.22375,0.00732
2676.16358,0.00727
2674.10341,0.00724
2672.04324,0.00714
2669.98306,0.00700
2667.92289,0.00700
2665.86272,0.00720
2663.80255,0.00750
2661.74238,0.00768
2659.68220,0.00763
2657.62203,0.00756
2655.56186,0.00753
2653.50169,0.00741
2651.44151,0.00730
2649.38134,0.00747
2647.32117,0.00773
2645.26100,0.00768
2643.20083,0.00744
2641.14065,0.00730
2639.08048,0.00726
2637.02031,0.00719
2634.96014,0.00705
2632.89997,0.00691
2630.83979,0.00684
2628.77962,0.00682
2626.71945,0.00690
2624.65928,0.00718
2622.59910,0.00739
2620.53893,0.00736
2618.47876,0.00725
2616.41859,0.00709
2614.35842,0.00687
2612.29824,0.00663
2610.23807,0.00645
2608.17790,0.00644
2606.11773,0.00653
2604.05756,0.00666
2601.99738,0.00669
2599.93721,0.00650
2597.87704,0.00633
2595.81687,0.00643
2593.75670,0.00649
2591.69652,0.00634
2589.63635,0.00628
2587.57618,0.00631
2585.51601,0.00628
2583.45583,0.00624
2581.39566,0.00628
2579.33549,0.00637
2577.27532,0.00635
2575.21515,0.00622
2573.15497,0.00619
2571.09480,0.00628
2569.03463,0.00624
2566.97446,0.00610
2564.91429,0.00604
2562.85411,0.00594
2560.79394,0.00575
2558.73377,0.00569
2556.67360,0.00583
2554.61342,0.00602
2552.55325,0.00616
2550.49308,0.00615
2548.43291,0.00605
2546.37274,0.00598
2544.31256,0.00589
2542.25239,0.00566
2540.19222,0.00555
2538.13205,0.00571
2536.07188,0.00593
2534.01170,0.00593
2531.95153,0.00568
2529.89136,0.00545
2527.83119,0.00552
2525.77102,0.00568
2523.71084,0.00564
2521.65067,0.00571
2519.59050,0.00600
2517.53033,0.00621
2515.47015,0.00637
2513.40998,0.00654
2511.34981,0.00660
2509.28964,0.00660
2507.22947,0.00649
2505.16929,0.00607
2503.10912,0.00563
2501.04895,0.00572
2498.98878,0.00611
2496.92861,0.00631
2494.86843,0.00614
2492.80826,0.00586
2490.74809,0.00595
2488.68792,0.00627
2486.62775,0.00642
2484.56757,0.00627
2482.50740,0.00609
2480.44723,0.00615
2478.38706,0.00618
2476.32688,0.00616
2474.26671,0.00633
2472.20654,0.00648
2470.14637,0.00652
2468.08620,0.00659
2466.02602,0.00658
2463.96585,0.00642
2461.90568,0.00632
2459.84551,0.00625
2457.78534,0.00622
2455.72516,0.00629
2453.66499,0.00629
2451.60482,0.00616
2449.54465,0.00613
2447.48447,0.00619
2445.42430,0.00626
2443.36413,0.00629
2441.30396,0.00619
2439.24379,0.00597
2437.18361,0.00581
2435.12344,0.00580
2433.06327,0.00589
2431.00310,0.00602
2428.94293,0.00634
2426.88275,0.00658
2424.82258,0.00634
2422.76241,0.00590
2420.70224,0.00575
2418.64207,0.00589
2416.58189,0.00598
2414.52172,0.00577
2412.46155,0.00558
2410.40138,0.00566
2408.34120,0.00574
2406.28103,0.00578
2404.22086,0.00594
2402.16069,0.00605
2400.10052,0.00584
2398.04034,0.00555
2395.98017,0.00572
2393.92000,0.00610
2391.85983,0.00619
2389.79966,0.00589
2387.73948,0.00541
2385.67931,0.00494
2383.61914,0.00440
2381.55897,0.00371
2379.49880,0.00294
2377.43862,0.00242
2375.37845,0.00252
2373.31828,0.00338
2371.25811,0.00463
2369.19793,0.00601
2367.13776,0.00764
2365.07759,0.00897
2363.01742,0.00940
2360.95725,0.01016
2358.89707,0.01211
2356.83690,0.01324
2354.77673,0.01181
2352.71656,0.00896
2350.65639,0.00685
2348.59621,0.00646
2346.53604,0.00747
2344.47587,0.00873
2342.41570,0.00919
2340.35552,0.00927
2338.29535,0.00964
2336.23518,0.00980
2334.17501,0.00920
2332.11484,0.00803
2330.05466,0.00711
2327.99449,0.00713
2325.93432,0.00758
2323.87415,0.00719
2321.81398,0.00582
2319.75380,0.00488
2317.69363,0.00491
2315.63346,0.00496
2313.57329,0.00445
2311.51312,0.00379
2309.45294,0.00345
2307.39277,0.00355
2305.33260,0.00398
2303.27243,0.00443
2301.21225,0.00469
2299.15208,0.00483
2297.09191,0.00502
2295.03174,0.00545
2292.97157,0.00607
2290.91139,0.00645
2288.85122,0.00633
2286.79105,0.00614
2284.73088,0.00630
2282.67071,0.00656
2280.61053,0.00664
2278.55036,0.00662
2276.49019,0.00672
2274.43002,0.00693
2272.36984,0.00692
2270.30967,0.00644
2268.24950,0.00587
2266.18933,0.00578
2264.12916,0.00638
2262.06898,0.00721
2260.00881,0.00753
2257.94864,0.00703
2255.88847,0.00616
2253.82830,0.00567
2251.76812,0.00537
2249.70795,0.00480
2247.64778,0.00478
2245.58761,0.00569
2243.52744,0.00620
2241.46726,0.00581
2239.40709,0.00537
2237.34692,0.00509
2235.28675,0.00497
2233.22657,0.00489
2231.16640,0.00464
2229.10623,0.00482
2227.04606,0.00538
2224.98589,0.00569
2222.92571,0.00561
2220.86554,0.00563
2218.80537,0.00611
2216.74520,0.00636
2214.68503,0.00580
2212.62485,0.00518
2210.56468,0.00518
2208.50451,0.00561
2206.44434,0.00612
2204.38417,0.00590
2202.32399,0.00529
2200.26382,0.00524
2198.20365,0.00501
2196.14348,0.00460
2194.08330,0.00487
2192.02313,0.00512
2189.96296,0.00496
2187.90279,0.00497
2185.84262,0.00508
2183.78244,0.00478
2181.72227,0.00400
2179.66210,0.00385
2177.60193,0.00479
2175.54176,0.00507
2173.48158,0.00408
2171.42141,0.00349
2169.36124,0.00416
2167.30107,0.00536
2165.24089,0.00630
2163.18072,0.00639
2161.12055,0.00460
2159.06038,0.00174
2157.00021,0.00004
2154.94003,0.00014
2152.87986,0.00167
2150.81969,0.00339
2148.75952,0.00396
2146.69935,0.00331
2144.63917,0.00245
2142.57900,0.00243
2140.51883,0.00287
2138.45866,0.00263
2136.39849,0.00205
2134.33831,0.00228
2132.27814,0.00301
2130.21797,0.00336
2128.15780,0.00330
2126.09762,0.00341
2124.03745,0.00391
2121.97728,0.00438
2119.91711,0.00460
2117.85694,0.00456
2115.79676,0.00398
2113.73659,0.00326
2111.67642,0.00324
2109.61625,0.00363
2107.55608,0.00395
2105.49590,0.00431
2103.43573,0.00478
2101.37556,0.00514
2099.31539,0.00531
2097.25521,0.00498
2095.19504,0.00454
2093.13487,0.00403
2091.07470,0.00357
2089.01453,0.00360
2086.95435,0.00418
2084.89418,0.00453
2082.83401,0.00437
2080.77384,0.00430
2078.71367,0.00438
2076.65349,0.00440
2074.59332,0.00442
2072.53315,0.00435
2070.47298,0.00423
2068.41281,0.00452
2066.35263,0.00486
2064.29246,0.00471
2062.23229,0.00459
2060.17212,0.00482
2058.11194,0.00517
2056.05177,0.00548
2053.99160,0.00590
2051.93143,0.00647
2049.87126,0.00614
2047.81108,0.00478
2045.75091,0.00425
2043.69074,0.00474
2041.63057,0.00509
2039.57040,0.00498
2037.51022,0.00434
2035.45005,0.00377
2033.38988,0.00386
2031.32971,0.00400
2029.26954,0.00415
2027.20936,0.00463
2025.14919,0.00476
2023.08902,0.00447
2021.02885,0.00429
2018.96867,0.00416
2016.90850,0.00391
2014.84833,0.00346
2012.78816,0.00321
2010.72799,0.00371
2008.66781,0.00399
2006.60764,0.00316
2004.54747,0.00257
2002.48730,0.00272
2000.42713,0.00302
1998.36695,0.00353
1996.30678,0.00356
1994.24661,0.00277
1992.18644,0.00250
1990.12626,0.00338
1988.06609,0.00420
1986.00592,0.00429
1983.94575,0.00437
1981.88558,0.00522
1979.82540,0.00616
1977.76523,0.00588
1975.70506,0.00512
1973.64489,0.00521
1971.58472,0.00512
1969.52454,0.00377
1967.46437,0.00244
1965.40420,0.00232
1963.34403,0.00256
1961.28386,0.00219
1959.22368,0.00163
1957.16351,0.00161
1955.10334,0.00214
1953.04317,0.00301
1950.98299,0.00364
1948.92282,0.00338
1946.86265,0.00260
1944.80248,0.00192
1942.74231,0.00165
1940.68213,0.00177
1938.62196,0.00172
1936.56179,0.00131
1934.50162,0.00109
1932.44145,0.00152
1930.38127,0.00226
1928.32110,0.00283
1926.26093,0.00292
1924.20076,0.00227
1922.14059,0.00163
1920.08041,0.00190
1918.02024,0.00259
1915.96007,0.00286
1913.89990,0.00283
1911.83972,0.00280
1909.77955,0.00275
1907.71938,0.00284
1905.65921,0.00306
1903.59904,0.00322
1901.53886,0.00323
1899.47869,0.00320
1897.41852,0.00312
1895.35835,0.00296
1893.29818,0.00275
1891.23800,0.00261
1889.17783,0.00254
1887.11766,0.00245
1885.05749,0.00237
1882.99731,0.00232
1880.93714,0.00235
1878.87697,0.00244
1876.81680,0.00253
1874.75663,0.00260
1872.69645,0.00268
1870.63628,0.00287
1868.57611,0.00316
1866.51594,0.00320
1864.45577,0.00296
1862.39559,0.00274
1860.33542,0.00260
1858.27525,0.00257
1856.21508,0.00280
1854.15491,0.00301
1852.09473,0.00282
1850.03456,0.00240
1847.97439,0.00200
1845.91422,0.00172
1843.85404,0.00169
1841.79387,0.00194
1839.73370,0.00228
1837.67353,0.00237
1835.61336,0.00207
1833.55318,0.00184
1831.49301,0.00219
1829.43284,0.00272
1827.37267,0.00278
1825.31250,0.00260
1823.25232,0.00257
1821.19215,0.00259
1819.13198,0.00235
1817.07181,0.00192
1815.01163,0.00166
1812.95146,0.00165
1810.89129,0.00171
1808.83112,0.00178
1806.77095,0.00175
1804.71077,0.00141
1802.65060,0.00095
1800.59043,0.00103
1798.53026,0.00147
1796.47009,0.00163
1794.40991,0.00166
1792.34974,0.00170
1790.28957,0.00160
1788.22940,0.00137
1786.16923,0.00106
1784.10905,0.00106
1782.04888,0.00150
1779.98871,0.00181
1777.92854,0.00181
1775.86836,0.00200
1773.80819,0.00252
1771.74802,0.00252
1769.68785,0.00158
1767.62768,0.00093
1765.56750,0.00115
1763.50733,0.00168
1761.44716,0.00196
1759.38699,0.00190
1757.32682,0.00171
1755.26664,0.00156
1753.20647,0.00135
1751.14630,0.00114
1749.08613,0.00125
1747.02596,0.00149
1744.96578,0.00161
1742.90561,0.00189
1740.84544,0.00227
1738.78527,0.00237
1736.72509,0.00222
1734.66492,0.00188
1732.60475,0.00152
1730.54458,0.00160
1728.48441,0.00198
1726.42423,0.00228
1724.36406,0.00234
1722.30389,0.00250
1720.24372,0.00302
1718.18355,0.00315
1716.12337,0.00223
1714.06320,0.00153
1712.00303,0.00155
1709.94286,0.00195
1707.88268,0.00230
1705.82251,0.00219
1703.76234,0.00192
1701.70217,0.00231
1699.64200,0.00297
1697.58182,0.00311
1695.52165,0.00305
1693.46148,0.00313
1691.40131,0.00324
1689.34114,0.00348
1687.28096,0.00415
1685.22079,0.00505
1683.16062,0.00506
1681.10045,0.00464
1679.04028,0.00489
1676.98010,0.00577
1674.91993,0.00672
1672.85976,0.00741
1670.79959,0.00788
1668.73941,0.00806
1666.67924,0.00808
1664.61907,0.00834
1662.55890,0.00855
1660.49873,0.00830
1658.43855,0.00811
1656.37838,0.00868
1654.31821,0.00969
1652.25804,0.00989
1650.19787,0.00974
1648.13769,0.00990
1646.07752,0.00984
1644.01735,0.00915
1641.95718,0.00866
1639.89701,0.00895
1637.83683,0.00983
1635.77666,0.01028
1633.71649,0.00974
1631.65632,0.00913
1629.59614,0.00909
1627.53597,0.00943
1625.47580,0.00967
1623.41563,0.00949
1621.35546,0.00918
1619.29528,0.00948
1617.23511,0.00997
1615.17494,0.00956
1613.11477,0.00881
1611.05460,0.00855
1608.99442,0.00864
1606.93425,0.00862
1604.87408,0.00854
1602.81391,0.00857
1600.75373,0.00868
1598.69356,0.00876
1596.63339,0.00876
1594.57322,0.00863
1592.51305,0.00839
1590.45287,0.00820
1588.39270,0.00809
1586.33253,0.00792
1584.27236,0.00762
1582.21219,0.00738
1580.15201,0.00755
1578.09184,0.00803
1576.03167,0.00802
1573.97150,0.00733
1571.91133,0.00696
1569.85115,0.00696
1567.79098,0.00653
1565.73081,0.00583
1563.67064,0.00564
1561.61046,0.00643
1559.55029,0.00719
1557.49012,0.00599
1555.42995,0.00429
1553.36978,0.00329
1551.30960,0.00281
1549.24943,0.00251
1547.18926,0.00235
1545.12909,0.00260
1543.06892,0.00363
1541.00874,0.00486
1538.94857,0.00457
1536.88840,0.00340
1534.82823,0.00281
1532.76805,0.00264
1530.70788,0.00236
1528.64771,0.00220
1526.58754,0.00214
1524.52737,0.00215
1522.46719,0.00209
1520.40702,0.00156
1518.34685,0.00103
1516.28668,0.00074
1514.22651,0.00048
1512.16633,0.00016
1510.10616,0.00002
1508.04599,0.00061
1505.98582,0.00167
1503.92565,0.00195
1501.86547,0.00174
1499.80530,0.00195
1497.74513,0.00236
1495.68496,0.00253
1493.62478,0.00263
1491.56461,0.00259
1489.50444,0.00229
1487.44427,0.00223
1485.38410,0.00255
1483.32392,0.00279
1481.26375,0.00284
1479.20358,0.00277
1477.14341,0.00270
1475.08324,0.00271
1473.02306,0.00278
1470.96289,0.00286
1468.90272,0.00303
1466.84255,0.00338
1464.78238,0.00364
1462.72220,0.00358
1460.66203,0.00359
1458.60186,0.00359
1456.54169,0.00315
1454.48151,0.00287
1452.42134,0.00289
1450.36117,0.00314
1448.30100,0.00350
1446.24083,0.00388
1444.18065,0.00419
1442.12048,0.00432
1440.06031,0.00419
1438.00014,0.00388
1435.93997,0.00357
1433.87979,0.00364
1431.81962,0.00401
1429.75945,0.00439
1427.69928,0.00449
1425.63910,0.00447
1423.57893,0.00444
1421.51876,0.00427
1419.45859,0.00388
1417.39842,0.00375
1415.33824,0.00420
1413.27807,0.00470
1411.21790,0.00489
1409.15773,0.00496
1407.09756,0.00502
1405.03738,0.00497
1402.97721,0.00488
1400.91704,0.00468
1398.85687,0.00424
1396.79670,0.00388
1394.73652,0.00394
1392.67635,0.00414
1390.61618,0.00413
1388.55601,0.00394
1386.49583,0.00398
1384.43566,0.00441
1382.37549,0.00470
1380.31532,0.00456
1378.25515,0.00433
1376.19497,0.00425
1374.13480,0.00418
1372.07463,0.00413
1370.01446,0.00424
1367.95429,0.00438
1365.89411,0.00424
1363.83394,0.00366
1361.77377,0.00314
1359.71360,0.00336
1357.65343,0.00394
1355.59325,0.00432
1353.53308,0.00443
1351.47291,0.00450
1349.41274,0.00453
1347.35256,0.00448
1345.29239,0.00430
1343.23222,0.00385
1341.17205,0.00302
1339.11188,0.00236
1337.05170,0.00266
1334.99153,0.00348
1332.93136,0.00397
1330.87119,0.00402
1328.81102,0.00397
1326.75084,0.00395
1324.69067,0.00394
1322.63050,0.00393
1320.57033,0.00381
1318.51015,0.00358
1316.44998,0.00350
1314.38981,0.00358
1312.32964,0.00366
1310.26947,0.00385
1308.20929,0.00417
1306.14912,0.00440
1304.08895,0.00447
1302.02878,0.00448
1299.96861,0.00441
1297.90843,0.00422
1295.84826,0.00407
1293.78809,0.00404
1291.72792,0.00401
1289.66775,0.00392
1287.60757,0.00387
1285.54740,0.00395
1283.48723,0.00404
1281.42706,0.00406
1279.36688,0.00410
1277.30671,0.00418
1275.24654,0.00419
1273.18637,0.00414
1271.12620,0.00416
1269.06602,0.00419
1267.00585,0.00416
1264.94568,0.00417
1262.88551,0.00430
1260.82534,0.00440
1258.76516,0.00439
1256.70499,0.00439
1254.64482,0.00441
1252.58465,0.00434
1250.52447,0.00426
1248.46430,0.00432
1246.40413,0.00442
1244.34396,0.00443
1242.28379,0.00440
1240.22361,0.00430
1238.16344,0.00411
1236.10327,0.00398
1234.04310,0.00392
1231.98293,0.00391
1229.92275,0.00394
1227.86258,0.00389
1225.80241,0.00365
1223.74224,0.00335
1221.68207,0.00317
1219.62189,0.00313
1217.56172,0.00321
1215.50155,0.00319
1213.44138,0.00295
1211.38120,0.00270
1209.32103,0.00262
1207.26086,0.00269
1205.20069,0.00278
1203.14052,0.00272
1201.08034,0.00257
1199.02017,0.00241
1196.96000,0.00240
1194.89983,0.00244
1192.83966,0.00253
1190.77948,0.00259
1188.71931,0.00246
1186.65914,0.00236
1184.59897,0.00246
1182.53880,0.00256
1180.47862,0.00266
1178.41845,0.00272
1176.35828,0.00264
1174.29811,0.00260
1172.23793,0.00276
1170.17776,0.00299
1168.11759,0.00322
1166.05742,0.00342
1163.99725,0.00354
1161.93707,0.00368
1159.87690,0.00388
1157.81673,0.00406
1155.75656,0.00424
1153.69639,0.00446
1151.63621,0.00466
1149.57604,0.00492
1147.51587,0.00527
1145.45570,0.00553
1143.39552,0.00579
1141.33535,0.00618
1139.27518,0.00655
1137.21501,0.00684
1135.15484,0.00719
1133.09466,0.00764
1131.03449,0.00810
1128.97432,0.00854
1126.91415,0.00902
1124.85398,0.00949
1122.79380,0.00994
1120.73363,0.01041
1118.67346,0.01087
1116.61329,0.01133
1114.55312,0.01175
1112.49294,0.01219
1110.43277,0.01272
1108.37260,0.01327
1106.31243,0.01372
1104.25225,0.01411
1102.19208,0.01455
1100.13191,0.01509
1098.07174,0.01550
1096.01157,0.01572
1093.95139,0.01600
1091.89122,0.01630
1089.83105,0.01654
1087.77088,0.01676
1085.71071,0.01697
1083.65053,0.01730
1081.59036,0.01775
1079.53019,0.01820
1077.47002,0.01858
1075.40985,0.01887
1073.34967,0.01905
1071.28950,0.01903
1069.22933,0.01899
1067.16916,0.01909
1065.10898,0.01916
1063.04881,0.01922
1060.98864,0.01930
1058.92847,0.01923
1056.86830,0.01891
1054.80812,0.01852
1052.74795,0.01827
1050.68778,0.01800
1048.62761,0.01755
1046.56744,0.01699
1044.50726,0.01650
1042.44709,0.01618
1040.38692,0.01584
1038.32675,0.01525
1036.26657,0.01449
1034.20640,0.01378
1032.14623,0.01310
1030.08606,0.01234
1028.02589,0.01162
1025.96571,0.01114
1023.90554,0.01089
1021.84537,0.01060
1019.78520,0.01018
1017.72503,0.00979
1015.66485,0.00951
1013.60468,0.00935
1011.54451,0.00932
1009.48434,0.00931
1007.42417,0.00930
1005.36399,0.00941
1003.30382,0.00955
1001.24365,0.00974
999.18348,0.01020
997.12330,0.01074
995.06313,0.01118
993.00296,0.01160
990.94279,0.01198
988.88262,0.01220
986.82244,0.01229
984.76227,0.01238
982.70210,0.01246
980.64193,0.01249
978.58176,0.01250
976.52158,0.01248
974.46141,0.01239
972.40124,0.01223
970.34107,0.01193
968.28089,0.01160
966.22072,0.01127
964.16055,0.01077
962.10038,0.01021
960.04021,0.00986
957.98003,0.00962
955.91986,0.00923
953.85969,0.00871
951.79952,0.00827
949.73935,0.00797
947.67917,0.00760
945.61900,0.00710
943.55883,0.00658
941.49866,0.00620
939.43849,0.00607
937.37831,0.00604
935.31814,0.00586
933.25797,0.00556
931.19780,0.00533
929.13762,0.00510
927.07745,0.00480
925.01728,0.00456
922.95711,0.00433
920.89694,0.00405
918.83676,0.00381
916.77659,0.00374
914.71642,0.00381
912.65625,0.00393
910.59608,0.00390
908.53590,0.00377
906.47573,0.00398
904.41556,0.00443
902.35539,0.00455
900.29522,0.00431
898.23504,0.00407
896.17487,0.00408
894.11470,0.00427
892.05453,0.00442
889.99435,0.00451
887.93418,0.00460
885.87401,0.00474
883.81384,0.00499
881.75367,0.00526
879.69349,0.00551
877.63332,0.00579
875.57315,0.00597
873.51298,0.00594
871.45281,0.00599
869.39263,0.00636
867.33246,0.00676
865.27229,0.00698
863.21212,0.00696
861.15194,0.00674
859.09177,0.00670
857.03160,0.00691
854.97143,0.00707
852.91126,0.00705
850.85108,0.00711
848.79091,0.00733
846.73074,0.00716
844.67057,0.00665
842.61040,0.00649
840.55022,0.00664
838.49005,0.00655
836.42988,0.00612
834.36971,0.00596
832.30954,0.00607
830.24936,0.00593
828.18919,0.00559
826.12902,0.00518
824.06885,0.00481
822.00867,0.00468
819.94850,0.00470
817.88833,0.00487
815.82816,0.00506
813.76799,0.00493
811.70781,0.00463
809.64764,0.00445
807.58747,0.00426
805.52730,0.00407
803.46713,0.00410
801.40695,0.00423
799.34678,0.00406
797.28661,0.00383
795.22644,0.00386
793.16627,0.00382
791.10609,0.00373
789.04592,0.00403
786.98575,0.00449
784.92558,0.00469
782.86540,0.00461
780.80523,0.00442
778.74506,0.00425
776.68489,0.00414
774.62472,0.00419
772.56454,0.00439
770.50437,0.00445
768.44420,0.00432
766.38403,0.00415
764.32386,0.00416
762.26368,0.00441
760.20351,0.00452
758.14334,0.00435
756.08317,0.00407
754.02299,0.00388
751.96282,0.00410
749.90265,0.00436
747.84248,0.00415
745.78231,0.00367
743.72213,0.00348
741.66196,0.00378
739.60179,0.00431
737.54162,0.00464
735.48145,0.00446
733.42127,0.00410
731.36110,0.00396
729.30093,0.00409
727.24076,0.00432
725.18059,0.00427
723.12041,0.00403
721.06024,0.00389
719.00007,0.00408
716.93990,0.00414
714.87972,0.00386
712.81955,0.00379
710.75938,0.00401
708.69921,0.00415
706.63904,0.00400
704.57886,0.00380
702.51869,0.00388
700.45852,0.00406
698.39835,0.00409
696.33818,0.00416
694.27800,0.00426
692.21783,0.00396
690.15766,0.00332
688.09749,0.00330
686.03731,0.00443
683.97714,0.00563
681.91697,0.00614
679.85680,0.00669
677.79663,0.00732
675.73645,0.00730
673.67628,0.00641
671.61611,0.00495
669.55594,0.00425
667.49577,0.00544
665.43559,0.00677
663.37542,0.00691
661.31525,0.00632
659.25508,0.00618
657.19491,0.00658
655.13473,0.00637
653.07456,0.00527
651.01439,0.00428
648.95422,0.00392
646.89404,0.00366
644.83387,0.00331
642.77370,0.00348
640.71353,0.00391
638.65336,0.00324
636.59318,0.00152
634.53301,0.00063
632.47284,0.00161
630.41267,0.00337
628.35250,0.00446
626.29232,0.00446
624.23215,0.00424
622.17198,0.00397
620.11181,0.00317
618.05164,0.00233
615.99146,0.00222
613.93129,0.00271
611.87112,0.00186
609.81095,0.00011
607.75077,0.00000
605.69060,0.00117
603.63043,0.00162
601.57026,0.00054
599.51009,0.00000
