3996.73391,0.00727
3994.67373,0.00708
3992.61356,0.00707
3990.55339,0.00715
3988.49322,0.00711
3986.43305,0.00691
3984.37287,0.00691
3982.31270,0.00722
3980.25253,0.00737
3978.19236,0.00709
3976.13219,0.00675
3974.07201,0.00665
3972.01184,0.00680
3969.95167,0.00682
3967.89150,0.00655
3965.83133,0.00641
3963.77115,0.00657
3961.71098,0.00675
3959.65081,0.00676
3957.59064,0.00668
3955.53046,0.00653
3953.47029,0.00639
3951.41012,0.00656
3949.34995,0.00686
3947.28978,0.00683
3945.22960,0.00662
3943.16943,0.00664
3941.10926,0.00694
3939.04909,0.00723
3936.98892,0.00716
3934.92874,0.00671
3932.86857,0.00629
3930.80840,0.00626
3928.74823,0.00642
3926.68805,0.00650
3924.62788,0.00662
3922.56771,0.00695
3920.50754,0.00723
3918.44737,0.00718
3916.38719,0.00707
3914.32702,0.00717
3912.26685,0.00720
3910.20668,0.00692
3908.14651,0.00659
3906.08633,0.00664
3904.02616,0.00696
3901.96599,0.00682
3899.90582,0.00644
3897.84565,0.00654
3895.78547,0.00668
3893.72530,0.00635
3891.66513,0.00596
3889.60496,0.00590
3887.54478,0.00597
3885.48461,0.00618
3883.42444,0.00649
3881.36427,0.00685
3879.30410,0.00730
3877.24392,0.00730
3875.18375,0.00674
3873.12358,0.00621
3871.06341,0.00616
3869.00324,0.00641
3866.94306,0.00652
3864.88289,0.00643
3862.82272,0.00638
3860.76255,0.00636
3858.70237,0.00639
3856.64220,0.00674
3854.58203,0.00738
3852.52186,0.00735
3850.46169,0.00640
3848.40151,0.00580
3846.34134,0.00596
3844.28117,0.00644
3842.22100,0.00695
3840.16083,0.00744
3838.10065,0.00778
3836.04048,0.00776
3833.98031,0.00758
3831.92014,0.00749
3829.85997,0.00731
3827.79979,0.00673
3825.73962,0.00604
3823.67945,0.00573
3821.61928,0.00585
3819.55910,0.00596
3817.49893,0.00576
3815.43876,0.00565
3813.37859,0.00600
3811.31842,0.00652
3809.25824,0.00672
3807.19807,0.00646
3805.13790,0.00600
3803.07773,0.00571
3801.01756,0.00595
3798.95738,0.00659
3796.89721,0.00687
3794.83704,0.00677
3792.77687,0.00681
3790.71670,0.00697
3788.65652,0.00699
3786.59635,0.00682
3784.53618,0.00663
3782.47601,0.00644
3780.41583,0.00619
3778.35566,0.00605
3776.29549,0.00613
3774.23532,0.00644
3772.17515,0.00689
3770.11497,0.00726
3768.05480,0.00738
3765.99463,0.00713
3763.93446,0.00669
3761.87429,0.00651
3759.81411,0.00678
3757.75394,0.00695
3755.69377,0.00651
3753.63360,0.00604
3751.57342,0.00623
3749.51325,0.00660
3747.45308,0.00643
3745.39291,0.00614
3743.33274,0.00615
3741.27256,0.00630
3739.21239,0.00644
3737.15222,0.00685
3735.09205,0.00746
3733.03188,0.00751
3730.97170,0.00702
3728.91153,0.00642
3726.85136,0.00607
3724.79119,0.00630
3722.73102,0.00670
3720.67084,0.00678
3718.61067,0.00672
3716.55050,0.00651
3714.49033,0.00583
3712.43015,0.00499
3710.36998,0.00523
3708.30981,0.00636
3706.24964,0.00696
3704.18947,0.00684
3702.12929,0.00674
3700.06912,0.00684
3698.00895,0.00681
3695.94878,0.00685
3693.88861,0.00713
3691.82843,0.00712
3689.76826,0.00642
3687.70809,0.00564
3685.64792,0.00567
3683.58775,0.00663
3681.52757,0.00767
3679.46740,0.00812
3677.40723,0.00811
3675.34706,0.00769
3673.28688,0.00658
3671.22671,0.00550
3669.16654,0.00571
3667.10637,0.00664
3665.04620,0.00684
3662.98602,0.00637
3660.92585,0.00606
3658.86568,0.00621
3656.80551,0.00647
3654.74534,0.00657
3652.68516,0.00680
3650.62499,0.00717
3648.56482,0.00709
3646.50465,0.00660
3644.44447,0.00664
3642.38430,0.00725
3640.32413,0.00781
3638.26396,0.00794
3636.20379,0.00760
3634.14361,0.00717
3632.08344,0.00694
3630.02327,0.00665
3627.96310,0.00639
3625.90293,0.00696
3623.84275,0.00818
3621.78258,0.00891
3619.72241,0.00868
3617.66224,0.00814
3615.60207,0.00784
3613.54189,0.00760
3611.48172,0.00749
3609.42155,0.00807
3607.36138,0.00894
3605.30120,0.00908
3603.24103,0.00855
3601.18086,0.00798
3599.12069,0.00798
3597.06052,0.00849
3595.00034,0.00896
3592.94017,0.00903
3590.88000,0.00882
3588.81983,0.00855
3586.75966,0.00869
3584.69948,0.00924
3582.63931,0.00971
3580.57914,0.00991
3578.51897,0.00999
3576.45879,0.01014
3574.39862,0.01018
3572.33845,0.00994
3570.27828,0.00987
3568.21811,0.01037
3566.15793,0.01121
3564.09776,0.01166
3562.03759,0.01146
3559.97742,0.01095
3557.91725,0.01071
3555.85707,0.01087
3553.79690,0.01093
3551.73673,0.01063
3549.67656,0.01022
3547.61639,0.01006
3545.55621,0.01017
3543.49604,0.01018
3541.43587,0.01013
3539.37570,0.01028
3537.31552,0.01037
3535.25535,0.01022
3533.19518,0.01000
3531.13501,0.00985
3529.07484,0.00986
3527.01466,0.01006
3524.95449,0.01036
3522.89432,0.01058
3520.83415,0.01090
3518.77398,0.01158
3516.71380,0.01227
3514.65363,0.01230
3512.59346,0.01179
3510.53329,0.01139
3508.47312,0.01129
3506.41294,0.01123
3504.35277,0.01132
3502.29260,0.01169
3500.23243,0.01182
3498.17225,0.01171
3496.11208,0.01203
3494.05191,0.01257
3491.99174,0.01262
3489.93157,0.01238
3487.87139,0.01239
3485.81122,0.01247
3483.75105,0.01244
3481.69088,0.01252
3479.63071,0.01270
3477.57053,0.01291
3475.51036,0.01301
3473.45019,0.01285
3471.39002,0.01256
3469.32984,0.01243
3467.26967,0.01264
3465.20950,0.01311
3463.14933,0.01343
3461.08916,0.01345
3459.02898,0.01328
3456.96881,0.01292
3454.90864,0.01251
3452.84847,0.01222
3450.78830,0.01226
3448.72812,0.01272
3446.66795,0.01309
3444.60778,0.01317
3442.54761,0.01333
3440.48744,0.01354
3438.42726,0.01367
3436.36709,0.01380
3434.30692,0.01369
3432.24675,0.01332
3430.18657,0.01313
3428.12640,0.01317
3426.06623,0.01336
3424.00606,0.01363
3421.94589,0.01379
3419.88571,0.01364
3417.82554,0.01341
3415.76537,0.01339
3413.70520,0.01340
3411.64503,0.01327
3409.58485,0.01344
3407.52468,0.01391
3405.46451,0.01413
3403.40434,0.01418
3401.34416,0.01432
3399.28399,0.01431
3397.22382,0.01424
3395.16365,0.01419
3393.10348,0.01413
3391.04330,0.01423
3388.98313,0.01426
3386.92296,0.01428
3384.86279,0.01468
3382.80262,0.01493
3380.74244,0.01470
3378.68227,0.01468
3376.62210,0.01509
3374.56193,0.01528
3372.50176,0.01493
3370.44158,0.01459
3368.38141,0.01474
3366.32124,0.01509
3364.26107,0.01513
3362.20089,0.01484
3360.14072,0.01439
3358.08055,0.01420
3356.02038,0.01480
3353.96021,0.01540
3351.90003,0.01500
3349.83986,0.01438
3347.77969,0.01455
3345.71952,0.01496
3343.65935,0.01487
3341.59917,0.01460
3339.53900,0.01466
3337.47883,0.01485
3335.41866,0.01482
3333.35849,0.01482
3331.29831,0.01495
3329.23814,0.01496
3327.17797,0.01494
3325.11780,0.01517
3323.05762,0.01542
3320.99745,0.01534
3318.93728,0.01526
3316.87711,0.01536
3314.81694,0.01538
3312.75676,0.01539
3310.69659,0.01548
3308.63642,0.01555
3306.57625,0.01550
3304.51608,0.01535
3302.45590,0.01534
3300.39573,0.01542
3298.33556,0.01519
3296.27539,0.01492
3294.21521,0.01508
3292.15504,0.01544
3290.09487,0.01569
3288.03470,0.01579
3285.97453,0.01573
3283.91435,0.01555
3281.85418,0.01550
3279.79401,0.01568
3277.73384,0.01582
3275.67367,0.01576
3273.61349,0.01565
3271.55332,0.01577
3269.49315,0.01592
3267.43298,0.01557
3265.37281,0.01524
3263.31263,0.01557
3261.25246,0.01592
3259.19229,0.01589
3257.13212,0.01575
3255.07194,0.01552
3253.01177,0.01529
3250.95160,0.01536
3248.89143,0.01548
3246.83126,0.01540
3244.77108,0.01548
3242.71091,0.01562
3240.65074,0.01550
3238.59057,0.01531
3236.53040,0.01540
3234.47022,0.01578
3232.41005,0.01592
3230.34988,0.01564
3228.28971,0.01549
3226.22954,0.01559
3224.16936,0.01558
3222.10919,0.01541
3220.04902,0.01506
3217.98885,0.01471
3215.92867,0.01473
3213.86850,0.01491
3211.80833,0.01491
3209.74816,0.01478
3207.68799,0.01457
3205.62781,0.01466
3203.56764,0.01516
3201.50747,0.01532
3199.44730,0.01495
3197.38713,0.01479
3195.32695,0.01500
3193.26678,0.01534
3191.20661,0.01546
3189.14644,0.01520
3187.08626,0.01501
3185.02609,0.01497
3182.96592,0.01468
3180.90575,0.01430
3178.84558,0.01425
3176.78540,0.01448
3174.72523,0.01467
3172.66506,0.01469
3170.60489,0.01462
3168.54472,0.01459
3166.48454,0.01457
3164.42437,0.01444
3162.36420,0.01436
3160.30403,0.01446
3158.24386,0.01462
3156.18368,0.01481
3154.12351,0.01497
3152.06334,0.01490
3150.00317,0.01474
3147.94299,0.01459
3145.88282,0.01435
3143.82265,0.01428
3141.76248,0.01449
3139.70231,0.01457
3137.64213,0.01446
3135.58196,0.01451
3133.52179,0.01461
3131.46162,0.01440
3129.40145,0.01403
3127.34127,0.01388
3125.28110,0.01403
3123.22093,0.01417
3121.16076,0.01426
3119.10058,0.01443
3117.04041,0.01460
3114.98024,0.01477
3112.92007,0.01485
3110.85990,0.01476
3108.79972,0.01464
3106.73955,0.01449
3104.67938,0.01419
3102.61921,0.01392
3100.55904,0.01384
3098.49886,0.01399
3096.43869,0.01426
3094.37852,0.01430
3092.31835,0.01417
3090.25818,0.01414
3088.19800,0.01406
3086.13783,0.01382
3084.07766,0.01362
3082.01749,0.01362
3079.95731,0.01367
3077.89714,0.01353
3075.83697,0.01328
3073.77680,0.01328
3071.71663,0.01352
3069.65645,0.01383
3067.59628,0.01410
3065.53611,0.01403
3063.47594,0.01386
3061.41577,0.01397
3059.35559,0.01392
3057.29542,0.01360
3055.23525,0.01338
3053.17508,0.01330
3051.11491,0.01330
3049.05473,0.01330
3046.99456,0.01321
3044.93439,0.01304
3042.87422,0.01300
3040.81404,0.01328
3038.75387,0.01367
3036.69370,0.01364
3034.63353,0.01313
3032.57336,0.01279
3030.51318,0.01302
3028.45301,0.01321
3026.39284,0.01302
3024.33267,0.01279
3022.27250,0.01271
3020.21232,0.01275
3018.15215,0.01287
3016.09198,0.01300
3014.03181,0.01314
3011.97163,0.01310
3009.91146,0.01275
3007.85129,0.01250
3005.79112,0.01274
3003.73095,0.01310
3001.67077,0.01299
2999.61060,0.01265
2997.55043,0.01265
2995.49026,0.01286
2993.43009,0.01288
2991.36991,0.01269
2989.30974,0.01244
2987.24957,0.01230
2985.18940,0.01225
2983.12923,0.01236
2981.06905,0.01255
2979.00888,0.01251
2976.94871,0.01228
2974.88854,0.01199
2972.82836,0.01185
2970.76819,0.01205
2968.70802,0.01230
2966.64785,0.01232
2964.58768,0.01231
2962.52750,0.01235
2960.46733,0.01230
2958.40716,0.01224
2956.34699,0.01243
2954.28682,0.01282
2952.22664,0.01298
2950.16647,0.01283
2948.10630,0.01258
2946.04613,0.01250
2943.98596,0.01262
2941.92578,0.01272
2939.86561,0.01273
2937.80544,0.01266
2935.74527,0.01238
2933.68509,0.01223
2931.62492,0.01237
2929.56475,0.01229
2927.50458,0.01187
2925.44441,0.01158
2923.38423,0.01174
2921.32406,0.01217
2919.26389,0.01245
2917.20372,0.01229
2915.14355,0.01179
2913.08337,0.01161
2911.02320,0.01207
2908.96303,0.01252
2906.90286,0.01232
2904.84268,0.01193
2902.78251,0.01198
2900.72234,0.01228
2898.66217,0.01239
2896.60200,0.01221
2894.54182,0.01191
2892.48165,0.01176
2890.42148,0.01171
2888.36131,0.01149
2886.30114,0.01137
2884.24096,0.01156
2882.18079,0.01159
2880.12062,0.01135
2878.06045,0.01127
2876.00028,0.01138
2873.94010,0.01147
2871.87993,0.01153
2869.81976,0.01163
2867.75959,0.01166
2865.69941,0.01143
2863.63924,0.01114
2861.57907,0.01123
2859.51890,0.01152
2857.45873,0.01159
2855.39855,0.01153
2853.33838,0.01138
2851.27821,0.01117
2849.21804,0.01103
2847.15787,0.01102
2845.09769,0.01110
2843.03752,0.01121
2840.97735,0.01115
2838.91718,0.01096
2836.85700,0.01097
2834.79683,0.01108
2832.73666,0.01077
2830.67649,0.01022
2828.61632,0.00997
2826.55614,0.01000
2824.49597,0.01017
2822.43580,0.01048
2820.37563,0.01065
2818.31546,0.01044
2816.25528,0.01019
2814.19511,0.01028
2812.13494,0.01032
2810.07477,0.01001
2808.01460,0.00968
2805.95442,0.00971
2803.89425,0.01005
2801.83408,0.01031
2799.77391,0.01033
2797.71373,0.01024
2795.65356,0.01016
2793.59339,0.01006
2791.53322,0.00999
2789.47305,0.00994
2787.41287,0.00972
2785.35270,0.00942
2783.29253,0.00942
2781.23236,0.00965
2779.17219,0.00986
2777.11201,0.01018
2775.05184,0.01063
2772.99167,0.01074
2770.93150,0.01042
2768.87133,0.01020
2766.81115,0.01027
2764.75098,0.01046
2762.69081,0.01053
2760.63064,0.01029
2758.57046,0.00987
2756.51029,0.00963
2754.45012,0.00977
2752.38995,0.01005
2750.32978,0.01015
2748.26960,0.01008
2746.20943,0.00987
2744.14926,0.00961
2742.08909,0.00938
2740.02892,0.00926
2737.96874,0.00942
2735.90857,0.00967
2733.84840,0.00962
2731.78823,0.00941
2729.72805,0.00934
2727.66788,0.00931
2725.60771,0.00928
2723.54754,0.00931
2721.48737,0.00933
2719.42719,0.00934
2717.36702,0.00933
2715.30685,0.00924
2713.24668,0.00908
2711.18651,0.00900
2709.12633,0.00920
2707.06616,0.00941
2705.00599,0.00942
2702.94582,0.00933
2700.88565,0.00931
2698.82547,0.00928
2696.76530,0.00894
2694.70513,0.00868
2692.64496,0.00879
2690.58478,0.00889
2688.52461,0.00886
2686.46444,0.00884
2684.40427,0.00888
2682.34410,0.00901
2680.28392,0.00906
2678.22375,0.00885
2676.16358,0.00871
2674.10341,0.00880
2672.04324,0.00877
2669.98306,0.00867
2667.92289,0.00867
2665.86272,0.00864
2663.80255,0.00866
2661.74238,0.00883
2659.68220,0.00892
2657.62203,0.00875
2655.56186,0.00850
2653.50169,0.00833
2651.44151,0.00823
2649.38134,0.00822
2647.32117,0.00832
2645.26100,0.00842
2643.20083,0.00859
2641.14065,0.00890
2639.08048,0.00889
2637.02031,0.00859
2634.96014,0.00856
2632.89997,0.00876
2630.83979,0.00896
2628.77962,0.00919
2626.71945,0.00924
2624.65928,0.00907
2622.59910,0.00896
2620.53893,0.00892
2618.47876,0.00882
2616.41859,0.00864
2614.35842,0.00841
2612.29824,0.00827
2610.23807,0.00834
2608.17790,0.00852
2606.11773,0.00847
2604.05756,0.00826
2601.99738,0.00849
2599.93721,0.00895
2597.87704,0.00898
2595.81687,0.00882
2593.75670,0.00864
2591.69652,0.00829
2589.63635,0.00818
2587.57618,0.00830
2585.51601,0.00835
2583.45583,0.00837
2581.39566,0.00847
2579.33549,0.00855
2577.27532,0.00854
2575.21515,0.00846
2573.15497,0.00831
2571.09480,0.00831
2569.03463,0.00869
2566.97446,0.00888
2564.91429,0.00868
2562.85411,0.00847
2560.79394,0.00826
2558.73377,0.00815
2556.67360,0.00824
2554.61342,0.00841
2552.55325,0.00838
2550.49308,0.00808
2548.43291,0.00797
2546.37274,0.00817
2544.31256,0.00796
2542.25239,0.00755
2540.19222,0.00770
2538.13205,0.00792
2536.07188,0.00792
2534.01170,0.00790
2531.95153,0.00781
2529.89136,0.00782
2527.83119,0.00813
2525.77102,0.00864
2523.71084,0.00878
2521.65067,0.00830
2519.59050,0.00790
2517.53033,0.00793
2515.47015,0.00813
2513.40998,0.00822
2511.34981,0.00813
2509.28964,0.00816
2507.22947,0.00827
2505.16929,0.00865
2503.10912,0.00949
2501.04895,0.00991
2498.98878,0.00936
2496.92861,0.00862
2494.86843,0.00836
2492.80826,0.00825
2490.74809,0.00812
2488.68792,0.00832
2486.62775,0.00853
2484.56757,0.00818
2482.50740,0.00768
2480.44723,0.00785
2478.38706,0.00813
2476.32688,0.00781
2474.26671,0.00766
2472.20654,0.00806
2470.14637,0.00840
2468.08620,0.00848
2466.02602,0.00847
2463.96585,0.00797
2461.90568,0.00747
2459.84551,0.00796
2457.78534,0.00857
2455.72516,0.00842
2453.66499,0.00810
2451.60482,0.00804
2449.54465,0.00789
2447.48447,0.00764
2445.42430,0.00779
2443.36413,0.00816
2441.30396,0.00858
2439.24379,0.00911
2437.18361,0.00927
2435.12344,0.00899
2433.06327,0.00859
2431.00310,0.00804
2428.94293,0.00780
2426.88275,0.00806
2424.82258,0.00831
2422.76241,0.00843
2420.70224,0.00858
2418.64207,0.00867
2416.58189,0.00868
2414.52172,0.00871
2412.46155,0.00862
2410.40138,0.00821
2408.34120,0.00793
2406.28103,0.00810
2404.22086,0.00846
2402.16069,0.00870
2400.10052,0.00858
2398.04034,0.00816
2395.98017,0.00800
2393.92000,0.00815
2391.85983,0.00814
2389.79966,0.00804
2387.73948,0.00832
2385.67931,0.00882
2383.61914,0.00898
2381.55897,0.00868
2379.49880,0.00829
2377.43862,0.00841
2375.37845,0.00885
2373.31828,0.00909
2371.25811,0.00866
2369.19793,0.00745
2367.13776,0.00616
2365.07759,0.00541
2363.01742,0.00627
2360.95725,0.00981
2358.89707,0.01155
2356.83690,0.01130
2354.77673,0.01065
2352.71656,0.01010
2350.65639,0.01080
2348.59621,0.01069
2346.53604,0.00802
2344.47587,0.00841
2342.41570,0.00979
2340.35552,0.01046
2338.29535,0.01089
2336.23518,0.01000
2334.17501,0.00888
2332.11484,0.00834
2330.05466,0.00778
2327.99449,0.00714
2325.93432,0.00787
2323.87415,0.00830
2321.81398,0.00794
2319.75380,0.00724
2317.69363,0.00747
2315.63346,0.00817
2313.57329,0.00922
2311.51312,0.00984
2309.45294,0.00947
2307.39277,0.00900
2305.33260,0.00880
2303.27243,0.00830
2301.21225,0.00764
2299.15208,0.00780
2297.09191,0.00860
2295.03174,0.00907
2292.97157,0.00899
2290.91139,0.00876
2288.85122,0.00853
2286.79105,0.00837
2284.73088,0.00839
2282.67071,0.00855
2280.61053,0.00852
2278.55036,0.00827
2276.49019,0.00807
2274.43002,0.00817
2272.36984,0.00867
2270.30967,0.00913
2268.24950,0.00905
2266.18933,0.00867
2264.12916,0.00834
2262.06898,0.00817
2260.00881,0.00852
2257.94864,0.00925
2255.88847,0.00931
2253.82830,0.00847
2251.76812,0.00792
2249.70795,0.00811
2247.64778,0.00830
2245.58761,0.00824
2243.52744,0.00852
2241.46726,0.00871
2239.40709,0.00848
2237.34692,0.00846
2235.28675,0.00845
2233.22657,0.00883
2231.16640,0.00963
2229.10623,0.00882
2227.04606,0.00634
2224.98589,0.00520
2222.92571,0.00585
2220.86554,0.00608
2218.80537,0.00599
2216.74520,0.00734
2214.68503,0.00935
2212.62485,0.00974
2210.56468,0.00884
2208.50451,0.00823
2206.44434,0.00828
2204.38417,0.00836
2202.32399,0.00750
2200.26382,0.00680
2198.20365,0.00716
2196.14348,0.00731
2194.08330,0.00796
2192.02313,0.01003
2189.96296,0.01145
2187.90279,0.00991
2185.84262,0.00676
2183.78244,0.00544
2181.72227,0.00629
2179.66210,0.00684
2177.60193,0.00682
2175.54176,0.00838
2173.48158,0.01077
2171.42141,0.01071
2169.36124,0.00829
2167.30107,0.00721
2165.24089,0.00801
2163.18072,0.00857
2161.12055,0.00881
2159.06038,0.00835
2157.00021,0.00725
2154.94003,0.00653
2152.87986,0.00643
2150.81969,0.00704
2148.75952,0.00701
2146.69935,0.00523
2144.63917,0.00403
2142.57900,0.00483
2140.51883,0.00597
2138.45866,0.00673
2136.39849,0.00678
2134.33831,0.00584
2132.27814,0.00509
2130.21797,0.00524
2128.15780,0.00539
2126.09762,0.00527
2124.03745,0.00569
2121.97728,0.00652
2119.91711,0.00668
2117.85694,0.00623
2115.79676,0.00616
2113.73659,0.00635
2111.67642,0.00660
2109.61625,0.00726
2107.55608,0.00758
2105.49590,0.00653
2103.43573,0.00566
2101.37556,0.00661
2099.31539,0.00787
2097.25521,0.00828
2095.19504,0.00828
2093.13487,0.00799
2091.07470,0.00752
2089.01453,0.00751
2086.95435,0.00799
2084.89418,0.00809
2082.83401,0.00768
2080.77384,0.00756
2078.71367,0.00732
2076.65349,0.00666
2074.59332,0.00672
2072.53315,0.00673
2070.47298,0.00594
2068.41281,0.00607
2066.35263,0.00775
2064.29246,0.00926
2062.23229,0.00935
2060.17212,0.00837
2058.11194,0.00749
2056.05177,0.00768
2053.99160,0.00834
2051.93143,0.00850
2049.87126,0.00826
2047.81108,0.00803
2045.75091,0.00729
2043.69074,0.00535
2041.63057,0.00325
2039.57040,0.00222
2037.51022,0.00194
2035.45005,0.00231
2033.38988,0.00358
2031.32971,0.00464
2029.26954,0.00549
2027.20936,0.00689
2025.14919,0.00724
2023.08902,0.00617
2021.02885,0.00543
2018.96867,0.00558
2016.90850,0.00671
2014.84833,0.00804
2012.78816,0.00818
2010.72799,0.00761
2008.66781,0.00710
2006.60764,0.00713
2004.54747,0.00775
2002.48730,0.00792
2000.42713,0.00758
1998.36695,0.00765
1996.30678,0.00784
1994.24661,0.00764
1992.18644,0.00746
1990.12626,0.00798
1988.06609,0.00867
1986.00592,0.00845
1983.94575,0.00825
1981.88558,0.00881
1979.82540,0.00819
1977.76523,0.00573
1975.70506,0.00375
1973.64489,0.00376
1971.58472,0.00501
1969.52454,0.00657
1967.46437,0.00765
1965.40420,0.00842
1963.34403,0.00957
1961.28386,0.00981
1959.22368,0.00870
1957.16351,0.00794
1955.10334,0.00789
1953.04317,0.00737
1950.98299,0.00632
1948.92282,0.00608
1946.86265,0.00647
1944.80248,0.00608
1942.74231,0.00557
1940.68213,0.00603
1938.62196,0.00656
1936.56179,0.00657
1934.50162,0.00629
1932.44145,0.00626
1930.38127,0.00677
1928.32110,0.00690
1926.26093,0.00637
1924.20076,0.00625
1922.14059,0.00665
1920.08041,0.00657
1918.02024,0.00624
1915.96007,0.00669
1913.89990,0.00760
1911.83972,0.00796
1909.77955,0.00777
1907.71938,0.00769
1905.65921,0.00776
1903.59904,0.00776
1901.53886,0.00789
1899.47869,0.00802
1897.41852,0.00776
1895.35835,0.00737
1893.29818,0.00729
1891.23800,0.00753
1889.17783,0.00770
1887.11766,0.00754
1885.05749,0.00727
1882.99731,0.00730
1880.93714,0.00768
1878.87697,0.00795
1876.81680,0.00756
1874.75663,0.00676
1872.69645,0.00628
1870.63628,0.00604
1868.57611,0.00546
1866.51594,0.00502
1864.45577,0.00535
1862.39559,0.00612
1860.33542,0.00670
1858.27525,0.00672
1856.21508,0.00639
1854.15491,0.00623
1852.09473,0.00655
1850.03456,0.00702
1847.97439,0.00711
1845.91422,0.00710
1843.85404,0.00758
1841.79387,0.00816
1839.73370,0.00824
1837.67353,0.00783
1835.61336,0.00709
1833.55318,0.00657
1831.49301,0.00687
1829.43284,0.00757
1827.37267,0.00786
1825.31250,0.00779
1823.25232,0.00757
1821.19215,0.00727
1819.13198,0.00701
1817.07181,0.00688
1815.01163,0.00706
1812.95146,0.00743
1810.89129,0.00764
1808.83112,0.00760
1806.77095,0.00745
1804.71077,0.00733
1802.65060,0.00727
1800.59043,0.00724
1798.53026,0.00722
1796.47009,0.00718
1794.40991,0.00711
1792.34974,0.00717
1790.28957,0.00734
1788.22940,0.00743
1786.16923,0.00745
1784.10905,0.00746
1782.04888,0.00746
1779.98871,0.00751
1777.92854,0.00760
1775.86836,0.00761
1773.80819,0.00745
1771.74802,0.00716
1769.68785,0.00703
1767.62768,0.00712
1765.56750,0.00727
1763.50733,0.00744
1761.44716,0.00767
1759.38699,0.00778
1757.32682,0.00777
1755.26664,0.00788
1753.20647,0.00817
1751.14630,0.00858
1749.08613,0.00888
1747.02596,0.00870
1744.96578,0.00806
1742.90561,0.00755
1740.84544,0.00761
1738.78527,0.00792
1736.72509,0.00815
1734.66492,0.00829
1732.60475,0.00844
1730.54458,0.00866
1728.48441,0.00880
1726.42423,0.00861
1724.36406,0.00818
1722.30389,0.00778
1720.24372,0.00751
1718.18355,0.00749
1716.12337,0.00793
1714.06320,0.00852
1712.00303,0.00882
1709.94286,0.00890
1707.88268,0.00879
1705.82251,0.00850
1703.76234,0.00840
1701.70217,0.00870
1699.64200,0.00918
1697.58182,0.00954
1695.52165,0.00962
1693.46148,0.00954
1691.40131,0.00954
1689.34114,0.00965
1687.28096,0.00972
1685.22079,0.00993
1683.16062,0.01064
1681.10045,0.01141
1679.04028,0.01184
1676.98010,0.01185
1674.91993,0.01163
1672.85976,0.01167
1670.79959,0.01204
1668.73941,0.01243
1666.67924,0.01267
1664.61907,0.01292
1662.55890,0.01345
1660.49873,0.01399
1658.43855,0.01397
1656.37838,0.01331
1654.31821,0.01258
1652.25804,0.01274
1650.19787,0.01349
1648.13769,0.01406
1646.07752,0.01433
1644.01735,0.01428
1641.95718,0.01409
1639.89701,0.01378
1637.83683,0.01333
1635.77666,0.01292
1633.71649,0.01266
1631.65632,0.01263
1629.59614,0.01286
1627.53597,0.01298
1625.47580,0.01264
1623.41563,0.01207
1621.35546,0.01188
1619.29528,0.01207
1617.23511,0.01209
1615.17494,0.01178
1613.11477,0.01148
1611.05460,0.01136
1608.99442,0.01143
1606.93425,0.01162
1604.87408,0.01175
1602.81391,0.01175
1600.75373,0.01171
1598.69356,0.01162
1596.63339,0.01148
1594.57322,0.01143
1592.51305,0.01138
1590.45287,0.01118
1588.39270,0.01096
1586.33253,0.01091
1584.27236,0.01091
1582.21219,0.01087
1580.15201,0.01087
1578.09184,0.01089
1576.03167,0.01085
1573.97150,0.01079
1571.91133,0.01070
1569.85115,0.01064
1567.79098,0.01074
1565.73081,0.01087
1563.67064,0.01084
1561.61046,0.01060
1559.55029,0.01020
1557.49012,0.00997
1555.42995,0.01019
1553.36978,0.01064
1551.30960,0.01100
1549.24943,0.01109
1547.18926,0.01096
1545.12909,0.01069
1543.06892,0.01033
1541.00874,0.01009
1538.94857,0.01003
1536.88840,0.01001
1534.82823,0.01006
1532.76805,0.01031
1530.70788,0.01055
1528.64771,0.01043
1526.58754,0.01000
1524.52737,0.00955
1522.46719,0.00920
1520.40702,0.00898
1518.34685,0.00879
1516.28668,0.00883
1514.22651,0.00923
1512.16633,0.00954
1510.10616,0.00947
1508.04599,0.00925
1505.98582,0.00908
1503.92565,0.00898
1501.86547,0.00893
1499.80530,0.00882
1497.74513,0.00870
1495.68496,0.00881
1493.62478,0.00907
1491.56461,0.00913
1489.50444,0.00900
1487.44427,0.00903
1485.38410,0.00916
1483.32392,0.00920
1481.26375,0.00931
1479.20358,0.00954
1477.14341,0.00962
1475.08324,0.00941
1473.02306,0.00913
1470.96289,0.00919
1468.90272,0.00947
1466.84255,0.00958
1464.78238,0.00962
1462.72220,0.00967
1460.66203,0.00945
1458.60186,0.00898
1456.54169,0.00886
1454.48151,0.00925
1452.42134,0.00960
1450.36117,0.00970
1448.30100,0.00968
1446.24083,0.00977
1444.18065,0.00987
1442.12048,0.00980
1440.06031,0.00972
1438.00014,0.00976
1435.93997,0.00971
1433.87979,0.00949
1431.81962,0.00931
1429.75945,0.00934
1427.69928,0.00957
1425.63910,0.00979
1423.57893,0.00982
1421.51876,0.00969
1419.45859,0.00948
1417.39842,0.00943
1415.33824,0.00960
1413.27807,0.00975
1411.21790,0.00977
1409.15773,0.00986
1407.09756,0.01005
1405.03738,0.01011
1402.97721,0.00998
1400.91704,0.00981
1398.85687,0.00961
1396.79670,0.00942
1394.73652,0.00928
1392.67635,0.00927
1390.61618,0.00937
1388.55601,0.00948
1386.49583,0.00959
1384.43566,0.00971
1382.37549,0.00985
1380.31532,0.00991
1378.25515,0.00977
1376.19497,0.00952
1374.13480,0.00939
1372.07463,0.00945
1370.01446,0.00956
1367.95429,0.00958
1365.89411,0.00948
1363.83394,0.00930
1361.77377,0.00923
1359.71360,0.00928
1357.65343,0.00931
1355.59325,0.00936
1353.53308,0.00952
1351.47291,0.00963
1349.41274,0.00954
1347.35256,0.00934
1345.29239,0.00917
1343.23222,0.00903
1341.17205,0.00897
1339.11188,0.00904
1337.05170,0.00923
1334.99153,0.00932
1332.93136,0.00927
1330.87119,0.00931
1328.81102,0.00953
1326.75084,0.00981
1324.69067,0.00989
1322.63050,0.00974
1320.57033,0.00967
1318.51015,0.00978
1316.44998,0.00974
1314.38981,0.00950
1312.32964,0.00943
1310.26947,0.00963
1308.20929,0.00987
1306.14912,0.00997
1304.08895,0.00993
1302.02878,0.00994
1299.96861,0.01007
1297.90843,0.01021
1295.84826,0.01029
1293.78809,0.01032
1291.72792,0.01029
1289.66775,0.01018
1287.60757,0.01001
1285.54740,0.00992
1283.48723,0.01010
1281.42706,0.01040
1279.36688,0.01050
1277.30671,0.01030
1275.24654,0.01009
1273.18637,0.01020
1271.12620,0.01037
1269.06602,0.01031
1267.00585,0.01022
1264.94568,0.01021
1262.88551,0.01022
1260.82534,0.01027
1258.76516,0.01025
1256.70499,0.01011
1254.64482,0.01006
1252.58465,0.01024
1250.52447,0.01037
1248.46430,0.01021
1246.40413,0.00995
1244.34396,0.00985
1242.28379,0.00995
1240.22361,0.00999
1238.16344,0.00995
1236.10327,0.00997
1234.04310,0.01005
1231.98293,0.01003
1229.92275,0.00992
1227.86258,0.00981
1225.80241,0.00971
1223.74224,0.00968
1221.68207,0.00969
1219.62189,0.00964
1217.56172,0.00952
1215.50155,0.00927
1213.44138,0.00903
1211.38120,0.00899
1209.32103,0.00916
1207.26086,0.00927
1205.20069,0.00910
1203.14052,0.00892
1201.08034,0.00896
1199.02017,0.00902
1196.96000,0.00888
1194.89983,0.00860
1192.83966,0.00857
1190.77948,0.00895
1188.71931,0.00931
1186.65914,0.00933
1184.59897,0.00922
1182.53880,0.00927
1180.47862,0.00936
1178.41845,0.00920
1176.35828,0.00899
1174.29811,0.00913
1172.23793,0.00943
1170.17776,0.00946
1168.11759,0.00939
1166.05742,0.00952
1163.99725,0.00975
1161.93707,0.00982
1159.87690,0.00981
1157.81673,0.00984
1155.75656,0.00995
1153.69639,0.01026
1151.63621,0.01073
1149.57604,0.01100
1147.51587,0.01109
1145.45570,0.01138
1143.39552,0.01175
1141.33535,0.01198
1139.27518,0.01217
1137.21501,0.01233
1135.15484,0.01258
1133.09466,0.01309
1131.03449,0.01354
1128.97432,0.01360
1126.91415,0.01348
1124.85398,0.01367
1122.79380,0.01403
1120.73363,0.01423
1118.67346,0.01451
1116.61329,0.01510
1114.55312,0.01574
1112.49294,0.01604
1110.43277,0.01623
1108.37260,0.01658
1106.31243,0.01701
1104.25225,0.01744
1102.19208,0.01769
1100.13191,0.01773
1098.07174,0.01788
1096.01157,0.01839
1093.95139,0.01893
1091.89122,0.01910
1089.83105,0.01913
1087.77088,0.01931
1085.71071,0.01957
1083.65053,0.01996
1081.59036,0.02045
1079.53019,0.02061
1077.47002,0.02055
1075.40985,0.02060
1073.34967,0.02071
1071.28950,0.02087
1069.22933,0.02101
1067.16916,0.02114
1065.10898,0.02133
1063.04881,0.02154
1060.98864,0.02177
1058.92847,0.02187
1056.86830,0.02171
1054.80812,0.02135
1052.74795,0.02108
1050.68778,0.02108
1048.62761,0.02101
1046.56744,0.02062
1044.50726,0.02027
1042.44709,0.02003
1040.38692,0.01960
1038.32675,0.01916
1036.26657,0.01888
1034.20640,0.01844
1032.14623,0.01795
1030.08606,0.01761
1028.02589,0.01724
1025.96571,0.01689
1023.90554,0.01665
1021.84537,0.01640
1019.78520,0.01607
1017.72503,0.01579
1015.66485,0.01570
1013.60468,0.01567
1011.54451,0.01549
1009.48434,0.01532
1007.42417,0.01536
1005.36399,0.01549
1003.30382,0.01574
1001.24365,0.01618
999.18348,0.01664
997.12330,0.01665
995.06313,0.01629
993.00296,0.01629
990.94279,0.01660
988.88262,0.01695
986.82244,0.01745
984.76227,0.01791
982.70210,0.01813
980.64193,0.01821
978.58176,0.01820
976.52158,0.01801
974.46141,0.01766
972.40124,0.01737
970.34107,0.01707
968.28089,0.01685
966.22072,0.01712
964.16055,0.01749
962.10038,0.01748
960.04021,0.01704
957.98003,0.01636
955.91986,0.01570
953.85969,0.01532
951.79952,0.01535
949.73935,0.01551
947.67917,0.01542
945.61900,0.01495
943.55883,0.01418
941.49866,0.01367
939.43849,0.01359
937.37831,0.01353
935.31814,0.01350
933.25797,0.01348
931.19780,0.01330
929.13762,0.01305
927.07745,0.01274
925.01728,0.01239
922.95711,0.01205
920.89694,0.01166
918.83676,0.01161
916.77659,0.01220
914.71642,0.01262
912.65625,0.01244
910.59608,0.01221
908.53590,0.01212
906.47573,0.01187
904.41556,0.01153
902.35539,0.01158
900.29522,0.01160
898.23504,0.01141
896.17487,0.01178
894.11470,0.01263
892.05453,0.01315
889.99435,0.01305
887.93418,0.01288
885.87401,0.01288
883.81384,0.01298
881.75367,0.01312
879.69349,0.01286
877.63332,0.01240
875.57315,0.01271
873.51298,0.01357
871.45281,0.01379
869.39263,0.01353
867.33246,0.01387
865.27229,0.01461
863.21212,0.01486
861.15194,0.01483
859.09177,0.01492
857.03160,0.01493
854.97143,0.01493
852.91126,0.01502
850.85108,0.01495
848.79091,0.01483
846.73074,0.01480
844.67057,0.01472
842.61040,0.01484
840.55022,0.01506
838.49005,0.01448
836.42988,0.01349
834.36971,0.01330
832.30954,0.01376
830.24936,0.01395
828.18919,0.01382
826.12902,0.01377
824.06885,0.01372
822.00867,0.01348
819.94850,0.01326
817.88833,0.01313
815.82816,0.01289
813.76799,0.01281
811.70781,0.01302
809.64764,0.01321
807.58747,0.01320
805.52730,0.01308
803.46713,0.01306
801.40695,0.01301
799.34678,0.01284
797.28661,0.01295
795.22644,0.01339
793.16627,0.01352
791.10609,0.01281
789.04592,0.01221
786.98575,0.01284
784.92558,0.01377
782.86540,0.01361
780.80523,0.01276
778.74506,0.01228
776.68489,0.01241
774.62472,0.01275
772.56454,0.01289
770.50437,0.01291
768.44420,0.01291
766.38403,0.01309
764.32386,0.01376
762.26368,0.01409
760.20351,0.01369
758.14334,0.01328
756.08317,0.01339
754.02299,0.01399
751.96282,0.01424
749.90265,0.01350
747.84248,0.01271
745.78231,0.01315
743.72213,0.01368
741.66196,0.01323
739.60179,0.01288
737.54162,0.01276
735.48145,0.01241
733.42127,0.01233
731.36110,0.01261
729.30093,0.01277
727.24076,0.01319
725.18059,0.01397
723.12041,0.01415
721.06024,0.01321
719.00007,0.01269
716.93990,0.01242
714.87972,0.01186
712.81955,0.01163
710.75938,0.01234
708.69921,0.01370
706.63904,0.01485
704.57886,0.01486
702.51869,0.01381
700.45852,0.01334
698.39835,0.01409
696.33818,0.01471
694.27800,0.01456
692.21783,0.01427
690.15766,0.01456
688.09749,0.01575
686.03731,0.01695
683.97714,0.01643
681.91697,0.01461
679.85680,0.01380
677.79663,0.01427
675.73645,0.01477
673.67628,0.01574
671.61611,0.01695
669.55594,0.01376
667.49577,0.01094
665.43559,0.01617
663.37542,0.01533
661.31525,0.01446
659.25508,0.01487
657.19491,0.01403
655.13473,0.01212
653.07456,0.01140
651.01439,0.01297
648.95422,0.01556
646.89404,0.01676
644.83387,0.01609
642.77370,0.01561
640.71353,0.01535
638.65336,0.01458
636.59318,0.01381
634.53301,0.01417
632.47284,0.01537
630.41267,0.01514
628.35250,0.01384
626.29232,0.01452
624.23215,0.01675
622.17198,0.01736
620.11181,0.01699
618.05164,0.01776
615.99146,0.01777
613.93129,0.01624
611.87112,0.01497
609.81095,0.01490
607.75077,0.01743
605.69060,0.01907
603.63043,0.01560
601.57026,0.01237
599.51009,0.01406
