3996.73391,-0.00054
3994.67373,-0.00078
3992.61356,-0.00067
3990.55339,-0.00017
3988.49322,0.00019
3986.43305,0.00022
3984.37287,0.00017
3982.31270,0.00020
3980.25253,0.00025
3978.19236,0.00026
3976.13219,0.00016
3974.07201,0.00010
3972.01184,0.00021
3969.95167,0.00036
3967.89150,0.00061
3965.83133,0.00085
3963.77115,0.00078
3961.71098,0.00055
3959.65081,0.00049
3957.59064,0.00060
3955.53046,0.00084
3953.47029,0.00119
3951.41012,0.00113
3949.34995,0.00045
3947.28978,0.00000
3945.22960,0.00031
3943.16943,0.00067
3941.10926,0.00068
3939.04909,0.00074
3936.98892,0.00084
3934.92874,0.00068
3932.86857,0.00043
3930.80840,0.00066
3928.74823,0.00122
3926.68805,0.00152
3924.62788,0.00137
3922.56771,0.00088
3920.50754,0.00041
3918.44737,0.00027
3916.38719,0.00085
3914.32702,0.00184
3912.26685,0.00236
3910.20668,0.00227
3908.14651,0.00189
3906.08633,0.00134
3904.02616,0.00068
3901.96599,0.00055
3899.90582,0.00124
3897.84565,0.00176
3895.78547,0.00169
3893.72530,0.00138
3891.66513,0.00108
3889.60496,0.00098
3887.54478,0.00095
3885.48461,0.00080
3883.42444,0.00051
3881.36427,0.00037
3879.30410,0.00060
3877.24392,0.00099
3875.18375,0.00126
3873.12358,0.00131
3871.06341,0.00110
3869.00324,0.00091
3866.94306,0.00083
3864.88289,0.00076
3862.82272,0.00078
3860.76255,0.00080
3858.70237,0.00054
3856.64220,0.00000
3854.58203,0.00007
3852.52186,0.00113
3850.46169,0.00215
3848.40151,0.00212
3846.34134,0.00184
3844.28117,0.00182
3842.22100,0.00169
3840.16083,0.00120
3838.10065,0.00078
3836.04048,0.00105
3833.98031,0.00170
3831.92014,0.00229
3829.85997,0.00285
3827.79979,0.00312
3825.73962,0.00289
3823.67945,0.00252
3821.61928,0.00242
3819.55910,0.00224
3817.49893,0.00221
3815.43876,0.00266
3813.37859,0.00315
3811.31842,0.00315
3809.25824,0.00300
3807.19807,0.00296
3805.13790,0.00302
3803.07773,0.00333
3801.01756,0.00380
3798.95738,0.00411
3796.89721,0.00432
3794.83704,0.00472
3792.77687,0.00506
3790.71670,0.00510
3788.65652,0.00509
3786.59635,0.00524
3784.53618,0.00538
3782.47601,0.00556
3780.41583,0.00594
3778.35566,0.00619
3776.29549,0.00612
3774.23532,0.00592
3772.17515,0.00567
3770.11497,0.00528
3768.05480,0.00482
3765.99463,0.00457
3763.93446,0.00460
3761.87429,0.00461
3759.81411,0.00417
3757.75394,0.00330
3755.69377,0.00267
3753.63360,0.00237
3751.57342,0.00178
3749.51325,0.00080
3747.45308,0.00023
3745.39291,0.00000
3743.33274,0.00070
3741.27256,0.00172
3739.21239,0.00210
3737.15222,0.00229
3735.09205,0.00241
3733.03188,0.00268
3730.97170,0.00327
3728.91153,0.00374
3726.85136,0.00382
3724.79119,0.00363
3722.73102,0.00350
3720.67084,0.00380
3718.61067,0.00403
3716.55050,0.00391
3714.49033,0.00394
3712.43015,0.00450
3710.36998,0.00509
3708.30981,0.00547
3706.24964,0.00597
3704.18947,0.00641
3702.12929,0.00652
3700.06912,0.00639
3698.00895,0.00632
3695.94878,0.00645
3693.88861,0.00673
3691.82843,0.00706
3689.76826,0.00694
3687.70809,0.00658
3685.64792,0.00653
3683.58775,0.00650
3681.52757,0.00626
3679.46740,0.00595
3677.40723,0.00579
3675.34706,0.00587
3673.28688,0.00585
3671.22671,0.00587
3669.16654,0.00626
3667.10637,0.00665
3665.04620,0.00682
3662.98602,0.00697
3660.92585,0.00705
3658.86568,0.00705
3656.80551,0.00710
3654.74534,0.00726
3652.68516,0.00762
3650.62499,0.00805
3648.56482,0.00815
3646.50465,0.00839
3644.44447,0.00842
3642.38430,0.00840
3640.32413,0.00865
3638.26396,0.00895
3636.20379,0.00907
3634.14361,0.00908
3632.08344,0.00922
3630.02327,0.00960
3627.96310,0.01003
3625.90293,0.01027
3623.84275,0.01039
3621.78258,0.01055
3619.72241,0.01060
3617.66224,0.01039
3615.60207,0.01002
3613.54189,0.00970
3611.48172,0.00956
3609.42155,0.01000
3607.36138,0.01094
3605.30120,0.01195
3603.24103,0.01291
3601.18086,0.01362
3599.12069,0.01390
3597.06052,0.01389
3595.00034,0.01394
3592.94017,0.01418
3590.88000,0.01470
3588.81983,0.01496
3586.75966,0.01484
3584.69948,0.01502
3582.63931,0.01561
3580.57914,0.01620
3578.51897,0.01666
3576.45879,0.01700
3574.39862,0.01722
3572.33845,0.01747
3570.27828,0.01782
3568.21811,0.01793
3566.15793,0.01785
3564.09776,0.01807
3562.03759,0.01839
3559.97742,0.01870
3557.91725,0.01920
3555.85707,0.01978
3553.79690,0.02015
3551.73673,0.02015
3549.67656,0.01988
3547.61639,0.01949
3545.55621,0.01946
3543.49604,0.02011
3541.43587,0.02108
3539.37570,0.02199
3537.31552,0.02265
3535.25535,0.02292
3533.19518,0.02299
3531.13501,0.02300
3529.07484,0.02285
3527.01466,0.02256
3524.95449,0.02257
3522.89432,0.02313
3520.83415,0.02406
3518.77398,0.02496
3516.71380,0.02551
3514.65363,0.02582
3512.59346,0.02610
3510.53329,0.02626
3508.47312,0.02624
3506.41294,0.02615
3504.35277,0.02603
3502.29260,0.02607
3500.23243,0.02664
3498.17225,0.02748
3496.11208,0.02789
3494.05191,0.02788
3491.99174,0.02805
3489.93157,0.02851
3487.87139,0.02878
3485.81122,0.02865
3483.75105,0.02859
3481.69088,0.02877
3479.63071,0.02909
3477.57053,0.02961
3475.51036,0.03013
3473.45019,0.03032
3471.39002,0.03035
3469.32984,0.03051
3467.26967,0.03082
3465.20950,0.03113
3463.14933,0.03140
3461.08916,0.03160
3459.02898,0.03170
3456.96881,0.03176
3454.90864,0.03197
3452.84847,0.03244
3450.78830,0.03291
3448.72812,0.03301
3446.66795,0.03277
3444.60778,0.03260
3442.54761,0.03279
3440.48744,0.03315
3438.42726,0.03341
3436.36709,0.03351
3434.30692,0.03365
3432.24675,0.03387
3430.18657,0.03404
3428.12640,0.03412
3426.06623,0.03414
3424.00606,0.03423
3421.94589,0.03448
3419.88571,0.03479
3417.82554,0.03510
3415.76537,0.03540
3413.70520,0.03566
3411.64503,0.03578
3409.58485,0.03566
3407.52468,0.03555
3405.46451,0.03576
3403.40434,0.03610
3401.34416,0.03625
3399.28399,0.03546
3397.22382,0.03558
3395.16365,0.03574
3393.10348,0.03574
3391.04330,0.03595
3388.98313,0.03647
3386.92296,0.03688
3384.86279,0.03697
3382.80262,0.03705
3380.74244,0.03729
3378.68227,0.03766
3376.62210,0.03797
3374.56193,0.03809
3372.50176,0.03800
3370.44158,0.03783
3368.38141,0.03770
3366.32124,0.03769
3364.26107,0.03792
3362.20089,0.03819
3360.14072,0.03825
3358.08055,0.03831
3356.02038,0.03852
3353.96021,0.03868
3351.90003,0.03870
3349.83986,0.03876
3347.77969,0.03895
3345.71952,0.03906
3343.65935,0.03899
3341.59917,0.03886
3339.53900,0.03872
3337.47883,0.03872
3335.41866,0.03899
3333.35849,0.03937
3331.29831,0.03967
3329.23814,0.03982
3327.17797,0.03980
3325.11780,0.03974
3323.05762,0.03982
3320.99745,0.03998
3318.93728,0.04009
3316.87711,0.04001
3314.81694,0.03967
3312.75676,0.03929
3310.69659,0.03933
3308.63642,0.03973
3306.57625,0.04002
3304.51608,0.04014
3302.45590,0.04027
3300.39573,0.04032
3298.33556,0.04027
3296.27539,0.04023
3294.21521,0.04025
3292.15504,0.04038
3290.09487,0.04063
3288.03470,0.04089
3285.97453,0.04096
3283.91435,0.04087
3281.85418,0.04080
3279.79401,0.04067
3277.73384,0.04043
3275.67367,0.04034
3273.61349,0.04045
3271.55332,0.04063
3269.49315,0.04087
3267.43298,0.04111
3265.37281,0.04122
3263.31263,0.04117
3261.25246,0.04109
3259.19229,0.04117
3257.13212,0.04129
3255.07194,0.04132
3253.01177,0.04132
3250.95160,0.04125
3248.89143,0.04120
3246.83126,0.04130
3244.77108,0.04149
3242.71091,0.04161
3240.65074,0.04152
3238.59057,0.04137
3236.53040,0.04133
3234.47022,0.04143
3232.41005,0.04167
3230.34988,0.04189
3228.28971,0.04196
3226.22954,0.04197
3224.16936,0.04189
3222.10919,0.04163
3220.04902,0.04145
3217.98885,0.04155
3215.92867,0.04165
3213.86850,0.04156
3211.80833,0.04147
3209.74816,0.04141
3207.68799,0.04142
3205.62781,0.04158
3203.56764,0.04165
3201.50747,0.04152
3199.44730,0.04143
3197.38713,0.04151
3195.32695,0.04171
3193.26678,0.04177
3191.20661,0.04162
3189.14644,0.04149
3187.08626,0.04133
3185.02609,0.04117
3182.96592,0.04129
3180.90575,0.04153
3178.84558,0.04159
3176.78540,0.04158
3174.72523,0.04149
3172.66506,0.04124
3170.60489,0.04106
3168.54472,0.04104
3166.48454,0.04108
3164.42437,0.04117
3162.36420,0.04130
3160.30403,0.04139
3158.24386,0.04136
3156.18368,0.04122
3154.12351,0.04101
3152.06334,0.04090
3150.00317,0.04097
3147.94299,0.04104
3145.88282,0.04100
3143.82265,0.04091
3141.76248,0.04080
3139.70231,0.04070
3137.64213,0.04063
3135.58196,0.04053
3133.52179,0.04042
3131.46162,0.04043
3129.40145,0.04049
3127.34127,0.04041
3125.28110,0.04014
3123.22093,0.03969
3121.16076,0.03940
3119.10058,0.03938
3117.04041,0.03938
3114.98024,0.03934
3112.92007,0.03936
3110.85990,0.03943
3108.79972,0.03945
3106.73955,0.03929
3104.67938,0.03892
3102.61921,0.03856
3100.55904,0.03850
3098.49886,0.03865
3096.43869,0.03863
3094.37852,0.03847
3092.31835,0.03851
3090.25818,0.03870
3088.19800,0.03878
3086.13783,0.03875
3084.07766,0.03860
3082.01749,0.03825
3079.95731,0.03797
3077.89714,0.03801
3075.83697,0.03820
3073.77680,0.03821
3071.71663,0.03802
3069.65645,0.03776
3067.59628,0.03749
3065.53611,0.03741
3063.47594,0.03757
3061.41577,0.03764
3059.35559,0.03742
3057.29542,0.03710
3055.23525,0.03698
3053.17508,0.03702
3051.11491,0.03696
3049.05473,0.03676
3046.99456,0.03660
3044.93439,0.03655
3042.87422,0.03651
3040.81404,0.03644
3038.75387,0.03628
3036.69370,0.03598
3034.63353,0.03561
3032.57336,0.03529
3030.51318,0.03512
3028.45301,0.03511
3026.39284,0.03513
3024.33267,0.03509
3022.27250,0.03500
3020.21232,0.03486
3018.15215,0.03464
3016.09198,0.03432
3014.03181,0.03398
3011.97163,0.03371
3009.91146,0.03367
3007.85129,0.03378
3005.79112,0.03379
3003.73095,0.03369
3001.67077,0.03361
2999.61060,0.03359
2997.55043,0.03328
2995.49026,0.03298
2993.43009,0.03287
2991.36991,0.03295
2989.30974,0.03289
2987.24957,0.03274
2985.18940,0.03276
2983.12923,0.03281
2981.06905,0.03269
2979.00888,0.03251
2976.94871,0.03242
2974.88854,0.03229
2972.82836,0.03210
2970.76819,0.03205
2968.70802,0.03210
2966.64785,0.03214
2964.58768,0.03215
2962.52750,0.03217
2960.46733,0.03223
2958.40716,0.03229
2956.34699,0.03225
2954.28682,0.03209
2952.22664,0.03197
2950.16647,0.03201
2948.10630,0.03201
2946.04613,0.03186
2943.98596,0.03165
2941.92578,0.03144
2939.86561,0.03131
2937.80544,0.03129
2935.74527,0.03134
2933.68509,0.03150
2931.62492,0.03173
2929.56475,0.03185
2927.50458,0.03188
2925.44441,0.03194
2923.38423,0.03212
2921.32406,0.03250
2919.26389,0.03278
2917.20372,0.03276
2915.14355,0.03258
2913.08337,0.03228
2911.02320,0.03186
2908.96303,0.03144
2906.90286,0.03111
2904.84268,0.03082
2902.78251,0.03054
2900.72234,0.03037
2898.66217,0.03031
2896.60200,0.03013
2894.54182,0.02988
2892.48165,0.02975
2890.42148,0.02975
2888.36131,0.02978
2886.30114,0.02975
2884.24096,0.02970
2882.18079,0.02974
2880.12062,0.02972
2878.06045,0.02954
2876.00028,0.02932
2873.94010,0.02916
2871.87993,0.02901
2869.81976,0.02891
2867.75959,0.02890
2865.69941,0.02890
2863.63924,0.02888
2861.57907,0.02893
2859.51890,0.02894
2857.45873,0.02890
2855.39855,0.02898
2853.33838,0.02914
2851.27821,0.02932
2849.21804,0.02947
2847.15787,0.02940
2845.09769,0.02900
2843.03752,0.02844
2840.97735,0.02792
2838.91718,0.02759
2836.85700,0.02743
2834.79683,0.02734
2832.73666,0.02721
2830.67649,0.02706
2828.61632,0.02687
2826.55614,0.02673
2824.49597,0.02679
2822.43580,0.02682
2820.37563,0.02661
2818.31546,0.02643
2816.25528,0.02649
2814.19511,0.02660
2812.13494,0.02657
2810.07477,0.02635
2808.01460,0.02608
2805.95442,0.02589
2803.89425,0.02577
2801.83408,0.02569
2799.77391,0.02566
2797.71373,0.02558
2795.65356,0.02542
2793.59339,0.02532
2791.53322,0.02530
2789.47305,0.02527
2787.41287,0.02520
2785.35270,0.02509
2783.29253,0.02502
2781.23236,0.02503
2779.17219,0.02501
2777.11201,0.02497
2775.05184,0.02489
2772.99167,0.02465
2770.93150,0.02432
2768.87133,0.02417
2766.81115,0.02417
2764.75098,0.02412
2762.69081,0.02400
2760.63064,0.02382
2758.57046,0.02359
2756.51029,0.02350
2754.45012,0.02360
2752.38995,0.02371
2750.32978,0.02364
2748.26960,0.02345
2746.20943,0.02329
2744.14926,0.02316
2742.08909,0.02307
2740.02892,0.02308
2737.96874,0.02316
2735.90857,0.02315
2733.84840,0.02294
2731.78823,0.02268
2729.72805,0.02259
2727.66788,0.02259
2725.60771,0.02249
2723.54754,0.02236
2721.48737,0.02229
2719.42719,0.02225
2717.36702,0.02217
2715.30685,0.02209
2713.24668,0.02200
2711.18651,0.02193
2709.12633,0.02189
2707.06616,0.02174
2705.00599,0.02159
2702.94582,0.02162
2700.88565,0.02164
2698.82547,0.02149
2696.76530,0.02128
2694.70513,0.02120
2692.64496,0.02119
2690.58478,0.02115
2688.52461,0.02108
2686.46444,0.02101
2684.40427,0.02093
2682.34410,0.02087
2680.28392,0.02088
2678.22375,0.02091
2676.16358,0.02084
2674.10341,0.02074
2672.04324,0.02061
2669.98306,0.02041
2667.92289,0.02033
2665.86272,0.02040
2663.80255,0.02040
2661.74238,0.02026
2659.68220,0.02017
2657.62203,0.02014
2655.56186,0.02007
2653.50169,0.02005
2651.44151,0.02000
2649.38134,0.01979
2647.32117,0.01959
2645.26100,0.01958
2643.20083,0.01959
2641.14065,0.01943
2639.08048,0.01925
2637.02031,0.01927
2634.96014,0.01937
2632.89997,0.01937
2630.83979,0.01931
2628.77962,0.01913
2626.71945,0.01897
2624.65928,0.01905
2622.59910,0.01904
2620.53893,0.01876
2618.47876,0.01865
2616.41859,0.01882
2614.35842,0.01899
2612.29824,0.01901
2610.23807,0.01887
2608.17790,0.01869
2606.11773,0.01859
2604.05756,0.01861
2601.99738,0.01880
2599.93721,0.01894
2597.87704,0.01874
2595.81687,0.01841
2593.75670,0.01829
2591.69652,0.01836
2589.63635,0.01843
2587.57618,0.01837
2585.51601,0.01819
2583.45583,0.01809
2581.39566,0.01811
2579.33549,0.01813
2577.27532,0.01809
2575.21515,0.01798
2573.15497,0.01788
2571.09480,0.01790
2569.03463,0.01804
2566.97446,0.01819
2564.91429,0.01816
2562.85411,0.01806
2560.79394,0.01816
2558.73377,0.01832
2556.67360,0.01833
2554.61342,0.01833
2552.55325,0.01837
2550.49308,0.01839
2548.43291,0.01840
2546.37274,0.01836
2544.31256,0.01823
2542.25239,0.01811
2540.19222,0.01803
2538.13205,0.01804
2536.07188,0.01816
2534.01170,0.01830
2531.95153,0.01835
2529.89136,0.01836
2527.83119,0.01841
2525.77102,0.01844
2523.71084,0.01843
2521.65067,0.01837
2519.59050,0.01824
2517.53033,0.01819
2515.47015,0.01838
2513.40998,0.01854
2511.34981,0.01854
2509.28964,0.01861
2507.22947,0.01875
2505.16929,0.01879
2503.10912,0.01866
2501.04895,0.01849
2498.98878,0.01837
2496.92861,0.01841
2494.86843,0.01876
2492.80826,0.01918
2490.74809,0.01938
2488.68792,0.01921
2486.62775,0.01900
2484.56757,0.01914
2482.50740,0.01932
2480.44723,0.01923
2478.38706,0.01917
2476.32688,0.01925
2474.26671,0.01942
2472.20654,0.01965
2470.14637,0.01968
2468.08620,0.01956
2466.02602,0.01941
2463.96585,0.01924
2461.90568,0.01926
2459.84551,0.01951
2457.78534,0.01956
2455.72516,0.01942
2453.66499,0.01933
2451.60482,0.01928
2449.54465,0.01932
2447.48447,0.01955
2445.42430,0.01987
2443.36413,0.02001
2441.30396,0.01994
2439.24379,0.01990
2437.18361,0.01984
2435.12344,0.01957
2433.06327,0.01940
2431.00310,0.01947
2428.94293,0.01957
2426.88275,0.01972
2424.82258,0.01983
2422.76241,0.01983
2420.70224,0.01981
2418.64207,0.01980
2416.58189,0.01971
2414.52172,0.01962
2412.46155,0.01953
2410.40138,0.01938
2408.34120,0.01934
2406.28103,0.01945
2404.22086,0.01957
2402.16069,0.01966
2400.10052,0.01966
2398.04034,0.01952
2395.98017,0.01965
2393.92000,0.01985
2391.85983,0.01988
2389.79966,0.01985
2387.73948,0.01978
2385.67931,0.01960
2383.61914,0.01923
2381.55897,0.01885
2379.49880,0.01864
2377.43862,0.01856
2375.37845,0.01809
2373.31828,0.01827
2371.25811,0.01934
2369.19793,0.02026
2367.13776,0.02113
2365.07759,0.02191
2363.01742,0.02093
2360.95725,0.02143
2358.89707,0.02077
2356.83690,0.02024
2354.77673,0.01970
2352.71656,0.01988
2350.65639,0.02294
2348.59621,0.02473
2346.53604,0.01934
2344.47587,0.01848
2342.41570,0.02045
2340.35552,0.02186
2338.29535,0.02211
2336.23518,0.02142
2334.17501,0.02083
2332.11484,0.02034
2330.05466,0.02021
2327.99449,0.01941
2325.93432,0.01956
2323.87415,0.01841
2321.81398,0.01771
2319.75380,0.01701
2317.69363,0.01776
2315.63346,0.01773
2313.57329,0.01696
2311.51312,0.01672
2309.45294,0.01681
2307.39277,0.01684
2305.33260,0.01676
2303.27243,0.01690
2301.21225,0.01691
2299.15208,0.01680
2297.09191,0.01666
2295.03174,0.01682
2292.97157,0.01730
2290.91139,0.01761
2288.85122,0.01766
2286.79105,0.01767
2284.73088,0.01768
2282.67071,0.01772
2280.61053,0.01779
2278.55036,0.01776
2276.49019,0.01755
2274.43002,0.01724
2272.36984,0.01688
2270.30967,0.01692
2268.24950,0.01728
2266.18933,0.01739
2264.12916,0.01723
2262.06898,0.01720
2260.00881,0.01721
2257.94864,0.01702
2255.88847,0.01670
2253.82830,0.01661
2251.76812,0.01643
2249.70795,0.01596
2247.64778,0.01613
2245.58761,0.01682
2243.52744,0.01681
2241.46726,0.01627
2239.40709,0.01627
2237.34692,0.01663
2235.28675,0.01660
2233.22657,0.01648
2231.16640,0.01683
2229.10623,0.01716
2227.04606,0.01713
2224.98589,0.01696
2222.92571,0.01617
2220.86554,0.01493
2218.80537,0.01456
2216.74520,0.01524
2214.68503,0.01603
2212.62485,0.01631
2210.56468,0.01600
2208.50451,0.01553
2206.44434,0.01523
2204.38417,0.01528
2202.32399,0.01566
2200.26382,0.01560
2198.20365,0.01491
2196.14348,0.01447
2194.08330,0.01435
2192.02313,0.01447
2189.96296,0.01502
2187.90279,0.01505
2185.84262,0.01449
2183.78244,0.01440
2181.72227,0.01454
2179.66210,0.01470
2177.60193,0.01534
2175.54176,0.01548
2173.48158,0.01461
2171.42141,0.01420
2169.36124,0.01458
2167.30107,0.01484
2165.24089,0.01449
2163.18072,0.01372
2161.12055,0.01297
2159.06038,0.01256
2157.00021,0.01305
2154.94003,0.01427
2152.87986,0.01545
2150.81969,0.01585
2148.75952,0.01505
2146.69935,0.01379
2144.63917,0.01338
2142.57900,0.01384
2140.51883,0.01439
2138.45866,0.01475
2136.39849,0.01449
2134.33831,0.01379
2132.27814,0.01335
2130.21797,0.01331
2128.15780,0.01362
2126.09762,0.01391
2124.03745,0.01388
2121.97728,0.01391
2119.91711,0.01418
2117.85694,0.01407
2115.79676,0.01349
2113.73659,0.01323
2111.67642,0.01330
2109.61625,0.01314
2107.55608,0.01298
2105.49590,0.01306
2103.43573,0.01319
2101.37556,0.01339
2099.31539,0.01407
2097.25521,0.01417
2095.19504,0.01383
2093.13487,0.01324
2091.07470,0.01276
2089.01453,0.01257
2086.95435,0.01273
2084.89418,0.01325
2082.83401,0.01380
2080.77384,0.01425
2078.71367,0.01459
2076.65349,0.01486
2074.59332,0.01498
2072.53315,0.01483
2070.47298,0.01469
2068.41281,0.01468
2066.35263,0.01444
2064.29246,0.01388
2062.23229,0.01327
2060.17212,0.01294
2058.11194,0.01298
2056.05177,0.01313
2053.99160,0.01355
2051.93143,0.01455
2049.87126,0.01574
2047.81108,0.01639
2045.75091,0.01632
2043.69074,0.01568
2041.63057,0.01501
2039.57040,0.01473
2037.51022,0.01429
2035.45005,0.01388
2033.38988,0.01408
2031.32971,0.01391
2029.26954,0.01322
2027.20936,0.01349
2025.14919,0.01473
2023.08902,0.01559
2021.02885,0.01555
2018.96867,0.01494
2016.90850,0.01441
2014.84833,0.01453
2012.78816,0.01488
2010.72799,0.01511
2008.66781,0.01532
2006.60764,0.01486
2004.54747,0.01353
2002.48730,0.01244
2000.42713,0.01228
1998.36695,0.01268
1996.30678,0.01290
1994.24661,0.01287
1992.18644,0.01278
1990.12626,0.01249
1988.06609,0.01223
1986.00592,0.01223
1983.94575,0.01251
1981.88558,0.01345
1979.82540,0.01506
1977.76523,0.01632
1975.70506,0.01632
1973.64489,0.01553
1971.58472,0.01492
1969.52454,0.01449
1967.46437,0.01395
1965.40420,0.01351
1963.34403,0.01323
1961.28386,0.01295
1959.22368,0.01273
1957.16351,0.01252
1955.10334,0.01225
1953.04317,0.01210
1950.98299,0.01220
1948.92282,0.01264
1946.86265,0.01297
1944.80248,0.01281
1942.74231,0.01252
1940.68213,0.01254
1938.62196,0.01278
1936.56179,0.01291
1934.50162,0.01290
1932.44145,0.01288
1930.38127,0.01298
1928.32110,0.01336
1926.26093,0.01360
1924.20076,0.01327
1922.14059,0.01254
1920.08041,0.01205
1918.02024,0.01219
1915.96007,0.01262
1913.89990,0.01309
1911.83972,0.01343
1909.77955,0.01343
1907.71938,0.01308
1905.65921,0.01291
1903.59904,0.01315
1901.53886,0.01333
1899.47869,0.01308
1897.41852,0.01270
1895.35835,0.01241
1893.29818,0.01227
1891.23800,0.01242
1889.17783,0.01260
1887.11766,0.01267
1885.05749,0.01274
1882.99731,0.01278
1880.93714,0.01278
1878.87697,0.01277
1876.81680,0.01279
1874.75663,0.01294
1872.69645,0.01336
1870.63628,0.01386
1868.57611,0.01389
1866.51594,0.01341
1864.45577,0.01299
1862.39559,0.01282
1860.33542,0.01271
1858.27525,0.01271
1856.21508,0.01290
1854.15491,0.01307
1852.09473,0.01306
1850.03456,0.01293
1847.97439,0.01273
1845.91422,0.01232
1843.85404,0.01190
1841.79387,0.01192
1839.73370,0.01232
1837.67353,0.01260
1835.61336,0.01248
1833.55318,0.01247
1831.49301,0.01295
1829.43284,0.01335
1827.37267,0.01332
1825.31250,0.01325
1823.25232,0.01339
1821.19215,0.01357
1819.13198,0.01342
1817.07181,0.01295
1815.01163,0.01262
1812.95146,0.01247
1810.89129,0.01223
1808.83112,0.01200
1806.77095,0.01204
1804.71077,0.01210
1802.65060,0.01192
1800.59043,0.01186
1798.53026,0.01207
1796.47009,0.01229
1794.40991,0.01247
1792.34974,0.01243
1790.28957,0.01206
1788.22940,0.01163
1786.16923,0.01132
1784.10905,0.01141
1782.04888,0.01185
1779.98871,0.01206
1777.92854,0.01201
1775.86836,0.01224
1773.80819,0.01266
1771.74802,0.01245
1769.68785,0.01150
1767.62768,0.01088
1765.56750,0.01107
1763.50733,0.01149
1761.44716,0.01149
1759.38699,0.01124
1757.32682,0.01121
1755.26664,0.01130
1753.20647,0.01136
1751.14630,0.01144
1749.08613,0.01146
1747.02596,0.01134
1744.96578,0.01131
1742.90561,0.01156
1740.84544,0.01182
1738.78527,0.01186
1736.72509,0.01194
1734.66492,0.01197
1732.60475,0.01174
1730.54458,0.01172
1728.48441,0.01186
1726.42423,0.01207
1724.36406,0.01224
1722.30389,0.01248
1720.24372,0.01309
1718.18355,0.01341
1716.12337,0.01249
1714.06320,0.01166
1712.00303,0.01149
1709.94286,0.01182
1707.88268,0.01228
1705.82251,0.01230
1703.76234,0.01203
1701.70217,0.01229
1699.64200,0.01269
1697.58182,0.01266
1695.52165,0.01253
1693.46148,0.01264
1691.40131,0.01304
1689.34114,0.01373
1687.28096,0.01482
1685.22079,0.01597
1683.16062,0.01581
1681.10045,0.01509
1679.04028,0.01522
1676.98010,0.01613
1674.91993,0.01721
1672.85976,0.01809
1670.79959,0.01864
1668.73941,0.01858
1666.67924,0.01837
1664.61907,0.01863
1662.55890,0.01887
1660.49873,0.01857
1658.43855,0.01847
1656.37838,0.01925
1654.31821,0.02009
1652.25804,0.01950
1650.19787,0.01904
1648.13769,0.01925
1646.07752,0.01918
1644.01735,0.01866
1641.95718,0.01858
1639.89701,0.01928
1637.83683,0.02023
1635.77666,0.02022
1633.71649,0.01941
1631.65632,0.01908
1629.59614,0.01925
1627.53597,0.01941
1625.47580,0.01940
1623.41563,0.01918
1621.35546,0.01883
1619.29528,0.01904
1617.23511,0.01953
1615.17494,0.01926
1613.11477,0.01871
1611.05460,0.01858
1608.99442,0.01868
1606.93425,0.01865
1604.87408,0.01860
1602.81391,0.01858
1600.75373,0.01849
1598.69356,0.01848
1596.63339,0.01846
1594.57322,0.01822
1592.51305,0.01784
1590.45287,0.01757
1588.39270,0.01741
1586.33253,0.01725
1584.27236,0.01699
1582.21219,0.01673
1580.15201,0.01684
1578.09184,0.01712
1576.03167,0.01658
1573.97150,0.01541
1571.91133,0.01490
1569.85115,0.01468
1567.79098,0.01385
1565.73081,0.01294
1563.67064,0.01279
1561.61046,0.01370
1559.55029,0.01412
1557.49012,0.01217
1555.42995,0.01045
1553.36978,0.00986
1551.30960,0.00985
1549.24943,0.00992
1547.18926,0.01003
1545.12909,0.01047
1543.06892,0.01137
1541.00874,0.01213
1538.94857,0.01135
1536.88840,0.01002
1534.82823,0.00947
1532.76805,0.00934
1530.70788,0.00900
1528.64771,0.00872
1526.58754,0.00844
1524.52737,0.00819
1522.46719,0.00810
1520.40702,0.00774
1518.34685,0.00742
1516.28668,0.00705
1514.22651,0.00642
1512.16633,0.00615
1510.10616,0.00675
1508.04599,0.00768
1505.98582,0.00771
1503.92565,0.00704
1501.86547,0.00667
1499.80530,0.00711
1497.74513,0.00776
1495.68496,0.00800
1493.62478,0.00831
1491.56461,0.00886
1489.50444,0.00895
1487.44427,0.00860
1485.38410,0.00848
1483.32392,0.00864
1481.26375,0.00886
1479.20358,0.00908
1477.14341,0.00935
1475.08324,0.00956
1473.02306,0.00953
1470.96289,0.00926
1468.90272,0.00908
1466.84255,0.00929
1464.78238,0.00946
1462.72220,0.00939
1460.66203,0.00977
1458.60186,0.01015
1456.54169,0.00933
1454.48151,0.00851
1452.42134,0.00854
1450.36117,0.00922
1448.30100,0.00995
1446.24083,0.01023
1444.18065,0.01022
1442.12048,0.01024
1440.06031,0.01037
1438.00014,0.01039
1435.93997,0.01013
1433.87979,0.01008
1431.81962,0.01041
1429.75945,0.01081
1427.69928,0.01102
1425.63910,0.01117
1423.57893,0.01126
1421.51876,0.01117
1419.45859,0.01084
1417.39842,0.01067
1415.33824,0.01108
1413.27807,0.01171
1411.21790,0.01212
1409.15773,0.01237
1407.09756,0.01262
1405.03738,0.01271
1402.97721,0.01263
1400.91704,0.01253
1398.85687,0.01219
1396.79670,0.01173
1394.73652,0.01157
1392.67635,0.01164
1390.61618,0.01181
1388.55601,0.01200
1386.49583,0.01212
1384.43566,0.01219
1382.37549,0.01226
1380.31532,0.01238
1378.25515,0.01264
1376.19497,0.01292
1374.13480,0.01280
1372.07463,0.01249
1370.01446,0.01248
1367.95429,0.01270
1365.89411,0.01286
1363.83394,0.01273
1361.77377,0.01237
1359.71360,0.01232
1357.65343,0.01259
1355.59325,0.01274
1353.53308,0.01270
1351.47291,0.01265
1349.41274,0.01260
1347.35256,0.01242
1345.29239,0.01216
1343.23222,0.01185
1341.17205,0.01136
1339.11188,0.01078
1337.05170,0.01068
1334.99153,0.01103
1332.93136,0.01126
1330.87119,0.01115
1328.81102,0.01093
1326.75084,0.01079
1324.69067,0.01069
1322.63050,0.01060
1320.57033,0.01052
1318.51015,0.01036
1316.44998,0.01016
1314.38981,0.01006
1312.32964,0.01005
1310.26947,0.01011
1308.20929,0.01016
1306.14912,0.01016
1304.08895,0.01024
1302.02878,0.01038
1299.96861,0.01041
1297.90843,0.01028
1295.84826,0.01015
1293.78809,0.01010
1291.72792,0.00997
1289.66775,0.00982
1287.60757,0.00981
1285.54740,0.00992
1283.48723,0.01006
1281.42706,0.01011
1279.36688,0.01006
1277.30671,0.01001
1275.24654,0.01004
1273.18637,0.01004
1271.12620,0.00995
1269.06602,0.00986
1267.00585,0.00985
1264.94568,0.00991
1262.88551,0.01001
1260.82534,0.01001
1258.76516,0.00995
1256.70499,0.00992
1254.64482,0.00982
1252.58465,0.00965
1250.52447,0.00948
1248.46430,0.00932
1246.40413,0.00916
1244.34396,0.00904
1242.28379,0.00902
1240.22361,0.00904
1238.16344,0.00902
1236.10327,0.00901
1234.04310,0.00894
1231.98293,0.00882
1229.92275,0.00873
1227.86258,0.00863
1225.80241,0.00855
1223.74224,0.00850
1221.68207,0.00843
1219.62189,0.00838
1217.56172,0.00830
1215.50155,0.00811
1213.44138,0.00785
1211.38120,0.00767
1209.32103,0.00766
1207.26086,0.00773
1205.20069,0.00787
1203.14052,0.00801
1201.08034,0.00807
1199.02017,0.00808
1196.96000,0.00833
1194.89983,0.00864
1192.83966,0.00887
1190.77948,0.00910
1188.71931,0.00938
1186.65914,0.00978
1184.59897,0.01039
1182.53880,0.01103
1180.47862,0.01159
1178.41845,0.01216
1176.35828,0.01261
1174.29811,0.01298
1172.23793,0.01358
1170.17776,0.01429
1168.11759,0.01491
1166.05742,0.01551
1163.99725,0.01618
1161.93707,0.01687
1159.87690,0.01755
1157.81673,0.01824
1155.75656,0.01892
1153.69639,0.01954
1151.63621,0.02027
1149.57604,0.02115
1147.51587,0.02187
1145.45570,0.02243
1143.39552,0.02306
1141.33535,0.02375
1139.27518,0.02433
1137.21501,0.02484
1135.15484,0.02547
1133.09466,0.02625
1131.03449,0.02698
1128.97432,0.02760
1126.91415,0.02823
1124.85398,0.02895
1122.79380,0.02982
1120.73363,0.03077
1118.67346,0.03169
1116.61329,0.03260
1114.55312,0.03362
1112.49294,0.03472
1110.43277,0.03570
1108.37260,0.03662
1106.31243,0.03767
1104.25225,0.03868
1102.19208,0.03961
1100.13191,0.04060
1098.07174,0.04157
1096.01157,0.04251
1093.95139,0.04351
1091.89122,0.04443
1089.83105,0.04529
1087.77088,0.04624
1085.71071,0.04708
1083.65053,0.04783
1081.59036,0.04866
1079.53019,0.04956
1077.47002,0.05040
1075.40985,0.05108
1073.34967,0.05173
1071.28950,0.05235
1069.22933,0.05272
1067.16916,0.05272
1065.10898,0.05247
1063.04881,0.05221
1060.98864,0.05192
1058.92847,0.05138
1056.86830,0.05065
1054.80812,0.04980
1052.74795,0.04870
1050.68778,0.04737
1048.62761,0.04590
1046.56744,0.04437
1044.50726,0.04281
1042.44709,0.04113
1040.38692,0.03931
1038.32675,0.03743
1036.26657,0.03542
1034.20640,0.03326
1032.14623,0.03138
1030.08606,0.03006
1028.02589,0.02896
1025.96571,0.02773
1023.90554,0.02651
1021.84537,0.02547
1019.78520,0.02458
1017.72503,0.02384
1015.66485,0.02338
1013.60468,0.02322
1011.54451,0.02324
1009.48434,0.02351
1007.42417,0.02402
1005.36399,0.02464
1003.30382,0.02550
1001.24365,0.02664
999.18348,0.02780
997.12330,0.02886
995.06313,0.02986
993.00296,0.03083
990.94279,0.03185
988.88262,0.03288
986.82244,0.03375
984.76227,0.03440
982.70210,0.03485
980.64193,0.03516
978.58176,0.03531
976.52158,0.03532
974.46141,0.03524
972.40124,0.03500
970.34107,0.03454
968.28089,0.03385
966.22072,0.03304
964.16055,0.03228
962.10038,0.03152
960.04021,0.03073
957.98003,0.03001
955.91986,0.02936
953.85969,0.02863
951.79952,0.02783
949.73935,0.02713
947.67917,0.02661
945.61900,0.02606
943.55883,0.02538
941.49866,0.02473
939.43849,0.02411
937.37831,0.02344
935.31814,0.02278
933.25797,0.02204
931.19780,0.02126
929.13762,0.02052
927.07745,0.01979
925.01728,0.01911
922.95711,0.01852
920.89694,0.01795
918.83676,0.01744
916.77659,0.01695
914.71642,0.01631
912.65625,0.01567
910.59608,0.01513
908.53590,0.01463
906.47573,0.01424
904.41556,0.01406
902.35539,0.01401
900.29522,0.01391
898.23504,0.01382
896.17487,0.01399
894.11470,0.01435
892.05453,0.01468
889.99435,0.01508
887.93418,0.01562
885.87401,0.01617
883.81384,0.01680
881.75367,0.01753
879.69349,0.01819
877.63332,0.01893
875.57315,0.01991
873.51298,0.02111
871.45281,0.02227
869.39263,0.02314
867.33246,0.02390
865.27229,0.02480
863.21212,0.02576
861.15194,0.02655
859.09177,0.02715
857.03160,0.02753
854.97143,0.02772
852.91126,0.02778
850.85108,0.02780
848.79091,0.02757
846.73074,0.02699
844.67057,0.02638
842.61040,0.02567
840.55022,0.02465
838.49005,0.02352
836.42988,0.02263
834.36971,0.02210
832.30954,0.02163
830.24936,0.02103
828.18919,0.02031
826.12902,0.01946
824.06885,0.01871
822.00867,0.01828
819.94850,0.01795
817.88833,0.01744
815.82816,0.01672
813.76799,0.01601
811.70781,0.01536
809.64764,0.01476
807.58747,0.01442
805.52730,0.01433
803.46713,0.01425
801.40695,0.01401
799.34678,0.01352
797.28661,0.01294
795.22644,0.01259
793.16627,0.01238
791.10609,0.01205
789.04592,0.01166
786.98575,0.01134
784.92558,0.01116
782.86540,0.01117
780.80523,0.01114
778.74506,0.01098
776.68489,0.01084
774.62472,0.01057
772.56454,0.01009
770.50437,0.00981
768.44420,0.00982
766.38403,0.00965
764.32386,0.00944
762.26368,0.00951
760.20351,0.00960
758.14334,0.00955
756.08317,0.00933
754.02299,0.00887
751.96282,0.00837
749.90265,0.00809
747.84248,0.00805
745.78231,0.00804
743.72213,0.00787
741.66196,0.00748
739.60179,0.00704
737.54162,0.00683
735.48145,0.00701
733.42127,0.00725
731.36110,0.00708
729.30093,0.00673
727.24076,0.00648
725.18059,0.00642
723.12041,0.00678
721.06024,0.00623
719.00007,0.00673
716.93990,0.00708
714.87972,0.00696
712.81955,0.00684
710.75938,0.00662
708.69921,0.00608
706.63904,0.00574
704.57886,0.00626
702.51869,0.00718
700.45852,0.00760
698.39835,0.00727
696.33818,0.00666
694.27800,0.00658
692.21783,0.00708
690.15766,0.00737
688.09749,0.00730
686.03731,0.00755
683.97714,0.00818
681.91697,0.00862
679.85680,0.00860
677.79663,0.00818
675.73645,0.00769
673.67628,0.00881
671.61611,0.01243
669.55594,0.00905
667.49577,0.00000
665.43559,0.01104
663.37542,0.00905
661.31525,0.00635
659.25508,0.00673
657.19491,0.00718
655.13473,0.00685
653.07456,0.00634
651.01439,0.00564
648.95422,0.00473
646.89404,0.00471
644.83387,0.00493
642.77370,0.00527
640.71353,0.00517
638.65336,0.00438
636.59318,0.00345
634.53301,0.00299
632.47284,0.00306
630.41267,0.00311
628.35250,0.00294
626.29232,0.00333
624.23215,0.00400
622.17198,0.00405
620.11181,0.00313
618.05164,0.00217
615.99146,0.00210
613.93129,0.00219
611.87112,0.00167
609.81095,0.00098
607.75077,0.00091
605.69060,0.00099
603.63043,0.00055
601.57026,0.00000
599.51009,0.00000
