3996.73391,0.00007
3994.67373,-0.00005
3992.61356,0.00003
3990.55339,0.00035
3988.49322,0.00052
3986.43305,0.00048
3984.37287,0.00052
3982.31270,0.00059
3980.25253,0.00056
3978.19236,0.00056
3976.13219,0.00062
3974.07201,0.00069
3972.01184,0.00072
3969.95167,0.00080
3967.89150,0.00107
3965.83133,0.00130
3963.77115,0.00124
3961.71098,0.00102
3959.65081,0.00086
3957.59064,0.00083
3955.53046,0.00101
3953.47029,0.00135
3951.41012,0.00130
3949.34995,0.00054
3947.28978,0.00000
3945.22960,0.00040
3943.16943,0.00094
3941.10926,0.00108
3939.04909,0.00114
3936.98892,0.00107
3934.92874,0.00068
3932.86857,0.00041
3930.80840,0.00073
3928.74823,0.00135
3926.68805,0.00173
3924.62788,0.00160
3922.56771,0.00099
3920.50754,0.00050
3918.44737,0.00041
3916.38719,0.00082
3914.32702,0.00149
3912.26685,0.00190
3910.20668,0.00206
3908.14651,0.00220
3906.08633,0.00204
3904.02616,0.00124
3901.96599,0.00061
3899.90582,0.00094
3897.84565,0.00135
3895.78547,0.00132
3893.72530,0.00111
3891.66513,0.00088
3889.60496,0.00073
3887.54478,0.00074
3885.48461,0.00094
3883.42444,0.00104
3881.36427,0.00101
3879.30410,0.00108
3877.24392,0.00133
3875.18375,0.00159
3873.12358,0.00154
3871.06341,0.00118
3869.00324,0.00094
3866.94306,0.00089
3864.88289,0.00085
3862.82272,0.00074
3860.76255,0.00070
3858.70237,0.00051
3856.64220,0.00000
3854.58203,0.00016
3852.52186,0.00135
3850.46169,0.00219
3848.40151,0.00190
3846.34134,0.00149
3844.28117,0.00152
3842.22100,0.00163
3840.16083,0.00151
3838.10065,0.00127
3836.04048,0.00138
3833.98031,0.00175
3831.92014,0.00203
3829.85997,0.00234
3827.79979,0.00256
3825.73962,0.00252
3823.67945,0.00250
3821.61928,0.00271
3819.55910,0.00265
3817.49893,0.00258
3815.43876,0.00283
3813.37859,0.00309
3811.31842,0.00307
3809.25824,0.00299
3807.19807,0.00295
3805.13790,0.00305
3803.07773,0.00350
3801.01756,0.00381
3798.95738,0.00356
3796.89721,0.00335
3794.83704,0.00370
3792.77687,0.00435
3790.71670,0.00481
3788.65652,0.00500
3786.59635,0.00500
3784.53618,0.00496
3782.47601,0.00512
3780.41583,0.00552
3778.35566,0.00566
3776.29549,0.00550
3774.23532,0.00542
3772.17515,0.00550
3770.11497,0.00537
3768.05480,0.00482
3765.99463,0.00419
3763.93446,0.00385
3761.87429,0.00387
3759.81411,0.00378
3757.75394,0.00316
3755.69377,0.00247
3753.63360,0.00203
3751.57342,0.00132
3749.51325,0.00032
3747.45308,0.00000
3745.39291,0.00010
3743.33274,0.00082
3741.27256,0.00159
3739.21239,0.00178
3737.15222,0.00190
3735.09205,0.00211
3733.03188,0.00229
3730.97170,0.00278
3728.91153,0.00322
3726.85136,0.00338
3724.79119,0.00342
3722.73102,0.00344
3720.67084,0.00400
3718.61067,0.00419
3716.55050,0.00412
3714.49033,0.00438
3712.43015,0.00468
3710.36998,0.00498
3708.30981,0.00496
3706.24964,0.00527
3704.18947,0.00573
3702.12929,0.00596
3700.06912,0.00600
3698.00895,0.00595
3695.94878,0.00595
3693.88861,0.00607
3691.82843,0.00644
3689.76826,0.00611
3687.70809,0.00557
3685.64792,0.00559
3683.58775,0.00607
3681.52757,0.00649
3679.46740,0.00669
3677.40723,0.00658
3675.34706,0.00639
3673.28688,0.00619
3671.22671,0.00613
3669.16654,0.00624
3667.10637,0.00635
3665.04620,0.00651
3662.98602,0.00666
3660.92585,0.00664
3658.86568,0.00661
3656.80551,0.00681
3654.74534,0.00721
3652.68516,0.00775
3650.62499,0.00818
3648.56482,0.00783
3646.50465,0.00741
3644.44447,0.00717
3642.38430,0.00741
3640.32413,0.00787
3638.26396,0.00801
3636.20379,0.00793
3634.14361,0.00799
3632.08344,0.00836
3630.02327,0.00871
3627.96310,0.00888
3625.90293,0.00897
3623.84275,0.00929
3621.78258,0.00957
3619.72241,0.00946
3617.66224,0.00916
3615.60207,0.00885
3613.54189,0.00871
3611.48172,0.00851
3609.42155,0.00885
3607.36138,0.00964
3605.30120,0.01023
3603.24103,0.01094
3601.18086,0.01157
3599.12069,0.01190
3597.06052,0.01192
3595.00034,0.01220
3592.94017,0.01239
3590.88000,0.01273
3588.81983,0.01273
3586.75966,0.01249
3584.69948,0.01260
3582.63931,0.01310
3580.57914,0.01376
3578.51897,0.01436
3576.45879,0.01479
3574.39862,0.01496
3572.33845,0.01511
3570.27828,0.01536
3568.21811,0.01542
3566.15793,0.01534
3564.09776,0.01556
3562.03759,0.01585
3559.97742,0.01614
3557.91725,0.01656
3555.85707,0.01691
3553.79690,0.01706
3551.73673,0.01707
3549.67656,0.01699
3547.61639,0.01677
3545.55621,0.01673
3543.49604,0.01724
3541.43587,0.01814
3539.37570,0.01884
3537.31552,0.01904
3535.25535,0.01910
3533.19518,0.01940
3531.13501,0.01971
3529.07484,0.01965
3527.01466,0.01933
3524.95449,0.01927
3522.89432,0.01971
3520.83415,0.02038
3518.77398,0.02093
3516.71380,0.02125
3514.65363,0.02152
3512.59346,0.02171
3510.53329,0.02158
3508.47312,0.02140
3506.41294,0.02155
3504.35277,0.02172
3502.29260,0.02163
3500.23243,0.02186
3498.17225,0.02256
3496.11208,0.02315
3494.05191,0.02346
3491.99174,0.02380
3489.93157,0.02418
3487.87139,0.02434
3485.81122,0.02431
3483.75105,0.02434
3481.69088,0.02443
3479.63071,0.02464
3477.57053,0.02508
3475.51036,0.02555
3473.45019,0.02576
3471.39002,0.02580
3469.32984,0.02589
3467.26967,0.02599
3465.20950,0.02602
3463.14933,0.02605
3461.08916,0.02615
3459.02898,0.02643
3456.96881,0.02688
3454.90864,0.02727
3452.84847,0.02746
3450.78830,0.02760
3448.72812,0.02768
3446.66795,0.02752
3444.60778,0.02744
3442.54761,0.02755
3440.48744,0.02760
3438.42726,0.02769
3436.36709,0.02792
3434.30692,0.02830
3432.24675,0.02873
3430.18657,0.02896
3428.12640,0.02899
3426.06623,0.02889
3424.00606,0.02882
3421.94589,0.02898
3419.88571,0.02921
3417.82554,0.02954
3415.76537,0.02987
3413.70520,0.02999
3411.64503,0.02999
3409.58485,0.02998
3407.52468,0.03002
3405.46451,0.03012
3403.40434,0.03015
3401.34416,0.03009
3399.28399,0.02916
3397.22382,0.02929
3395.16365,0.02963
3393.10348,0.02982
3391.04330,0.03006
3388.98313,0.03049
3386.92296,0.03093
3384.86279,0.03121
3382.80262,0.03142
3380.74244,0.03165
3378.68227,0.03190
3376.62210,0.03193
3374.56193,0.03182
3372.50176,0.03172
3370.44158,0.03166
3368.38141,0.03159
3366.32124,0.03153
3364.26107,0.03163
3362.20089,0.03190
3360.14072,0.03217
3358.08055,0.03241
3356.02038,0.03264
3353.96021,0.03274
3351.90003,0.03270
3349.83986,0.03270
3347.77969,0.03275
3345.71952,0.03278
3343.65935,0.03296
3341.59917,0.03306
3339.53900,0.03279
3337.47883,0.03256
3335.41866,0.03269
3333.35849,0.03293
3331.29831,0.03317
3329.23814,0.03341
3327.17797,0.03358
3325.11780,0.03364
3323.05762,0.03374
3320.99745,0.03393
3318.93728,0.03403
3316.87711,0.03402
3314.81694,0.03385
3312.75676,0.03352
3310.69659,0.03341
3308.63642,0.03368
3306.57625,0.03406
3304.51608,0.03434
3302.45590,0.03451
3300.39573,0.03457
3298.33556,0.03450
3296.27539,0.03433
3294.21521,0.03414
3292.15504,0.03405
3290.09487,0.03420
3288.03470,0.03446
3285.97453,0.03460
3283.91435,0.03466
3281.85418,0.03481
3279.79401,0.03491
3277.73384,0.03474
3275.67367,0.03457
3273.61349,0.03455
3271.55332,0.03460
3269.49315,0.03483
3267.43298,0.03521
3265.37281,0.03550
3263.31263,0.03557
3261.25246,0.03548
3259.19229,0.03540
3257.13212,0.03530
3255.07194,0.03518
3253.01177,0.03517
3250.95160,0.03525
3248.89143,0.03525
3246.83126,0.03514
3244.77108,0.03511
3242.71091,0.03542
3240.65074,0.03572
3238.59057,0.03568
3236.53040,0.03556
3234.47022,0.03557
3232.41005,0.03566
3230.34988,0.03572
3228.28971,0.03574
3226.22954,0.03580
3224.16936,0.03590
3222.10919,0.03582
3220.04902,0.03559
3217.98885,0.03560
3215.92867,0.03583
3213.86850,0.03597
3211.80833,0.03607
3209.74816,0.03613
3207.68799,0.03609
3205.62781,0.03616
3203.56764,0.03628
3201.50747,0.03626
3199.44730,0.03615
3197.38713,0.03610
3195.32695,0.03617
3193.26678,0.03628
3191.20661,0.03633
3189.14644,0.03624
3187.08626,0.03595
3185.02609,0.03571
3182.96592,0.03586
3180.90575,0.03616
3178.84558,0.03632
3176.78540,0.03641
3174.72523,0.03649
3172.66506,0.03637
3170.60489,0.03615
3168.54472,0.03608
3166.48454,0.03616
3164.42437,0.03628
3162.36420,0.03643
3160.30403,0.03647
3158.24386,0.03631
3156.18368,0.03611
3154.12351,0.03594
3152.06334,0.03589
3150.00317,0.03600
3147.94299,0.03616
3145.88282,0.03621
3143.82265,0.03612
3141.76248,0.03598
3139.70231,0.03583
3137.64213,0.03578
3135.58196,0.03579
3133.52179,0.03567
3131.46162,0.03562
3129.40145,0.03575
3127.34127,0.03580
3125.28110,0.03565
3123.22093,0.03549
3121.16076,0.03534
3119.10058,0.03514
3117.04041,0.03490
3114.98024,0.03485
3112.92007,0.03509
3110.85990,0.03534
3108.79972,0.03540
3106.73955,0.03535
3104.67938,0.03522
3102.61921,0.03494
3100.55904,0.03475
3098.49886,0.03488
3096.43869,0.03503
3094.37852,0.03500
3092.31835,0.03499
3090.25818,0.03501
3088.19800,0.03494
3086.13783,0.03487
3084.07766,0.03479
3082.01749,0.03461
3079.95731,0.03437
3077.89714,0.03426
3075.83697,0.03437
3073.77680,0.03451
3071.71663,0.03457
3069.65645,0.03458
3067.59628,0.03440
3065.53611,0.03414
3063.47594,0.03419
3061.41577,0.03447
3059.35559,0.03456
3057.29542,0.03437
3055.23525,0.03417
3053.17508,0.03414
3051.11491,0.03418
3049.05473,0.03410
3046.99456,0.03395
3044.93439,0.03378
3042.87422,0.03362
3040.81404,0.03354
3038.75387,0.03359
3036.69370,0.03359
3034.63353,0.03338
3032.57336,0.03311
3030.51318,0.03299
3028.45301,0.03305
3026.39284,0.03304
3024.33267,0.03290
3022.27250,0.03279
3020.21232,0.03277
3018.15215,0.03268
3016.09198,0.03239
3014.03181,0.03212
3011.97163,0.03201
3009.91146,0.03196
3007.85129,0.03190
3005.79112,0.03180
3003.73095,0.03169
3001.67077,0.03157
2999.61060,0.03153
2997.55043,0.03139
2995.49026,0.03131
2993.43009,0.03127
2991.36991,0.03130
2989.30974,0.03129
2987.24957,0.03133
2985.18940,0.03157
2983.12923,0.03171
2981.06905,0.03161
2979.00888,0.03145
2976.94871,0.03135
2974.88854,0.03123
2972.82836,0.03117
2970.76819,0.03132
2968.70802,0.03147
2966.64785,0.03141
2964.58768,0.03136
2962.52750,0.03152
2960.46733,0.03170
2958.40716,0.03180
2956.34699,0.03186
2954.28682,0.03184
2952.22664,0.03173
2950.16647,0.03159
2948.10630,0.03138
2946.04613,0.03120
2943.98596,0.03118
2941.92578,0.03117
2939.86561,0.03105
2937.80544,0.03093
2935.74527,0.03104
2933.68509,0.03136
2931.62492,0.03159
2929.56475,0.03153
2927.50458,0.03150
2925.44441,0.03167
2923.38423,0.03195
2921.32406,0.03236
2919.26389,0.03270
2917.20372,0.03275
2915.14355,0.03262
2913.08337,0.03233
2911.02320,0.03188
2908.96303,0.03147
2906.90286,0.03126
2904.84268,0.03116
2902.78251,0.03102
2900.72234,0.03090
2898.66217,0.03085
2896.60200,0.03082
2894.54182,0.03080
2892.48165,0.03074
2890.42148,0.03056
2888.36131,0.03048
2886.30114,0.03061
2884.24096,0.03073
2882.18079,0.03072
2880.12062,0.03058
2878.06045,0.03045
2876.00028,0.03039
2873.94010,0.03035
2871.87993,0.03031
2869.81976,0.03027
2867.75959,0.03024
2865.69941,0.03012
2863.63924,0.02998
2861.57907,0.03009
2859.51890,0.03037
2857.45873,0.03052
2855.39855,0.03068
2853.33838,0.03092
2851.27821,0.03106
2849.21804,0.03105
2847.15787,0.03091
2845.09769,0.03063
2843.03752,0.03030
2840.97735,0.03005
2838.91718,0.02982
2836.85700,0.02964
2834.79683,0.02953
2832.73666,0.02951
2830.67649,0.02948
2828.61632,0.02938
2826.55614,0.02926
2824.49597,0.02917
2822.43580,0.02908
2820.37563,0.02897
2818.31546,0.02890
2816.25528,0.02888
2814.19511,0.02894
2812.13494,0.02904
2810.07477,0.02894
2808.01460,0.02865
2805.95442,0.02848
2803.89425,0.02847
2801.83408,0.02848
2799.77391,0.02845
2797.71373,0.02836
2795.65356,0.02826
2793.59339,0.02824
2791.53322,0.02830
2789.47305,0.02830
2787.41287,0.02819
2785.35270,0.02809
2783.29253,0.02813
2781.23236,0.02819
2779.17219,0.02816
2777.11201,0.02814
2775.05184,0.02802
2772.99167,0.02775
2770.93150,0.02751
2768.87133,0.02743
2766.81115,0.02749
2764.75098,0.02753
2762.69081,0.02750
2760.63064,0.02741
2758.57046,0.02739
2756.51029,0.02742
2754.45012,0.02740
2752.38995,0.02744
2750.32978,0.02743
2748.26960,0.02730
2746.20943,0.02716
2744.14926,0.02709
2742.08909,0.02708
2740.02892,0.02710
2737.96874,0.02706
2735.90857,0.02692
2733.84840,0.02675
2731.78823,0.02669
2729.72805,0.02674
2727.66788,0.02671
2725.60771,0.02657
2723.54754,0.02641
2721.48737,0.02638
2719.42719,0.02648
2717.36702,0.02655
2715.30685,0.02656
2713.24668,0.02647
2711.18651,0.02642
2709.12633,0.02639
2707.06616,0.02623
2705.00599,0.02609
2702.94582,0.02616
2700.88565,0.02624
2698.82547,0.02611
2696.76530,0.02590
2694.70513,0.02589
2692.64496,0.02599
2690.58478,0.02598
2688.52461,0.02592
2686.46444,0.02589
2684.40427,0.02587
2682.34410,0.02576
2680.28392,0.02566
2678.22375,0.02564
2676.16358,0.02560
2674.10341,0.02556
2672.04324,0.02557
2669.98306,0.02552
2667.92289,0.02543
2665.86272,0.02539
2663.80255,0.02537
2661.74238,0.02534
2659.68220,0.02524
2657.62203,0.02514
2655.56186,0.02510
2653.50169,0.02505
2651.44151,0.02499
2649.38134,0.02498
2647.32117,0.02498
2645.26100,0.02498
2643.20083,0.02498
2641.14065,0.02497
2639.08048,0.02485
2637.02031,0.02480
2634.96014,0.02495
2632.89997,0.02509
2630.83979,0.02507
2628.77962,0.02494
2626.71945,0.02483
2624.65928,0.02486
2622.59910,0.02490
2620.53893,0.02485
2618.47876,0.02473
2616.41859,0.02461
2614.35842,0.02456
2612.29824,0.02456
2610.23807,0.02452
2608.17790,0.02451
2606.11773,0.02459
2604.05756,0.02465
2601.99738,0.02474
2599.93721,0.02484
2597.87704,0.02481
2595.81687,0.02469
2593.75670,0.02456
2591.69652,0.02453
2589.63635,0.02452
2587.57618,0.02448
2585.51601,0.02447
2583.45583,0.02449
2581.39566,0.02455
2579.33549,0.02458
2577.27532,0.02458
2575.21515,0.02460
2573.15497,0.02454
2571.09480,0.02442
2569.03463,0.02442
2566.97446,0.02459
2564.91429,0.02480
2562.85411,0.02498
2560.79394,0.02516
2558.73377,0.02525
2556.67360,0.02506
2554.61342,0.02478
2552.55325,0.02471
2550.49308,0.02488
2548.43291,0.02507
2546.37274,0.02502
2544.31256,0.02487
2542.25239,0.02485
2540.19222,0.02486
2538.13205,0.02489
2536.07188,0.02502
2534.01170,0.02510
2531.95153,0.02514
2529.89136,0.02531
2527.83119,0.02552
2525.77102,0.02561
2523.71084,0.02550
2521.65067,0.02533
2519.59050,0.02535
2517.53033,0.02542
2515.47015,0.02537
2513.40998,0.02535
2511.34981,0.02540
2509.28964,0.02545
2507.22947,0.02545
2505.16929,0.02549
2503.10912,0.02561
2501.04895,0.02576
2498.98878,0.02568
2496.92861,0.02546
2494.86843,0.02559
2492.80826,0.02594
2490.74809,0.02610
2488.68792,0.02606
2486.62775,0.02596
2484.56757,0.02587
2482.50740,0.02591
2480.44723,0.02609
2478.38706,0.02635
2476.32688,0.02660
2474.26671,0.02678
2472.20654,0.02676
2470.14637,0.02661
2468.08620,0.02656
2466.02602,0.02650
2463.96585,0.02652
2461.90568,0.02678
2459.84551,0.02704
2457.78534,0.02702
2455.72516,0.02690
2453.66499,0.02684
2451.60482,0.02673
2449.54465,0.02663
2447.48447,0.02666
2445.42430,0.02677
2443.36413,0.02688
2441.30396,0.02705
2439.24379,0.02730
2437.18361,0.02740
2435.12344,0.02728
2433.06327,0.02718
2431.00310,0.02716
2428.94293,0.02715
2426.88275,0.02716
2424.82258,0.02717
2422.76241,0.02723
2420.70224,0.02729
2418.64207,0.02722
2416.58189,0.02711
2414.52172,0.02712
2412.46155,0.02702
2410.40138,0.02682
2408.34120,0.02691
2406.28103,0.02721
2404.22086,0.02740
2402.16069,0.02743
2400.10052,0.02731
2398.04034,0.02698
2395.98017,0.02701
2393.92000,0.02723
2391.85983,0.02743
2389.79966,0.02752
2387.73948,0.02757
2385.67931,0.02775
2383.61914,0.02765
2381.55897,0.02696
2379.49880,0.02660
2377.43862,0.02653
2375.37845,0.02531
2373.31828,0.02660
2371.25811,0.02809
2369.19793,0.02773
2367.13776,0.02786
2365.07759,0.02985
2363.01742,0.02816
2360.95725,0.03072
2358.89707,0.02839
2356.83690,0.02685
2354.77673,0.02397
2352.71656,0.02514
2350.65639,0.03388
2348.59621,0.04073
2346.53604,0.02562
2344.47587,0.02232
2342.41570,0.02601
2340.35552,0.02947
2338.29535,0.02982
2336.23518,0.03010
2334.17501,0.03011
2332.11484,0.02890
2330.05466,0.02903
2327.99449,0.02646
2325.93432,0.02896
2323.87415,0.02698
2321.81398,0.02689
2319.75380,0.02369
2317.69363,0.02478
2315.63346,0.02484
2313.57329,0.02311
2311.51312,0.02367
2309.45294,0.02457
2307.39277,0.02532
2305.33260,0.02614
2303.27243,0.02695
2301.21225,0.02682
2299.15208,0.02670
2297.09191,0.02640
2295.03174,0.02581
2292.97157,0.02585
2290.91139,0.02605
2288.85122,0.02616
2286.79105,0.02626
2284.73088,0.02616
2282.67071,0.02599
2280.61053,0.02621
2278.55036,0.02647
2276.49019,0.02640
2274.43002,0.02631
2272.36984,0.02589
2270.30967,0.02557
2268.24950,0.02589
2266.18933,0.02663
2264.12916,0.02694
2262.06898,0.02673
2260.00881,0.02609
2257.94864,0.02582
2255.88847,0.02595
2253.82830,0.02616
2251.76812,0.02607
2249.70795,0.02541
2247.64778,0.02492
2245.58761,0.02523
2243.52744,0.02565
2241.46726,0.02557
2239.40709,0.02551
2237.34692,0.02566
2235.28675,0.02562
2233.22657,0.02563
2231.16640,0.02598
2229.10623,0.02649
2227.04606,0.02654
2224.98589,0.02600
2222.92571,0.02548
2220.86554,0.02531
2218.80537,0.02546
2216.74520,0.02543
2214.68503,0.02516
2212.62485,0.02498
2210.56468,0.02489
2208.50451,0.02497
2206.44434,0.02509
2204.38417,0.02523
2202.32399,0.02537
2200.26382,0.02491
2198.20365,0.02449
2196.14348,0.02488
2194.08330,0.02495
2192.02313,0.02454
2189.96296,0.02458
2187.90279,0.02487
2185.84262,0.02501
2183.78244,0.02498
2181.72227,0.02469
2179.66210,0.02426
2177.60193,0.02461
2175.54176,0.02561
2173.48158,0.02594
2171.42141,0.02532
2169.36124,0.02457
2167.30107,0.02432
2165.24089,0.02441
2163.18072,0.02438
2161.12055,0.02395
2159.06038,0.02310
2157.00021,0.02253
2154.94003,0.02324
2152.87986,0.02478
2150.81969,0.02574
2148.75952,0.02534
2146.69935,0.02413
2144.63917,0.02367
2142.57900,0.02414
2140.51883,0.02462
2138.45866,0.02464
2136.39849,0.02407
2134.33831,0.02355
2132.27814,0.02365
2130.21797,0.02387
2128.15780,0.02375
2126.09762,0.02364
2124.03745,0.02384
2121.97728,0.02432
2119.91711,0.02477
2117.85694,0.02457
2115.79676,0.02394
2113.73659,0.02362
2111.67642,0.02365
2109.61625,0.02372
2107.55608,0.02353
2105.49590,0.02307
2103.43573,0.02298
2101.37556,0.02358
2099.31539,0.02475
2097.25521,0.02489
2095.19504,0.02425
2093.13487,0.02338
2091.07470,0.02287
2089.01453,0.02273
2086.95435,0.02283
2084.89418,0.02330
2082.83401,0.02410
2080.77384,0.02501
2078.71367,0.02559
2076.65349,0.02572
2074.59332,0.02571
2072.53315,0.02551
2070.47298,0.02494
2068.41281,0.02471
2066.35263,0.02503
2064.29246,0.02487
2062.23229,0.02407
2060.17212,0.02354
2058.11194,0.02362
2056.05177,0.02369
2053.99160,0.02368
2051.93143,0.02432
2049.87126,0.02571
2047.81108,0.02689
2045.75091,0.02750
2043.69074,0.02755
2041.63057,0.02692
2039.57040,0.02644
2037.51022,0.02653
2035.45005,0.02645
2033.38988,0.02583
2031.32971,0.02500
2029.26954,0.02465
2027.20936,0.02483
2025.14919,0.02506
2023.08902,0.02529
2021.02885,0.02539
2018.96867,0.02499
2016.90850,0.02485
2014.84833,0.02540
2012.78816,0.02583
2010.72799,0.02640
2008.66781,0.02725
2006.60764,0.02714
2004.54747,0.02575
2002.48730,0.02451
2000.42713,0.02407
1998.36695,0.02370
1996.30678,0.02334
1994.24661,0.02345
1992.18644,0.02366
1990.12626,0.02342
1988.06609,0.02305
1986.00592,0.02312
1983.94575,0.02385
1981.88558,0.02543
1979.82540,0.02757
1977.76523,0.02871
1975.70506,0.02815
1973.64489,0.02732
1971.58472,0.02705
1969.52454,0.02686
1967.46437,0.02653
1965.40420,0.02626
1963.34403,0.02623
1961.28386,0.02620
1959.22368,0.02570
1957.16351,0.02477
1955.10334,0.02412
1953.04317,0.02421
1950.98299,0.02466
1948.92282,0.02513
1946.86265,0.02540
1944.80248,0.02525
1942.74231,0.02502
1940.68213,0.02498
1938.62196,0.02503
1936.56179,0.02506
1934.50162,0.02500
1932.44145,0.02488
1930.38127,0.02489
1928.32110,0.02505
1926.26093,0.02505
1924.20076,0.02466
1922.14059,0.02409
1920.08041,0.02373
1918.02024,0.02385
1915.96007,0.02432
1913.89990,0.02486
1911.83972,0.02514
1909.77955,0.02504
1907.71938,0.02489
1905.65921,0.02512
1903.59904,0.02544
1901.53886,0.02539
1899.47869,0.02514
1897.41852,0.02494
1895.35835,0.02459
1893.29818,0.02419
1891.23800,0.02425
1889.17783,0.02457
1887.11766,0.02473
1885.05749,0.02478
1882.99731,0.02477
1880.93714,0.02479
1878.87697,0.02490
1876.81680,0.02499
1874.75663,0.02510
1872.69645,0.02541
1870.63628,0.02581
1868.57611,0.02587
1866.51594,0.02552
1864.45577,0.02514
1862.39559,0.02491
1860.33542,0.02484
1858.27525,0.02498
1856.21508,0.02521
1854.15491,0.02525
1852.09473,0.02509
1850.03456,0.02494
1847.97439,0.02481
1845.91422,0.02457
1843.85404,0.02427
1841.79387,0.02422
1839.73370,0.02441
1837.67353,0.02457
1835.61336,0.02453
1833.55318,0.02472
1831.49301,0.02539
1829.43284,0.02586
1827.37267,0.02580
1825.31250,0.02572
1823.25232,0.02577
1821.19215,0.02584
1819.13198,0.02572
1817.07181,0.02546
1815.01163,0.02525
1812.95146,0.02510
1810.89129,0.02479
1808.83112,0.02449
1806.77095,0.02451
1804.71077,0.02466
1802.65060,0.02466
1800.59043,0.02468
1798.53026,0.02472
1796.47009,0.02477
1794.40991,0.02493
1792.34974,0.02493
1790.28957,0.02455
1788.22940,0.02408
1786.16923,0.02377
1784.10905,0.02391
1782.04888,0.02442
1779.98871,0.02464
1777.92854,0.02457
1775.86836,0.02482
1773.80819,0.02535
1771.74802,0.02520
1769.68785,0.02422
1767.62768,0.02358
1765.56750,0.02371
1763.50733,0.02412
1761.44716,0.02419
1759.38699,0.02395
1757.32682,0.02382
1755.26664,0.02380
1753.20647,0.02390
1751.14630,0.02416
1749.08613,0.02431
1747.02596,0.02416
1744.96578,0.02409
1742.90561,0.02434
1740.84544,0.02456
1738.78527,0.02452
1736.72509,0.02456
1734.66492,0.02458
1732.60475,0.02426
1730.54458,0.02411
1728.48441,0.02411
1726.42423,0.02415
1724.36406,0.02420
1722.30389,0.02449
1720.24372,0.02532
1718.18355,0.02578
1716.12337,0.02476
1714.06320,0.02372
1712.00303,0.02340
1709.94286,0.02372
1707.88268,0.02425
1705.82251,0.02424
1703.76234,0.02390
1701.70217,0.02421
1699.64200,0.02457
1697.58182,0.02422
1695.52165,0.02366
1693.46148,0.02359
1691.40131,0.02404
1689.34114,0.02479
1687.28096,0.02582
1685.22079,0.02690
1683.16062,0.02665
1681.10045,0.02584
1679.04028,0.02586
1676.98010,0.02666
1674.91993,0.02760
1672.85976,0.02843
1670.79959,0.02908
1668.73941,0.02902
1666.67924,0.02867
1664.61907,0.02880
1662.55890,0.02890
1660.49873,0.02837
1658.43855,0.02820
1656.37838,0.02921
1654.31821,0.03040
1652.25804,0.02987
1650.19787,0.02926
1648.13769,0.02941
1646.07752,0.02927
1644.01735,0.02857
1641.95718,0.02843
1639.89701,0.02922
1637.83683,0.03034
1635.77666,0.03049
1633.71649,0.02967
1631.65632,0.02932
1629.59614,0.02966
1627.53597,0.03014
1625.47580,0.03042
1623.41563,0.03029
1621.35546,0.02982
1619.29528,0.03002
1617.23511,0.03061
1615.17494,0.03026
1613.11477,0.02956
1611.05460,0.02944
1608.99442,0.02967
1606.93425,0.02978
1604.87408,0.02990
1602.81391,0.03001
1600.75373,0.02993
1598.69356,0.02983
1596.63339,0.02985
1594.57322,0.02978
1592.51305,0.02954
1590.45287,0.02930
1588.39270,0.02912
1586.33253,0.02899
1584.27236,0.02878
1582.21219,0.02860
1580.15201,0.02886
1578.09184,0.02938
1576.03167,0.02898
1573.97150,0.02770
1571.91133,0.02710
1569.85115,0.02695
1567.79098,0.02622
1565.73081,0.02538
1563.67064,0.02537
1561.61046,0.02660
1559.55029,0.02731
1557.49012,0.02512
1555.42995,0.02306
1553.36978,0.02242
1551.30960,0.02246
1549.24943,0.02253
1547.18926,0.02275
1545.12909,0.02355
1543.06892,0.02483
1541.00874,0.02561
1538.94857,0.02446
1536.88840,0.02297
1534.82823,0.02256
1532.76805,0.02254
1530.70788,0.02217
1528.64771,0.02192
1526.58754,0.02177
1524.52737,0.02162
1522.46719,0.02148
1520.40702,0.02094
1518.34685,0.02055
1516.28668,0.02034
1514.22651,0.01989
1512.16633,0.01982
1510.10616,0.02071
1508.04599,0.02171
1505.98582,0.02141
1503.92565,0.02055
1501.86547,0.02026
1499.80530,0.02085
1497.74513,0.02149
1495.68496,0.02160
1493.62478,0.02189
1491.56461,0.02259
1489.50444,0.02282
1487.44427,0.02245
1485.38410,0.02225
1483.32392,0.02233
1481.26375,0.02249
1479.20358,0.02277
1477.14341,0.02328
1475.08324,0.02381
1473.02306,0.02382
1470.96289,0.02320
1468.90272,0.02271
1466.84255,0.02288
1464.78238,0.02315
1462.72220,0.02312
1460.66203,0.02355
1458.60186,0.02403
1456.54169,0.02328
1454.48151,0.02243
1452.42134,0.02240
1450.36117,0.02307
1448.30100,0.02380
1446.24083,0.02408
1444.18065,0.02411
1442.12048,0.02421
1440.06031,0.02442
1438.00014,0.02452
1435.93997,0.02432
1433.87979,0.02425
1431.81962,0.02453
1429.75945,0.02482
1427.69928,0.02486
1425.63910,0.02495
1423.57893,0.02511
1421.51876,0.02515
1419.45859,0.02498
1417.39842,0.02482
1415.33824,0.02511
1413.27807,0.02569
1411.21790,0.02616
1409.15773,0.02650
1407.09756,0.02682
1405.03738,0.02695
1402.97721,0.02690
1400.91704,0.02686
1398.85687,0.02664
1396.79670,0.02632
1394.73652,0.02622
1392.67635,0.02625
1390.61618,0.02639
1388.55601,0.02665
1386.49583,0.02678
1384.43566,0.02676
1382.37549,0.02673
1380.31532,0.02680
1378.25515,0.02707
1376.19497,0.02750
1374.13480,0.02757
1372.07463,0.02727
1370.01446,0.02718
1367.95429,0.02732
1365.89411,0.02751
1363.83394,0.02751
1361.77377,0.02728
1359.71360,0.02724
1357.65343,0.02750
1355.59325,0.02776
1353.53308,0.02785
1351.47291,0.02782
1349.41274,0.02770
1347.35256,0.02746
1345.29239,0.02720
1343.23222,0.02694
1341.17205,0.02651
1339.11188,0.02590
1337.05170,0.02569
1334.99153,0.02597
1332.93136,0.02618
1330.87119,0.02601
1328.81102,0.02577
1326.75084,0.02569
1324.69067,0.02562
1322.63050,0.02549
1320.57033,0.02541
1318.51015,0.02524
1316.44998,0.02499
1314.38981,0.02485
1312.32964,0.02486
1310.26947,0.02493
1308.20929,0.02490
1306.14912,0.02474
1304.08895,0.02466
1302.02878,0.02471
1299.96861,0.02472
1297.90843,0.02469
1295.84826,0.02474
1293.78809,0.02483
1291.72792,0.02471
1289.66775,0.02441
1287.60757,0.02422
1285.54740,0.02431
1283.48723,0.02449
1281.42706,0.02449
1279.36688,0.02438
1277.30671,0.02439
1275.24654,0.02446
1273.18637,0.02446
1271.12620,0.02437
1269.06602,0.02428
1267.00585,0.02420
1264.94568,0.02417
1262.88551,0.02428
1260.82534,0.02438
1258.76516,0.02435
1256.70499,0.02420
1254.64482,0.02396
1252.58465,0.02374
1250.52447,0.02362
1248.46430,0.02359
1246.40413,0.02353
1244.34396,0.02340
1242.28379,0.02331
1240.22361,0.02332
1238.16344,0.02339
1236.10327,0.02344
1234.04310,0.02337
1231.98293,0.02329
1229.92275,0.02325
1227.86258,0.02313
1225.80241,0.02296
1223.74224,0.02290
1221.68207,0.02290
1219.62189,0.02290
1217.56172,0.02290
1215.50155,0.02281
1213.44138,0.02265
1211.38120,0.02254
1209.32103,0.02257
1207.26086,0.02269
1205.20069,0.02286
1203.14052,0.02305
1201.08034,0.02324
1199.02017,0.02335
1196.96000,0.02364
1194.89983,0.02393
1192.83966,0.02411
1190.77948,0.02435
1188.71931,0.02474
1186.65914,0.02527
1184.59897,0.02596
1182.53880,0.02660
1180.47862,0.02718
1178.41845,0.02782
1176.35828,0.02832
1174.29811,0.02877
1172.23793,0.02949
1170.17776,0.03032
1168.11759,0.03098
1166.05742,0.03154
1163.99725,0.03221
1161.93707,0.03299
1159.87690,0.03376
1157.81673,0.03449
1155.75656,0.03521
1153.69639,0.03585
1151.63621,0.03650
1149.57604,0.03724
1147.51587,0.03799
1145.45570,0.03864
1143.39552,0.03920
1141.33535,0.03971
1139.27518,0.04019
1137.21501,0.04057
1135.15484,0.04092
1133.09466,0.04131
1131.03449,0.04159
1128.97432,0.04182
1126.91415,0.04220
1124.85398,0.04268
1122.79380,0.04319
1120.73363,0.04373
1118.67346,0.04422
1116.61329,0.04470
1114.55312,0.04535
1112.49294,0.04611
1110.43277,0.04684
1108.37260,0.04760
1106.31243,0.04846
1104.25225,0.04934
1102.19208,0.05019
1100.13191,0.05108
1098.07174,0.05195
1096.01157,0.05268
1093.95139,0.05331
1091.89122,0.05398
1089.83105,0.05477
1087.77088,0.05558
1085.71071,0.05624
1083.65053,0.05679
1081.59036,0.05744
1079.53019,0.05833
1077.47002,0.05924
1075.40985,0.05991
1073.34967,0.06042
1071.28950,0.06083
1069.22933,0.06102
1067.16916,0.06100
1065.10898,0.06083
1063.04881,0.06057
1060.98864,0.06020
1058.92847,0.05972
1056.86830,0.05911
1054.80812,0.05835
1052.74795,0.05745
1050.68778,0.05634
1048.62761,0.05509
1046.56744,0.05394
1044.50726,0.05292
1042.44709,0.05178
1040.38692,0.05036
1038.32675,0.04885
1036.26657,0.04718
1034.20640,0.04534
1032.14623,0.04385
1030.08606,0.04289
1028.02589,0.04199
1025.96571,0.04100
1023.90554,0.04004
1021.84537,0.03910
1019.78520,0.03826
1017.72503,0.03765
1015.66485,0.03725
1013.60468,0.03705
1011.54451,0.03713
1009.48434,0.03743
1007.42417,0.03767
1005.36399,0.03788
1003.30382,0.03838
1001.24365,0.03920
999.18348,0.04019
997.12330,0.04127
995.06313,0.04217
993.00296,0.04275
990.94279,0.04328
988.88262,0.04396
986.82244,0.04466
984.76227,0.04523
982.70210,0.04567
980.64193,0.04594
978.58176,0.04601
976.52158,0.04607
974.46141,0.04617
972.40124,0.04618
970.34107,0.04592
968.28089,0.04539
966.22072,0.04485
964.16055,0.04448
962.10038,0.04407
960.04021,0.04355
957.98003,0.04305
955.91986,0.04271
953.85969,0.04253
951.79952,0.04236
949.73935,0.04200
947.67917,0.04159
945.61900,0.04134
943.55883,0.04116
941.49866,0.04088
939.43849,0.04039
937.37831,0.03971
935.31814,0.03907
933.25797,0.03852
931.19780,0.03801
929.13762,0.03742
927.07745,0.03679
925.01728,0.03627
922.95711,0.03578
920.89694,0.03508
918.83676,0.03433
916.77659,0.03369
914.71642,0.03309
912.65625,0.03258
910.59608,0.03210
908.53590,0.03156
906.47573,0.03107
904.41556,0.03074
902.35539,0.03066
900.29522,0.03065
898.23504,0.03043
896.17487,0.03018
894.11470,0.03014
892.05453,0.03032
889.99435,0.03065
887.93418,0.03103
885.87401,0.03158
883.81384,0.03232
881.75367,0.03293
879.69349,0.03339
877.63332,0.03407
875.57315,0.03503
873.51298,0.03616
871.45281,0.03741
869.39263,0.03871
867.33246,0.03985
865.27229,0.04084
863.21212,0.04180
861.15194,0.04263
859.09177,0.04341
857.03160,0.04409
854.97143,0.04429
852.91126,0.04419
850.85108,0.04415
848.79091,0.04392
846.73074,0.04344
844.67057,0.04292
842.61040,0.04236
840.55022,0.04172
838.49005,0.04084
836.42988,0.03975
834.36971,0.03885
832.30954,0.03826
830.24936,0.03772
828.18919,0.03713
826.12902,0.03636
824.06885,0.03549
822.00867,0.03503
819.94850,0.03485
817.88833,0.03436
815.82816,0.03362
813.76799,0.03313
811.70781,0.03263
809.64764,0.03186
807.58747,0.03144
805.52730,0.03154
803.46713,0.03158
801.40695,0.03132
799.34678,0.03083
797.28661,0.03017
795.22644,0.02951
793.16627,0.02900
791.10609,0.02857
789.04592,0.02829
786.98575,0.02826
784.92558,0.02835
782.86540,0.02828
780.80523,0.02793
778.74506,0.02757
776.68489,0.02740
774.62472,0.02717
772.56454,0.02703
770.50437,0.02724
768.44420,0.02719
766.38403,0.02669
764.32386,0.02643
762.26368,0.02645
760.20351,0.02616
758.14334,0.02561
756.08317,0.02522
754.02299,0.02519
751.96282,0.02540
749.90265,0.02538
747.84248,0.02495
745.78231,0.02457
743.72213,0.02433
741.66196,0.02403
739.60179,0.02372
737.54162,0.02358
735.48145,0.02380
733.42127,0.02420
731.36110,0.02439
729.30093,0.02426
727.24076,0.02387
725.18059,0.02342
723.12041,0.02369
721.06024,0.02266
719.00007,0.02463
716.93990,0.02428
714.87972,0.02335
712.81955,0.02297
710.75938,0.02295
708.69921,0.02305
706.63904,0.02328
704.57886,0.02386
702.51869,0.02439
700.45852,0.02462
698.39835,0.02450
696.33818,0.02437
694.27800,0.02483
692.21783,0.02583
690.15766,0.02676
688.09749,0.02734
686.03731,0.02816
683.97714,0.02943
681.91697,0.03027
679.85680,0.03005
677.79663,0.02899
675.73645,0.02747
673.67628,0.02932
671.61611,0.04229
669.55594,0.04077
667.49577,0.00000
665.43559,0.03266
663.37542,0.03105
661.31525,0.02346
659.25508,0.02285
657.19491,0.02329
655.13473,0.02248
653.07456,0.02212
651.01439,0.02192
648.95422,0.01997
646.89404,0.01930
644.83387,0.01817
642.77370,0.01712
640.71353,0.01600
638.65336,0.01464
636.59318,0.01331
634.53301,0.01232
632.47284,0.01170
630.41267,0.01082
628.35250,0.00908
626.29232,0.00780
624.23215,0.00768
622.17198,0.00768
620.11181,0.00681
618.05164,0.00550
615.99146,0.00481
613.93129,0.00458
611.87112,0.00394
609.81095,0.00300
607.75077,0.00243
605.69060,0.00223
603.63043,0.00174
601.57026,0.00069
599.51009,0.00000
