3996.73391,0.00048
3994.67373,0.00040
3992.61356,0.00082
3990.55339,0.00126
3988.49322,0.00105
3986.43305,0.00036
3984.37287,0.00000
3982.31270,0.00015
3980.25253,0.00037
3978.19236,0.00064
3976.13219,0.00093
3974.07201,0.00086
3972.01184,0.00042
3969.95167,0.00003
3967.89150,0.00000
3965.83133,0.00034
3963.77115,0.00082
3961.71098,0.00128
3959.65081,0.00156
3957.59064,0.00150
3955.53046,0.00123
3953.47029,0.00110
3951.41012,0.00115
3949.34995,0.00126
3947.28978,0.00126
3945.22960,0.00107
3943.16943,0.00082
3941.10926,0.00072
3939.04909,0.00088
3936.98892,0.00111
3934.92874,0.00106
3932.86857,0.00073
3930.80840,0.00044
3928.74823,0.00053
3926.68805,0.00099
3924.62788,0.00142
3922.56771,0.00142
3920.50754,0.00101
3918.44737,0.00053
3916.38719,0.00035
3914.32702,0.00049
3912.26685,0.00075
3910.20668,0.00088
3908.14651,0.00088
3906.08633,0.00099
3904.02616,0.00127
3901.96599,0.00131
3899.90582,0.00086
3897.84565,0.00058
3895.78547,0.00090
3893.72530,0.00131
3891.66513,0.00147
3889.60496,0.00138
3887.54478,0.00102
3885.48461,0.00067
3883.42444,0.00079
3881.36427,0.00113
3879.30410,0.00130
3877.24392,0.00109
3875.18375,0.00061
3873.12358,0.00070
3871.06341,0.00170
3869.00324,0.00234
3866.94306,0.00218
3864.88289,0.00218
3862.82272,0.00233
3860.76255,0.00194
3858.70237,0.00129
3856.64220,0.00075
3854.58203,0.00021
3852.52186,0.00000
3850.46169,0.00051
3848.40151,0.00118
3846.34134,0.00141
3844.28117,0.00102
3842.22100,0.00048
3840.16083,0.00050
3838.10065,0.00104
3836.04048,0.00121
3833.98031,0.00082
3831.92014,0.00034
3829.85997,0.00026
3827.79979,0.00080
3825.73962,0.00153
3823.67945,0.00176
3821.61928,0.00136
3819.55910,0.00105
3817.49893,0.00124
3815.43876,0.00129
3813.37859,0.00101
3811.31842,0.00097
3809.25824,0.00128
3807.19807,0.00160
3805.13790,0.00161
3803.07773,0.00108
3801.01756,0.00027
3798.95738,0.00008
3796.89721,0.00047
3794.83704,0.00065
3792.77687,0.00055
3790.71670,0.00044
3788.65652,0.00030
3786.59635,0.00041
3784.53618,0.00103
3782.47601,0.00150
3780.41583,0.00112
3778.35566,0.00047
3776.29549,0.00054
3774.23532,0.00112
3772.17515,0.00139
3770.11497,0.00106
3768.05480,0.00063
3765.99463,0.00054
3763.93446,0.00077
3761.87429,0.00115
3759.81411,0.00136
3757.75394,0.00120
3755.69377,0.00112
3753.63360,0.00166
3751.57342,0.00204
3749.51325,0.00120
3747.45308,0.00028
3745.39291,0.00000
3743.33274,0.00001
3741.27256,0.00055
3739.21239,0.00139
3737.15222,0.00183
3735.09205,0.00141
3733.03188,0.00061
3730.97170,0.00019
3728.91153,0.00040
3726.85136,0.00116
3724.79119,0.00212
3722.73102,0.00282
3720.67084,0.00264
3718.61067,0.00173
3716.55050,0.00112
3714.49033,0.00115
3712.43015,0.00132
3710.36998,0.00120
3708.30981,0.00098
3706.24964,0.00117
3704.18947,0.00166
3702.12929,0.00179
3700.06912,0.00144
3698.00895,0.00108
3695.94878,0.00107
3693.88861,0.00165
3691.82843,0.00260
3689.76826,0.00300
3687.70809,0.00250
3685.64792,0.00196
3683.58775,0.00163
3681.52757,0.00117
3679.46740,0.00084
3677.40723,0.00140
3675.34706,0.00236
3673.28688,0.00219
3671.22671,0.00146
3669.16654,0.00150
3667.10637,0.00194
3665.04620,0.00209
3662.98602,0.00221
3660.92585,0.00234
3658.86568,0.00225
3656.80551,0.00220
3654.74534,0.00229
3652.68516,0.00220
3650.62499,0.00190
3648.56482,0.00184
3646.50465,0.00229
3644.44447,0.00293
3642.38430,0.00356
3640.32413,0.00391
3638.26396,0.00387
3636.20379,0.00391
3634.14361,0.00440
3632.08344,0.00505
3630.02327,0.00515
3627.96310,0.00432
3625.90293,0.00348
3623.84275,0.00338
3621.78258,0.00381
3619.72241,0.00437
3617.66224,0.00483
3615.60207,0.00509
3613.54189,0.00519
3611.48172,0.00542
3609.42155,0.00593
3607.36138,0.00648
3605.30120,0.00687
3603.24103,0.00706
3601.18086,0.00693
3599.12069,0.00657
3597.06052,0.00672
3595.00034,0.00747
3592.94017,0.00781
3590.88000,0.00759
3588.81983,0.00746
3586.75966,0.00731
3584.69948,0.00707
3582.63931,0.00717
3580.57914,0.00755
3578.51897,0.00799
3576.45879,0.00850
3574.39862,0.00893
3572.33845,0.00899
3570.27828,0.00880
3568.21811,0.00875
3566.15793,0.00898
3564.09776,0.00932
3562.03759,0.00952
3559.97742,0.00943
3557.91725,0.00930
3555.85707,0.00956
3553.79690,0.01017
3551.73673,0.01059
3549.67656,0.01036
3547.61639,0.01001
3545.55621,0.01040
3543.49604,0.01128
3541.43587,0.01182
3539.37570,0.01196
3537.31552,0.01188
3535.25535,0.01164
3533.19518,0.01143
3531.13501,0.01131
3529.07484,0.01122
3527.01466,0.01133
3524.95449,0.01190
3522.89432,0.01269
3520.83415,0.01310
3518.77398,0.01312
3516.71380,0.01321
3514.65363,0.01343
3512.59346,0.01358
3510.53329,0.01370
3508.47312,0.01380
3506.41294,0.01393
3504.35277,0.01434
3502.29260,0.01480
3500.23243,0.01491
3498.17225,0.01482
3496.11208,0.01479
3494.05191,0.01488
3491.99174,0.01501
3489.93157,0.01495
3487.87139,0.01486
3485.81122,0.01522
3483.75105,0.01581
3481.69088,0.01595
3479.63071,0.01592
3477.57053,0.01606
3475.51036,0.01611
3473.45019,0.01611
3471.39002,0.01612
3469.32984,0.01603
3467.26967,0.01624
3465.20950,0.01677
3463.14933,0.01692
3461.08916,0.01673
3459.02898,0.01682
3456.96881,0.01712
3454.90864,0.01730
3452.84847,0.01753
3450.78830,0.01781
3448.72812,0.01793
3446.66795,0.01807
3444.60778,0.01848
3442.54761,0.01899
3440.48744,0.01930
3438.42726,0.01929
3436.36709,0.01904
3434.30692,0.01883
3432.24675,0.01872
3430.18657,0.01861
3428.12640,0.01850
3426.06623,0.01845
3424.00606,0.01831
3421.94589,0.01801
3419.88571,0.01811
3417.82554,0.01894
3415.76537,0.01962
3413.70520,0.01950
3411.64503,0.01941
3409.58485,0.01995
3407.52468,0.02033
3405.46451,0.02022
3403.40434,0.01994
3401.34416,0.01958
3399.28399,0.01949
3397.22382,0.02001
3395.16365,0.02067
3393.10348,0.02089
3391.04330,0.02075
3388.98313,0.02057
3386.92296,0.02040
3384.86279,0.02051
3382.80262,0.02082
3380.74244,0.02090
3378.68227,0.02098
3376.62210,0.02131
3374.56193,0.02148
3372.50176,0.02156
3370.44158,0.02174
3368.38141,0.02164
3366.32124,0.02141
3364.26107,0.02141
3362.20089,0.02159
3360.14072,0.02196
3358.08055,0.02237
3356.02038,0.02244
3353.96021,0.02228
3351.90003,0.02223
3349.83986,0.02226
3347.77969,0.02224
3345.71952,0.02215
3343.65935,0.02210
3341.59917,0.02204
3339.53900,0.02195
3337.47883,0.02180
3335.41866,0.02165
3333.35849,0.02159
3331.29831,0.02155
3329.23814,0.02160
3327.17797,0.02182
3325.11780,0.02221
3323.05762,0.02284
3320.99745,0.02354
3318.93728,0.02392
3316.87711,0.02381
3314.81694,0.02342
3312.75676,0.02339
3310.69659,0.02382
3308.63642,0.02397
3306.57625,0.02366
3304.51608,0.02330
3302.45590,0.02310
3300.39573,0.02305
3298.33556,0.02307
3296.27539,0.02304
3294.21521,0.02310
3292.15504,0.02341
3290.09487,0.02383
3288.03470,0.02404
3285.97453,0.02392
3283.91435,0.02375
3281.85418,0.02383
3279.79401,0.02374
3277.73384,0.02344
3275.67367,0.02338
3273.61349,0.02358
3271.55332,0.02368
3269.49315,0.02348
3267.43298,0.02330
3265.37281,0.02362
3263.31263,0.02426
3261.25246,0.02452
3259.19229,0.02432
3257.13212,0.02412
3255.07194,0.02404
3253.01177,0.02391
3250.95160,0.02363
3248.89143,0.02355
3246.83126,0.02384
3244.77108,0.02397
3242.71091,0.02380
3240.65074,0.02388
3238.59057,0.02405
3236.53040,0.02377
3234.47022,0.02332
3232.41005,0.02303
3230.34988,0.02299
3228.28971,0.02319
3226.22954,0.02320
3224.16936,0.02303
3222.10919,0.02315
3220.04902,0.02348
3217.98885,0.02371
3215.92867,0.02374
3213.86850,0.02368
3211.80833,0.02403
3209.74816,0.02466
3207.68799,0.02469
3205.62781,0.02413
3203.56764,0.02377
3201.50747,0.02396
3199.44730,0.02425
3197.38713,0.02417
3195.32695,0.02397
3193.26678,0.02396
3191.20661,0.02375
3189.14644,0.02326
3187.08626,0.02321
3185.02609,0.02355
3182.96592,0.02355
3180.90575,0.02322
3178.84558,0.02309
3176.78540,0.02317
3174.72523,0.02298
3172.66506,0.02263
3170.60489,0.02269
3168.54472,0.02306
3166.48454,0.02322
3164.42437,0.02319
3162.36420,0.02314
3160.30403,0.02292
3158.24386,0.02264
3156.18368,0.02270
3154.12351,0.02310
3152.06334,0.02344
3150.00317,0.02365
3147.94299,0.02364
3145.88282,0.02325
3143.82265,0.02274
3141.76248,0.02239
3139.70231,0.02216
3137.64213,0.02205
3135.58196,0.02196
3133.52179,0.02196
3131.46162,0.02212
3129.40145,0.02219
3127.34127,0.02220
3125.28110,0.02235
3123.22093,0.02236
3121.16076,0.02219
3119.10058,0.02203
3117.04041,0.02174
3114.98024,0.02151
3112.92007,0.02170
3110.85990,0.02187
3108.79972,0.02161
3106.73955,0.02139
3104.67938,0.02148
3102.61921,0.02167
3100.55904,0.02164
3098.49886,0.02125
3096.43869,0.02079
3094.37852,0.02049
3092.31835,0.02041
3090.25818,0.02064
3088.19800,0.02094
3086.13783,0.02102
3084.07766,0.02117
3082.01749,0.02138
3079.95731,0.02127
3077.89714,0.02115
3075.83697,0.02115
3073.77680,0.02090
3071.71663,0.02055
3069.65645,0.02041
3067.59628,0.02046
3065.53611,0.02057
3063.47594,0.02057
3061.41577,0.02039
3059.35559,0.02021
3057.29542,0.02017
3055.23525,0.02020
3053.17508,0.02021
3051.11491,0.02014
3049.05473,0.01983
3046.99456,0.01935
3044.93439,0.01904
3042.87422,0.01915
3040.81404,0.01927
3038.75387,0.01903
3036.69370,0.01881
3034.63353,0.01903
3032.57336,0.01927
3030.51318,0.01902
3028.45301,0.01857
3026.39284,0.01840
3024.33267,0.01836
3022.27250,0.01840
3020.21232,0.01856
3018.15215,0.01842
3016.09198,0.01780
3014.03181,0.01735
3011.97163,0.01745
3009.91146,0.01774
3007.85129,0.01804
3005.79112,0.01823
3003.73095,0.01815
3001.67077,0.01787
2999.61060,0.01762
2997.55043,0.01749
2995.49026,0.01725
2993.43009,0.01696
2991.36991,0.01691
2989.30974,0.01707
2987.24957,0.01729
2985.18940,0.01742
2983.12923,0.01746
2981.06905,0.01758
2979.00888,0.01756
2976.94871,0.01731
2974.88854,0.01711
2972.82836,0.01694
2970.76819,0.01692
2968.70802,0.01708
2966.64785,0.01700
2964.58768,0.01665
2962.52750,0.01650
2960.46733,0.01672
2958.40716,0.01683
2956.34699,0.01682
2954.28682,0.01690
2952.22664,0.01687
2950.16647,0.01678
2948.10630,0.01671
2946.04613,0.01663
2943.98596,0.01653
2941.92578,0.01634
2939.86561,0.01621
2937.80544,0.01633
2935.74527,0.01648
2933.68509,0.01649
2931.62492,0.01659
2929.56475,0.01662
2927.50458,0.01631
2925.44441,0.01601
2923.38423,0.01619
2921.32406,0.01653
2919.26389,0.01637
2917.20372,0.01582
2915.14355,0.01537
2913.08337,0.01516
2911.02320,0.01522
2908.96303,0.01536
2906.90286,0.01535
2904.84268,0.01528
2902.78251,0.01522
2900.72234,0.01526
2898.66217,0.01542
2896.60200,0.01538
2894.54182,0.01517
2892.48165,0.01488
2890.42148,0.01448
2888.36131,0.01433
2886.30114,0.01460
2884.24096,0.01488
2882.18079,0.01483
2880.12062,0.01443
2878.06045,0.01419
2876.00028,0.01428
2873.94010,0.01428
2871.87993,0.01423
2869.81976,0.01422
2867.75959,0.01410
2865.69941,0.01393
2863.63924,0.01366
2861.57907,0.01343
2859.51890,0.01346
2857.45873,0.01325
2855.39855,0.01272
2853.33838,0.01264
2851.27821,0.01296
2849.21804,0.01296
2847.15787,0.01279
2845.09769,0.01279
2843.03752,0.01276
2840.97735,0.01265
2838.91718,0.01252
2836.85700,0.01241
2834.79683,0.01229
2832.73666,0.01203
2830.67649,0.01176
2828.61632,0.01183
2826.55614,0.01214
2824.49597,0.01232
2822.43580,0.01220
2820.37563,0.01195
2818.31546,0.01183
2816.25528,0.01182
2814.19511,0.01178
2812.13494,0.01183
2810.07477,0.01189
2808.01460,0.01175
2805.95442,0.01160
2803.89425,0.01153
2801.83408,0.01140
2799.77391,0.01127
2797.71373,0.01123
2795.65356,0.01117
2793.59339,0.01112
2791.53322,0.01101
2789.47305,0.01083
2787.41287,0.01092
2785.35270,0.01103
2783.29253,0.01080
2781.23236,0.01051
2779.17219,0.01032
2777.11201,0.01026
2775.05184,0.01029
2772.99167,0.01016
2770.93150,0.00991
2768.87133,0.00961
2766.81115,0.00933
2764.75098,0.00917
2762.69081,0.00920
2760.63064,0.00944
2758.57046,0.00965
2756.51029,0.00962
2754.45012,0.00959
2752.38995,0.00979
2750.32978,0.00981
2748.26960,0.00948
2746.20943,0.00925
2744.14926,0.00925
2742.08909,0.00929
2740.02892,0.00929
2737.96874,0.00931
2735.90857,0.00916
2733.84840,0.00871
2731.78823,0.00847
2729.72805,0.00874
2727.66788,0.00898
2725.60771,0.00877
2723.54754,0.00846
2721.48737,0.00845
2719.42719,0.00855
2717.36702,0.00857
2715.30685,0.00849
2713.24668,0.00830
2711.18651,0.00822
2709.12633,0.00836
2707.06616,0.00838
2705.00599,0.00820
2702.94582,0.00796
2700.88565,0.00766
2698.82547,0.00758
2696.76530,0.00775
2694.70513,0.00781
2692.64496,0.00778
2690.58478,0.00777
2688.52461,0.00770
2686.46444,0.00762
2684.40427,0.00785
2682.34410,0.00820
2680.28392,0.00805
2678.22375,0.00757
2676.16358,0.00729
2674.10341,0.00729
2672.04324,0.00735
2669.98306,0.00728
2667.92289,0.00722
2665.86272,0.00729
2663.80255,0.00745
2661.74238,0.00768
2659.68220,0.00782
2657.62203,0.00752
2655.56186,0.00689
2653.50169,0.00665
2651.44151,0.00702
2649.38134,0.00742
2647.32117,0.00747
2645.26100,0.00741
2643.20083,0.00744
2641.14065,0.00751
2639.08048,0.00743
2637.02031,0.00721
2634.96014,0.00702
2632.89997,0.00682
2630.83979,0.00662
2628.77962,0.00649
2626.71945,0.00630
2624.65928,0.00623
2622.59910,0.00653
2620.53893,0.00667
2618.47876,0.00644
2616.41859,0.00623
2614.35842,0.00620
2612.29824,0.00617
2610.23807,0.00616
2608.17790,0.00617
2606.11773,0.00596
2604.05756,0.00593
2601.99738,0.00614
2599.93721,0.00593
2597.87704,0.00566
2595.81687,0.00579
2593.75670,0.00599
2591.69652,0.00610
2589.63635,0.00619
2587.57618,0.00614
2585.51601,0.00602
2583.45583,0.00592
2581.39566,0.00574
2579.33549,0.00561
2577.27532,0.00566
2575.21515,0.00570
2573.15497,0.00554
2571.09480,0.00551
2569.03463,0.00586
2566.97446,0.00598
2564.91429,0.00546
2562.85411,0.00499
2560.79394,0.00502
2558.73377,0.00534
2556.67360,0.00563
2554.61342,0.00555
2552.55325,0.00540
2550.49308,0.00542
2548.43291,0.00523
2546.37274,0.00492
2544.31256,0.00470
2542.25239,0.00489
2540.19222,0.00579
2538.13205,0.00626
2536.07188,0.00585
2534.01170,0.00557
2531.95153,0.00527
2529.89136,0.00472
2527.83119,0.00464
2525.77102,0.00522
2523.71084,0.00609
2521.65067,0.00657
2519.59050,0.00624
2517.53033,0.00589
2515.47015,0.00602
2513.40998,0.00615
2511.34981,0.00600
2509.28964,0.00576
2507.22947,0.00566
2505.16929,0.00566
2503.10912,0.00551
2501.04895,0.00541
2498.98878,0.00556
2496.92861,0.00566
2494.86843,0.00576
2492.80826,0.00586
2490.74809,0.00584
2488.68792,0.00594
2486.62775,0.00609
2484.56757,0.00587
2482.50740,0.00543
2480.44723,0.00528
2478.38706,0.00552
2476.32688,0.00576
2474.26671,0.00571
2472.20654,0.00551
2470.14637,0.00539
2468.08620,0.00546
2466.02602,0.00577
2463.96585,0.00605
2461.90568,0.00617
2459.84551,0.00624
2457.78534,0.00607
2455.72516,0.00581
2453.66499,0.00598
2451.60482,0.00637
2449.54465,0.00653
2447.48447,0.00660
2445.42430,0.00639
2443.36413,0.00575
2441.30396,0.00528
2439.24379,0.00530
2437.18361,0.00550
2435.12344,0.00560
2433.06327,0.00570
2431.00310,0.00591
2428.94293,0.00580
2426.88275,0.00517
2424.82258,0.00478
2422.76241,0.00516
2420.70224,0.00578
2418.64207,0.00607
2416.58189,0.00632
2414.52172,0.00659
2412.46155,0.00675
2410.40138,0.00678
2408.34120,0.00663
2406.28103,0.00641
2404.22086,0.00615
2402.16069,0.00581
2400.10052,0.00558
2398.04034,0.00574
2395.98017,0.00613
2393.92000,0.00624
2391.85983,0.00594
2389.79966,0.00564
2387.73948,0.00552
2385.67931,0.00547
2383.61914,0.00565
2381.55897,0.00595
2379.49880,0.00606
2377.43862,0.00623
2375.37845,0.00689
2373.31828,0.00755
2371.25811,0.00679
2369.19793,0.00397
2367.13776,0.00077
2365.07759,0.00000
2363.01742,0.00304
2360.95725,0.00776
2358.89707,0.00999
2356.83690,0.00914
2354.77673,0.00781
2352.71656,0.00699
2350.65639,0.00617
2348.59621,0.00537
2346.53604,0.00507
2344.47587,0.00568
2342.41570,0.00664
2340.35552,0.00624
2338.29535,0.00478
2336.23518,0.00466
2334.17501,0.00597
2332.11484,0.00683
2330.05466,0.00650
2327.99449,0.00571
2325.93432,0.00555
2323.87415,0.00610
2321.81398,0.00642
2319.75380,0.00647
2317.69363,0.00702
2315.63346,0.00774
2313.57329,0.00760
2311.51312,0.00661
2309.45294,0.00560
2307.39277,0.00526
2305.33260,0.00571
2303.27243,0.00630
2301.21225,0.00635
2299.15208,0.00608
2297.09191,0.00599
2295.03174,0.00611
2292.97157,0.00610
2290.91139,0.00607
2288.85122,0.00649
2286.79105,0.00697
2284.73088,0.00674
2282.67071,0.00611
2280.61053,0.00585
2278.55036,0.00601
2276.49019,0.00613
2274.43002,0.00572
2272.36984,0.00481
2270.30967,0.00414
2268.24950,0.00402
2266.18933,0.00418
2264.12916,0.00479
2262.06898,0.00553
2260.00881,0.00528
2257.94864,0.00456
2255.88847,0.00467
2253.82830,0.00528
2251.76812,0.00526
2249.70795,0.00457
2247.64778,0.00438
2245.58761,0.00479
2243.52744,0.00451
2241.46726,0.00437
2239.40709,0.00561
2237.34692,0.00668
2235.28675,0.00593
2233.22657,0.00416
2231.16640,0.00317
2229.10623,0.00350
2227.04606,0.00385
2224.98589,0.00296
2222.92571,0.00162
2220.86554,0.00183
2218.80537,0.00351
2216.74520,0.00493
2214.68503,0.00568
2212.62485,0.00572
2210.56468,0.00535
2208.50451,0.00504
2206.44434,0.00469
2204.38417,0.00475
2202.32399,0.00515
2200.26382,0.00492
2198.20365,0.00405
2196.14348,0.00290
2194.08330,0.00184
2192.02313,0.00182
2189.96296,0.00248
2187.90279,0.00302
2185.84262,0.00283
2183.78244,0.00146
2181.72227,0.00061
2179.66210,0.00159
2177.60193,0.00259
2175.54176,0.00228
2173.48158,0.00149
2171.42141,0.00128
2169.36124,0.00232
2167.30107,0.00430
2165.24089,0.00595
2163.18072,0.00468
2161.12055,0.00083
2159.06038,0.00000
2157.00021,0.00250
2154.94003,0.00331
2152.87986,0.00278
2150.81969,0.00343
2148.75952,0.00432
2146.69935,0.00375
2144.63917,0.00232
2142.57900,0.00150
2140.51883,0.00176
2138.45866,0.00274
2136.39849,0.00402
2134.33831,0.00470
2132.27814,0.00361
2130.21797,0.00198
2128.15780,0.00175
2126.09762,0.00216
2124.03745,0.00203
2121.97728,0.00161
2119.91711,0.00151
2117.85694,0.00199
2115.79676,0.00275
2113.73659,0.00308
2111.67642,0.00267
2109.61625,0.00259
2107.55608,0.00328
2105.49590,0.00345
2103.43573,0.00266
2101.37556,0.00203
2099.31539,0.00220
2097.25521,0.00260
2095.19504,0.00275
2093.13487,0.00289
2091.07470,0.00318
2089.01453,0.00319
2086.95435,0.00302
2084.89418,0.00332
2082.83401,0.00401
2080.77384,0.00498
2078.71367,0.00572
2076.65349,0.00566
2074.59332,0.00548
2072.53315,0.00515
2070.47298,0.00395
2068.41281,0.00260
2066.35263,0.00202
2064.29246,0.00225
2062.23229,0.00294
2060.17212,0.00340
2058.11194,0.00365
2056.05177,0.00414
2053.99160,0.00450
2051.93143,0.00421
2049.87126,0.00338
2047.81108,0.00286
2045.75091,0.00310
2043.69074,0.00341
2041.63057,0.00347
2039.57040,0.00338
2037.51022,0.00318
2035.45005,0.00305
2033.38988,0.00264
2031.32971,0.00199
2029.26954,0.00240
2027.20936,0.00332
2025.14919,0.00269
2023.08902,0.00128
2021.02885,0.00046
2018.96867,0.00020
2016.90850,0.00033
2014.84833,0.00040
2012.78816,0.00086
2010.72799,0.00208
2008.66781,0.00307
2006.60764,0.00315
2004.54747,0.00257
2002.48730,0.00137
2000.42713,0.00000
1998.36695,0.00000
1996.30678,0.00136
1994.24661,0.00261
1992.18644,0.00325
1990.12626,0.00298
1988.06609,0.00181
1986.00592,0.00123
1983.94575,0.00271
1981.88558,0.00537
1979.82540,0.00638
1977.76523,0.00485
1975.70506,0.00289
1973.64489,0.00164
1971.58472,0.00142
1969.52454,0.00183
1967.46437,0.00197
1965.40420,0.00196
1963.34403,0.00204
1961.28386,0.00229
1959.22368,0.00246
1957.16351,0.00264
1955.10334,0.00312
1953.04317,0.00353
1950.98299,0.00361
1948.92282,0.00326
1946.86265,0.00262
1944.80248,0.00249
1942.74231,0.00280
1940.68213,0.00282
1938.62196,0.00291
1936.56179,0.00312
1934.50162,0.00316
1932.44145,0.00293
1930.38127,0.00218
1928.32110,0.00180
1926.26093,0.00254
1924.20076,0.00304
1922.14059,0.00228
1920.08041,0.00162
1918.02024,0.00197
1915.96007,0.00231
1913.89990,0.00213
1911.83972,0.00207
1909.77955,0.00253
1907.71938,0.00283
1905.65921,0.00237
1903.59904,0.00172
1901.53886,0.00173
1899.47869,0.00233
1897.41852,0.00278
1895.35835,0.00259
1893.29818,0.00201
1891.23800,0.00178
1889.17783,0.00222
1887.11766,0.00255
1885.05749,0.00241
1882.99731,0.00229
1880.93714,0.00207
1878.87697,0.00178
1876.81680,0.00202
1874.75663,0.00254
1872.69645,0.00248
1870.63628,0.00180
1868.57611,0.00133
1866.51594,0.00158
1864.45577,0.00212
1862.39559,0.00234
1860.33542,0.00222
1858.27525,0.00230
1856.21508,0.00263
1854.15491,0.00281
1852.09473,0.00250
1850.03456,0.00189
1847.97439,0.00169
1845.91422,0.00204
1843.85404,0.00239
1841.79387,0.00238
1839.73370,0.00227
1837.67353,0.00220
1835.61336,0.00193
1833.55318,0.00146
1831.49301,0.00133
1829.43284,0.00189
1827.37267,0.00256
1825.31250,0.00257
1823.25232,0.00205
1821.19215,0.00152
1819.13198,0.00123
1817.07181,0.00128
1815.01163,0.00176
1812.95146,0.00234
1810.89129,0.00251
1808.83112,0.00234
1806.77095,0.00228
1804.71077,0.00236
1802.65060,0.00236
1800.59043,0.00234
1798.53026,0.00233
1796.47009,0.00228
1794.40991,0.00217
1792.34974,0.00200
1790.28957,0.00187
1788.22940,0.00188
1786.16923,0.00204
1784.10905,0.00230
1782.04888,0.00251
1779.98871,0.00251
1777.92854,0.00236
1775.86836,0.00221
1773.80819,0.00208
1771.74802,0.00188
1769.68785,0.00189
1767.62768,0.00250
1765.56750,0.00342
1763.50733,0.00397
1761.44716,0.00373
1759.38699,0.00311
1757.32682,0.00283
1755.26664,0.00299
1753.20647,0.00323
1751.14630,0.00337
1749.08613,0.00352
1747.02596,0.00369
1744.96578,0.00377
1742.90561,0.00384
1740.84544,0.00392
1738.78527,0.00388
1736.72509,0.00370
1734.66492,0.00341
1732.60475,0.00317
1730.54458,0.00330
1728.48441,0.00377
1726.42423,0.00436
1724.36406,0.00477
1722.30389,0.00479
1720.24372,0.00458
1718.18355,0.00463
1716.12337,0.00496
1714.06320,0.00496
1712.00303,0.00464
1709.94286,0.00455
1707.88268,0.00478
1705.82251,0.00500
1703.76234,0.00524
1701.70217,0.00571
1699.64200,0.00608
1697.58182,0.00616
1695.52165,0.00636
1693.46148,0.00693
1691.40131,0.00773
1689.34114,0.00841
1687.28096,0.00879
1685.22079,0.00911
1683.16062,0.00958
1681.10045,0.01008
1679.04028,0.01055
1676.98010,0.01100
1674.91993,0.01144
1672.85976,0.01190
1670.79959,0.01235
1668.73941,0.01262
1666.67924,0.01269
1664.61907,0.01281
1662.55890,0.01312
1660.49873,0.01355
1658.43855,0.01394
1656.37838,0.01415
1654.31821,0.01401
1652.25804,0.01370
1650.19787,0.01383
1648.13769,0.01425
1646.07752,0.01437
1644.01735,0.01404
1641.95718,0.01361
1639.89701,0.01329
1637.83683,0.01310
1635.77666,0.01291
1633.71649,0.01270
1631.65632,0.01248
1629.59614,0.01227
1627.53597,0.01221
1625.47580,0.01230
1623.41563,0.01199
1621.35546,0.01131
1619.29528,0.01089
1617.23511,0.01058
1615.17494,0.01002
1613.11477,0.00957
1611.05460,0.00935
1608.99442,0.00922
1606.93425,0.00908
1604.87408,0.00883
1602.81391,0.00845
1600.75373,0.00808
1598.69356,0.00789
1596.63339,0.00784
1594.57322,0.00776
1592.51305,0.00758
1590.45287,0.00735
1588.39270,0.00721
1586.33253,0.00719
1584.27236,0.00719
1582.21219,0.00719
1580.15201,0.00726
1578.09184,0.00719
1576.03167,0.00678
1573.97150,0.00647
1571.91133,0.00654
1569.85115,0.00662
1567.79098,0.00651
1565.73081,0.00637
1563.67064,0.00636
1561.61046,0.00638
1559.55029,0.00612
1557.49012,0.00591
1555.42995,0.00608
1553.36978,0.00613
1551.30960,0.00599
1549.24943,0.00593
1547.18926,0.00609
1545.12909,0.00643
1543.06892,0.00673
1541.00874,0.00672
1538.94857,0.00633
1536.88840,0.00612
1534.82823,0.00616
1532.76805,0.00601
1530.70788,0.00561
1528.64771,0.00538
1526.58754,0.00549
1524.52737,0.00577
1522.46719,0.00579
1520.40702,0.00530
1518.34685,0.00482
1516.28668,0.00466
1514.22651,0.00467
1512.16633,0.00482
1510.10616,0.00508
1508.04599,0.00496
1505.98582,0.00421
1503.92565,0.00367
1501.86547,0.00360
1499.80530,0.00370
1497.74513,0.00376
1495.68496,0.00365
1493.62478,0.00350
1491.56461,0.00360
1489.50444,0.00380
1487.44427,0.00355
1485.38410,0.00291
1483.32392,0.00242
1481.26375,0.00237
1479.20358,0.00268
1477.14341,0.00306
1475.08324,0.00330
1473.02306,0.00334
1470.96289,0.00329
1468.90272,0.00342
1466.84255,0.00369
1464.78238,0.00377
1462.72220,0.00366
1460.66203,0.00367
1458.60186,0.00372
1456.54169,0.00365
1454.48151,0.00364
1452.42134,0.00375
1450.36117,0.00394
1448.30100,0.00417
1446.24083,0.00430
1444.18065,0.00420
1442.12048,0.00399
1440.06031,0.00394
1438.00014,0.00412
1435.93997,0.00425
1433.87979,0.00414
1431.81962,0.00387
1429.75945,0.00355
1427.69928,0.00339
1425.63910,0.00352
1423.57893,0.00382
1421.51876,0.00409
1419.45859,0.00426
1417.39842,0.00413
1415.33824,0.00380
1413.27807,0.00358
1411.21790,0.00348
1409.15773,0.00339
1407.09756,0.00337
1405.03738,0.00340
1402.97721,0.00345
1400.91704,0.00348
1398.85687,0.00344
1396.79670,0.00330
1394.73652,0.00307
1392.67635,0.00286
1390.61618,0.00293
1388.55601,0.00316
1386.49583,0.00317
1384.43566,0.00297
1382.37549,0.00284
1380.31532,0.00282
1378.25515,0.00283
1376.19497,0.00293
1374.13480,0.00309
1372.07463,0.00314
1370.01446,0.00307
1367.95429,0.00291
1365.89411,0.00272
1363.83394,0.00265
1361.77377,0.00266
1359.71360,0.00264
1357.65343,0.00259
1355.59325,0.00255
1353.53308,0.00254
1351.47291,0.00249
1349.41274,0.00247
1347.35256,0.00250
1345.29239,0.00247
1343.23222,0.00244
1341.17205,0.00258
1339.11188,0.00269
1337.05170,0.00248
1334.99153,0.00212
1332.93136,0.00202
1330.87119,0.00222
1328.81102,0.00237
1326.75084,0.00232
1324.69067,0.00243
1322.63050,0.00264
1320.57033,0.00257
1318.51015,0.00232
1316.44998,0.00230
1314.38981,0.00248
1312.32964,0.00266
1310.26947,0.00272
1308.20929,0.00259
1306.14912,0.00256
1304.08895,0.00280
1302.02878,0.00284
1299.96861,0.00266
1297.90843,0.00271
1295.84826,0.00301
1293.78809,0.00320
1291.72792,0.00311
1289.66775,0.00291
1287.60757,0.00289
1285.54740,0.00302
1283.48723,0.00323
1281.42706,0.00350
1279.36688,0.00364
1277.30671,0.00342
1275.24654,0.00298
1273.18637,0.00274
1271.12620,0.00292
1269.06602,0.00318
1267.00585,0.00317
1264.94568,0.00303
1262.88551,0.00287
1260.82534,0.00269
1258.76516,0.00273
1256.70499,0.00297
1254.64482,0.00308
1252.58465,0.00312
1250.52447,0.00329
1248.46430,0.00334
1246.40413,0.00317
1244.34396,0.00294
1242.28379,0.00269
1240.22361,0.00251
1238.16344,0.00252
1236.10327,0.00246
1234.04310,0.00209
1231.98293,0.00189
1229.92275,0.00205
1227.86258,0.00212
1225.80241,0.00191
1223.74224,0.00160
1221.68207,0.00135
1219.62189,0.00116
1217.56172,0.00095
1215.50155,0.00080
1213.44138,0.00087
1211.38120,0.00108
1209.32103,0.00108
1207.26086,0.00088
1205.20069,0.00070
1203.14052,0.00049
1201.08034,0.00020
1199.02017,0.00000
1196.96000,0.00010
1194.89983,0.00033
1192.83966,0.00034
1190.77948,0.00029
1188.71931,0.00042
1186.65914,0.00052
1184.59897,0.00045
1182.53880,0.00041
1180.47862,0.00045
1178.41845,0.00043
1176.35828,0.00047
1174.29811,0.00078
1172.23793,0.00114
1170.17776,0.00129
1168.11759,0.00144
1166.05742,0.00163
1163.99725,0.00176
1161.93707,0.00198
1159.87690,0.00223
1157.81673,0.00266
1155.75656,0.00332
1153.69639,0.00374
1151.63621,0.00391
1149.57604,0.00422
1147.51587,0.00463
1145.45570,0.00498
1143.39552,0.00546
1141.33535,0.00624
1139.27518,0.00698
1137.21501,0.00737
1135.15484,0.00753
1133.09466,0.00788
1131.03449,0.00867
1128.97432,0.00956
1126.91415,0.01023
1124.85398,0.01093
1122.79380,0.01170
1120.73363,0.01240
1118.67346,0.01313
1116.61329,0.01392
1114.55312,0.01465
1112.49294,0.01534
1110.43277,0.01608
1108.37260,0.01696
1106.31243,0.01804
1104.25225,0.01900
1102.19208,0.01972
1100.13191,0.02044
1098.07174,0.02107
1096.01157,0.02154
1093.95139,0.02213
1091.89122,0.02268
1089.83105,0.02294
1087.77088,0.02335
1085.71071,0.02399
1083.65053,0.02447
1081.59036,0.02487
1079.53019,0.02542
1077.47002,0.02597
1075.40985,0.02626
1073.34967,0.02638
1071.28950,0.02648
1069.22933,0.02656
1067.16916,0.02671
1065.10898,0.02704
1063.04881,0.02737
1060.98864,0.02740
1058.92847,0.02707
1056.86830,0.02671
1054.80812,0.02651
1052.74795,0.02611
1050.68778,0.02527
1048.62761,0.02441
1046.56744,0.02374
1044.50726,0.02290
1042.44709,0.02177
1040.38692,0.02071
1038.32675,0.01971
1036.26657,0.01859
1034.20640,0.01772
1032.14623,0.01708
1030.08606,0.01619
1028.02589,0.01523
1025.96571,0.01448
1023.90554,0.01381
1021.84537,0.01311
1019.78520,0.01227
1017.72503,0.01159
1015.66485,0.01149
1013.60468,0.01155
1011.54451,0.01138
1009.48434,0.01141
1007.42417,0.01181
1005.36399,0.01209
1003.30382,0.01212
1001.24365,0.01225
999.18348,0.01284
997.12330,0.01383
995.06313,0.01484
993.00296,0.01552
990.94279,0.01591
988.88262,0.01642
986.82244,0.01703
984.76227,0.01752
982.70210,0.01782
980.64193,0.01783
978.58176,0.01770
976.52158,0.01747
974.46141,0.01721
972.40124,0.01734
970.34107,0.01743
968.28089,0.01674
966.22072,0.01556
964.16055,0.01478
962.10038,0.01449
960.04021,0.01417
957.98003,0.01357
955.91986,0.01280
953.85969,0.01206
951.79952,0.01131
949.73935,0.01048
947.67917,0.00968
945.61900,0.00915
943.55883,0.00880
941.49866,0.00831
939.43849,0.00749
937.37831,0.00666
935.31814,0.00625
933.25797,0.00605
931.19780,0.00588
929.13762,0.00575
927.07745,0.00551
925.01728,0.00530
922.95711,0.00520
920.89694,0.00485
918.83676,0.00412
916.77659,0.00361
914.71642,0.00364
912.65625,0.00345
910.59608,0.00290
908.53590,0.00264
906.47573,0.00261
904.41556,0.00280
902.35539,0.00327
900.29522,0.00366
898.23504,0.00401
896.17487,0.00438
894.11470,0.00445
892.05453,0.00449
889.99435,0.00491
887.93418,0.00506
885.87401,0.00494
883.81384,0.00524
881.75367,0.00584
879.69349,0.00653
877.63332,0.00713
875.57315,0.00748
873.51298,0.00756
871.45281,0.00752
869.39263,0.00794
867.33246,0.00888
865.27229,0.00934
863.21212,0.00864
861.15194,0.00765
859.09177,0.00749
857.03160,0.00787
854.97143,0.00855
852.91126,0.00943
850.85108,0.00990
848.79091,0.00988
846.73074,0.00947
844.67057,0.00855
842.61040,0.00785
840.55022,0.00812
838.49005,0.00885
836.42988,0.00895
834.36971,0.00792
832.30954,0.00656
830.24936,0.00571
828.18919,0.00524
826.12902,0.00527
824.06885,0.00554
822.00867,0.00569
819.94850,0.00606
817.88833,0.00619
815.82816,0.00558
813.76799,0.00518
811.70781,0.00522
809.64764,0.00477
807.58747,0.00411
805.52730,0.00421
803.46713,0.00474
801.40695,0.00484
799.34678,0.00459
797.28661,0.00434
795.22644,0.00387
793.16627,0.00359
791.10609,0.00359
789.04592,0.00325
786.98575,0.00281
784.92558,0.00258
782.86540,0.00263
780.80523,0.00329
778.74506,0.00399
776.68489,0.00417
774.62472,0.00404
772.56454,0.00383
770.50437,0.00426
768.44420,0.00466
766.38403,0.00397
764.32386,0.00361
762.26368,0.00391
760.20351,0.00351
758.14334,0.00289
756.08317,0.00260
754.02299,0.00288
751.96282,0.00424
749.90265,0.00498
747.84248,0.00392
745.78231,0.00242
743.72213,0.00127
741.66196,0.00087
739.60179,0.00178
737.54162,0.00286
735.48145,0.00313
733.42127,0.00340
731.36110,0.00401
729.30093,0.00440
727.24076,0.00422
725.18059,0.00356
723.12041,0.00313
721.06024,0.00296
719.00007,0.00271
716.93990,0.00258
714.87972,0.00286
712.81955,0.00334
710.75938,0.00382
708.69921,0.00437
706.63904,0.00476
704.57886,0.00457
702.51869,0.00406
700.45852,0.00379
698.39835,0.00371
696.33818,0.00353
694.27800,0.00377
692.21783,0.00476
690.15766,0.00566
688.09749,0.00603
686.03731,0.00641
683.97714,0.00704
681.91697,0.00751
679.85680,0.00728
677.79663,0.00629
675.73645,0.00482
673.67628,0.00333
671.61611,0.00201
669.55594,0.00058
667.49577,0.00000
665.43559,0.00106
663.37542,0.00295
661.31525,0.00485
659.25508,0.00615
657.19491,0.00646
655.13473,0.00613
653.07456,0.00584
651.01439,0.00611
648.95422,0.00685
646.89404,0.00729
644.83387,0.00658
642.77370,0.00428
640.71353,0.00202
638.65336,0.00136
636.59318,0.00083
634.53301,0.00000
632.47284,0.00069
630.41267,0.00219
628.35250,0.00145
626.29232,-0.00112
624.23215,0.00001
622.17198,0.00443
620.11181,0.00591
618.05164,0.00247
615.99146,-0.00056
613.93129,-0.00001
611.87112,0.00064
609.81095,0.00017
607.75077,0.00048
605.69060,-0.00075
603.63043,-0.00222
601.57026,-0.00058
599.51009,0.00000
