3996.73391,0.00052
3994.67373,0.00081
3992.61356,0.00082
3990.55339,0.00051
3988.49322,0.00031
3986.43305,0.00039
3984.37287,0.00042
3982.31270,0.00032
3980.25253,0.00046
3978.19236,0.00084
3976.13219,0.00092
3974.07201,0.00062
3972.01184,0.00042
3969.95167,0.00049
3967.89150,0.00061
3965.83133,0.00081
3963.77115,0.00118
3961.71098,0.00137
3959.65081,0.00101
3957.59064,0.00036
3955.53046,0.00000
3953.47029,0.00004
3951.41012,0.00033
3949.34995,0.00090
3947.28978,0.00143
3945.22960,0.00151
3943.16943,0.00132
3941.10926,0.00100
3939.04909,0.00078
3936.98892,0.00094
3934.92874,0.00131
3932.86857,0.00160
3930.80840,0.00172
3928.74823,0.00164
3926.68805,0.00144
3924.62788,0.00131
3922.56771,0.00130
3920.50754,0.00125
3918.44737,0.00114
3916.38719,0.00106
3914.32702,0.00121
3912.26685,0.00149
3910.20668,0.00143
3908.14651,0.00102
3906.08633,0.00098
3904.02616,0.00156
3901.96599,0.00195
3899.90582,0.00176
3897.84565,0.00148
3895.78547,0.00126
3893.72530,0.00109
3891.66513,0.00099
3889.60496,0.00075
3887.54478,0.00065
3885.48461,0.00107
3883.42444,0.00154
3881.36427,0.00169
3879.30410,0.00149
3877.24392,0.00087
3875.18375,0.00047
3873.12358,0.00089
3871.06341,0.00169
3869.00324,0.00206
3866.94306,0.00191
3864.88289,0.00184
3862.82272,0.00198
3860.76255,0.00181
3858.70237,0.00132
3856.64220,0.00125
3854.58203,0.00198
3852.52186,0.00267
3850.46169,0.00227
3848.40151,0.00150
3846.34134,0.00097
3844.28117,0.00072
3842.22100,0.00075
3840.16083,0.00094
3838.10065,0.00115
3836.04048,0.00128
3833.98031,0.00127
3831.92014,0.00110
3829.85997,0.00083
3827.79979,0.00070
3825.73962,0.00093
3823.67945,0.00143
3821.61928,0.00189
3819.55910,0.00196
3817.49893,0.00144
3815.43876,0.00081
3813.37859,0.00049
3811.31842,0.00050
3809.25824,0.00058
3807.19807,0.00065
3805.13790,0.00085
3803.07773,0.00128
3801.01756,0.00161
3798.95738,0.00135
3796.89721,0.00097
3794.83704,0.00100
3792.77687,0.00125
3790.71670,0.00138
3788.65652,0.00118
3786.59635,0.00076
3784.53618,0.00047
3782.47601,0.00040
3780.41583,0.00058
3778.35566,0.00092
3776.29549,0.00108
3774.23532,0.00110
3772.17515,0.00122
3770.11497,0.00134
3768.05480,0.00130
3765.99463,0.00117
3763.93446,0.00105
3761.87429,0.00118
3759.81411,0.00159
3757.75394,0.00178
3755.69377,0.00159
3753.63360,0.00134
3751.57342,0.00135
3749.51325,0.00197
3747.45308,0.00281
3745.39291,0.00340
3743.33274,0.00341
3741.27256,0.00311
3739.21239,0.00349
3737.15222,0.00435
3735.09205,0.00426
3733.03188,0.00290
3730.97170,0.00214
3728.91153,0.00238
3726.85136,0.00256
3724.79119,0.00230
3722.73102,0.00207
3720.67084,0.00218
3718.61067,0.00242
3716.55050,0.00275
3714.49033,0.00283
3712.43015,0.00247
3710.36998,0.00212
3708.30981,0.00179
3706.24964,0.00164
3704.18947,0.00168
3702.12929,0.00188
3700.06912,0.00208
3698.00895,0.00212
3695.94878,0.00219
3693.88861,0.00210
3691.82843,0.00195
3689.76826,0.00214
3687.70809,0.00235
3685.64792,0.00219
3683.58775,0.00215
3681.52757,0.00225
3679.46740,0.00225
3677.40723,0.00244
3675.34706,0.00327
3673.28688,0.00402
3671.22671,0.00412
3669.16654,0.00393
3667.10637,0.00377
3665.04620,0.00364
3662.98602,0.00353
3660.92585,0.00350
3658.86568,0.00364
3656.80551,0.00410
3654.74534,0.00469
3652.68516,0.00500
3650.62499,0.00528
3648.56482,0.00579
3646.50465,0.00600
3644.44447,0.00586
3642.38430,0.00574
3640.32413,0.00576
3638.26396,0.00585
3636.20379,0.00599
3634.14361,0.00623
3632.08344,0.00673
3630.02327,0.00769
3627.96310,0.00878
3625.90293,0.00908
3623.84275,0.00892
3621.78258,0.00885
3619.72241,0.00896
3617.66224,0.00916
3615.60207,0.00958
3613.54189,0.01049
3611.48172,0.01134
3609.42155,0.01174
3607.36138,0.01191
3605.30120,0.01205
3603.24103,0.01225
3601.18086,0.01239
3599.12069,0.01259
3597.06052,0.01291
3595.00034,0.01326
3592.94017,0.01343
3590.88000,0.01363
3588.81983,0.01396
3586.75966,0.01428
3584.69948,0.01439
3582.63931,0.01460
3580.57914,0.01488
3578.51897,0.01495
3576.45879,0.01496
3574.39862,0.01505
3572.33845,0.01529
3570.27828,0.01605
3568.21811,0.01731
3566.15793,0.01806
3564.09776,0.01794
3562.03759,0.01791
3559.97742,0.01822
3557.91725,0.01829
3555.85707,0.01814
3553.79690,0.01822
3551.73673,0.01867
3549.67656,0.01941
3547.61639,0.02039
3545.55621,0.02109
3543.49604,0.02088
3541.43587,0.02028
3539.37570,0.02022
3537.31552,0.02077
3535.25535,0.02133
3533.19518,0.02157
3531.13501,0.02179
3529.07484,0.02231
3527.01466,0.02313
3524.95449,0.02371
3522.89432,0.02353
3520.83415,0.02298
3518.77398,0.02290
3516.71380,0.02340
3514.65363,0.02395
3512.59346,0.02444
3510.53329,0.02506
3508.47312,0.02556
3506.41294,0.02574
3504.35277,0.02609
3502.29260,0.02675
3500.23243,0.02691
3498.17225,0.02649
3496.11208,0.02648
3494.05191,0.02695
3491.99174,0.02700
3489.93157,0.02691
3487.87139,0.02736
3485.81122,0.02792
3483.75105,0.02831
3481.69088,0.02892
3479.63071,0.02954
3477.57053,0.02975
3475.51036,0.02945
3473.45019,0.02906
3471.39002,0.02932
3469.32984,0.03010
3467.26967,0.03066
3465.20950,0.03104
3463.14933,0.03158
3461.08916,0.03186
3459.02898,0.03170
3456.96881,0.03180
3454.90864,0.03232
3452.84847,0.03262
3450.78830,0.03247
3448.72812,0.03238
3446.66795,0.03280
3444.60778,0.03336
3442.54761,0.03350
3440.48744,0.03337
3438.42726,0.03345
3436.36709,0.03384
3434.30692,0.03413
3432.24675,0.03423
3430.18657,0.03435
3428.12640,0.03453
3426.06623,0.03469
3424.00606,0.03490
3421.94589,0.03543
3419.88571,0.03622
3417.82554,0.03669
3415.76537,0.03639
3413.70520,0.03568
3411.64503,0.03546
3409.58485,0.03609
3407.52468,0.03675
3405.46451,0.03707
3403.40434,0.03735
3401.34416,0.03754
3399.28399,0.03766
3397.22382,0.03735
3395.16365,0.03715
3393.10348,0.03753
3391.04330,0.03808
3388.98313,0.03808
3386.92296,0.03787
3384.86279,0.03810
3382.80262,0.03836
3380.74244,0.03831
3378.68227,0.03849
3376.62210,0.03903
3374.56193,0.03940
3372.50176,0.03935
3370.44158,0.03907
3368.38141,0.03923
3366.32124,0.03985
3364.26107,0.04019
3362.20089,0.04000
3360.14072,0.03969
3358.08055,0.03960
3356.02038,0.03962
3353.96021,0.03953
3351.90003,0.03962
3349.83986,0.04011
3347.77969,0.04055
3345.71952,0.04056
3343.65935,0.04045
3341.59917,0.04047
3339.53900,0.04045
3337.47883,0.04028
3335.41866,0.04006
3333.35849,0.03999
3331.29831,0.04021
3329.23814,0.04057
3327.17797,0.04085
3325.11780,0.04087
3323.05762,0.04062
3320.99745,0.04049
3318.93728,0.04063
3316.87711,0.04096
3314.81694,0.04139
3312.75676,0.04156
3310.69659,0.04136
3308.63642,0.04101
3306.57625,0.04098
3304.51608,0.04148
3302.45590,0.04193
3300.39573,0.04198
3298.33556,0.04202
3296.27539,0.04204
3294.21521,0.04195
3292.15504,0.04191
3290.09487,0.04208
3288.03470,0.04230
3285.97453,0.04224
3283.91435,0.04195
3281.85418,0.04177
3279.79401,0.04159
3277.73384,0.04143
3275.67367,0.04161
3273.61349,0.04198
3271.55332,0.04213
3269.49315,0.04200
3267.43298,0.04170
3265.37281,0.04151
3263.31263,0.04156
3261.25246,0.04170
3259.19229,0.04192
3257.13212,0.04231
3255.07194,0.04259
3253.01177,0.04239
3250.95160,0.04197
3248.89143,0.04185
3246.83126,0.04205
3244.77108,0.04230
3242.71091,0.04245
3240.65074,0.04239
3238.59057,0.04221
3236.53040,0.04210
3234.47022,0.04207
3232.41005,0.04223
3230.34988,0.04255
3228.28971,0.04265
3226.22954,0.04252
3224.16936,0.04250
3222.10919,0.04257
3220.04902,0.04251
3217.98885,0.04235
3215.92867,0.04233
3213.86850,0.04228
3211.80833,0.04193
3209.74816,0.04170
3207.68799,0.04180
3205.62781,0.04174
3203.56764,0.04154
3201.50747,0.04165
3199.44730,0.04189
3197.38713,0.04174
3195.32695,0.04140
3193.26678,0.04120
3191.20661,0.04113
3189.14644,0.04110
3187.08626,0.04103
3185.02609,0.04107
3182.96592,0.04132
3180.90575,0.04147
3178.84558,0.04130
3176.78540,0.04099
3174.72523,0.04088
3172.66506,0.04103
3170.60489,0.04109
3168.54472,0.04103
3166.48454,0.04108
3164.42437,0.04103
3162.36420,0.04066
3160.30403,0.04027
3158.24386,0.04003
3156.18368,0.03976
3154.12351,0.03942
3152.06334,0.03926
3150.00317,0.03941
3147.94299,0.03970
3145.88282,0.03982
3143.82265,0.03968
3141.76248,0.03943
3139.70231,0.03908
3137.64213,0.03866
3135.58196,0.03848
3133.52179,0.03862
3131.46162,0.03864
3129.40145,0.03837
3127.34127,0.03820
3125.28110,0.03828
3123.22093,0.03833
3121.16076,0.03820
3119.10058,0.03801
3117.04041,0.03783
3114.98024,0.03763
3112.92007,0.03749
3110.85990,0.03746
3108.79972,0.03748
3106.73955,0.03741
3104.67938,0.03721
3102.61921,0.03705
3100.55904,0.03703
3098.49886,0.03689
3096.43869,0.03639
3094.37852,0.03587
3092.31835,0.03577
3090.25818,0.03577
3088.19800,0.03555
3086.13783,0.03538
3084.07766,0.03554
3082.01749,0.03574
3079.95731,0.03575
3077.89714,0.03561
3075.83697,0.03539
3073.77680,0.03509
3071.71663,0.03476
3069.65645,0.03440
3067.59628,0.03411
3065.53611,0.03395
3063.47594,0.03365
3061.41577,0.03332
3059.35559,0.03316
3057.29542,0.03300
3055.23525,0.03289
3053.17508,0.03296
3051.11491,0.03302
3049.05473,0.03285
3046.99456,0.03253
3044.93439,0.03234
3042.87422,0.03227
3040.81404,0.03221
3038.75387,0.03219
3036.69370,0.03213
3034.63353,0.03179
3032.57336,0.03141
3030.51318,0.03123
3028.45301,0.03103
3026.39284,0.03082
3024.33267,0.03079
3022.27250,0.03073
3020.21232,0.03039
3018.15215,0.03006
3016.09198,0.03011
3014.03181,0.03049
3011.97163,0.03071
3009.91146,0.03047
3007.85129,0.02998
3005.79112,0.02957
3003.73095,0.02920
3001.67077,0.02900
2999.61060,0.02904
2997.55043,0.02908
2995.49026,0.02893
2993.43009,0.02881
2991.36991,0.02879
2989.30974,0.02871
2987.24957,0.02860
2985.18940,0.02851
2983.12923,0.02837
2981.06905,0.02831
2979.00888,0.02838
2976.94871,0.02831
2974.88854,0.02817
2972.82836,0.02802
2970.76819,0.02774
2968.70802,0.02752
2966.64785,0.02753
2964.58768,0.02749
2962.52750,0.02727
2960.46733,0.02702
2958.40716,0.02686
2956.34699,0.02681
2954.28682,0.02674
2952.22664,0.02658
2950.16647,0.02640
2948.10630,0.02623
2946.04613,0.02599
2943.98596,0.02575
2941.92578,0.02568
2939.86561,0.02571
2937.80544,0.02566
2935.74527,0.02560
2933.68509,0.02560
2931.62492,0.02546
2929.56475,0.02527
2927.50458,0.02519
2925.44441,0.02520
2923.38423,0.02504
2921.32406,0.02457
2919.26389,0.02417
2917.20372,0.02421
2915.14355,0.02442
2913.08337,0.02435
2911.02320,0.02390
2908.96303,0.02344
2906.90286,0.02316
2904.84268,0.02307
2902.78251,0.02333
2900.72234,0.02340
2898.66217,0.02286
2896.60200,0.02242
2894.54182,0.02242
2892.48165,0.02236
2890.42148,0.02207
2888.36131,0.02188
2886.30114,0.02198
2884.24096,0.02194
2882.18079,0.02160
2880.12062,0.02137
2878.06045,0.02138
2876.00028,0.02139
2873.94010,0.02121
2871.87993,0.02089
2869.81976,0.02063
2867.75959,0.02048
2865.69941,0.02039
2863.63924,0.02028
2861.57907,0.02005
2859.51890,0.01981
2857.45873,0.01966
2855.39855,0.01950
2853.33838,0.01925
2851.27821,0.01909
2849.21804,0.01896
2847.15787,0.01856
2845.09769,0.01810
2843.03752,0.01796
2840.97735,0.01815
2838.91718,0.01827
2836.85700,0.01805
2834.79683,0.01781
2832.73666,0.01763
2830.67649,0.01734
2828.61632,0.01704
2826.55614,0.01701
2824.49597,0.01703
2822.43580,0.01690
2820.37563,0.01683
2818.31546,0.01690
2816.25528,0.01683
2814.19511,0.01661
2812.13494,0.01646
2810.07477,0.01628
2808.01460,0.01600
2805.95442,0.01586
2803.89425,0.01583
2801.83408,0.01576
2799.77391,0.01565
2797.71373,0.01558
2795.65356,0.01544
2793.59339,0.01515
2791.53322,0.01502
2789.47305,0.01502
2787.41287,0.01490
2785.35270,0.01480
2783.29253,0.01467
2781.23236,0.01445
2779.17219,0.01432
2777.11201,0.01428
2775.05184,0.01420
2772.99167,0.01403
2770.93150,0.01381
2768.87133,0.01374
2766.81115,0.01387
2764.75098,0.01399
2762.69081,0.01402
2760.63064,0.01395
2758.57046,0.01385
2756.51029,0.01370
2754.45012,0.01355
2752.38995,0.01352
2750.32978,0.01358
2748.26960,0.01363
2746.20943,0.01353
2744.14926,0.01325
2742.08909,0.01295
2740.02892,0.01264
2737.96874,0.01231
2735.90857,0.01208
2733.84840,0.01193
2731.78823,0.01197
2729.72805,0.01218
2727.66788,0.01234
2725.60771,0.01228
2723.54754,0.01196
2721.48737,0.01163
2719.42719,0.01157
2717.36702,0.01162
2715.30685,0.01159
2713.24668,0.01162
2711.18651,0.01179
2709.12633,0.01180
2707.06616,0.01164
2705.00599,0.01163
2702.94582,0.01161
2700.88565,0.01119
2698.82547,0.01077
2696.76530,0.01064
2694.70513,0.01057
2692.64496,0.01048
2690.58478,0.01041
2688.52461,0.01050
2686.46444,0.01074
2684.40427,0.01070
2682.34410,0.01038
2680.28392,0.01020
2678.22375,0.01019
2676.16358,0.01030
2674.10341,0.01036
2672.04324,0.01019
2669.98306,0.00982
2667.92289,0.00966
2665.86272,0.00979
2663.80255,0.00972
2661.74238,0.00948
2659.68220,0.00937
2657.62203,0.00933
2655.56186,0.00930
2653.50169,0.00924
2651.44151,0.00922
2649.38134,0.00937
2647.32117,0.00936
2645.26100,0.00915
2643.20083,0.00917
2641.14065,0.00919
2639.08048,0.00902
2637.02031,0.00883
2634.96014,0.00864
2632.89997,0.00847
2630.83979,0.00834
2628.77962,0.00839
2626.71945,0.00844
2624.65928,0.00830
2622.59910,0.00817
2620.53893,0.00814
2618.47876,0.00792
2616.41859,0.00764
2614.35842,0.00764
2612.29824,0.00776
2610.23807,0.00789
2608.17790,0.00793
2606.11773,0.00780
2604.05756,0.00761
2601.99738,0.00746
2599.93721,0.00756
2597.87704,0.00764
2595.81687,0.00746
2593.75670,0.00730
2591.69652,0.00720
2589.63635,0.00711
2587.57618,0.00735
2585.51601,0.00791
2583.45583,0.00828
2581.39566,0.00805
2579.33549,0.00743
2577.27532,0.00714
2575.21515,0.00722
2573.15497,0.00716
2571.09480,0.00703
2569.03463,0.00709
2566.97446,0.00732
2564.91429,0.00743
2562.85411,0.00742
2560.79394,0.00735
2558.73377,0.00699
2556.67360,0.00675
2554.61342,0.00694
2552.55325,0.00711
2550.49308,0.00708
2548.43291,0.00706
2546.37274,0.00727
2544.31256,0.00750
2542.25239,0.00747
2540.19222,0.00728
2538.13205,0.00708
2536.07188,0.00713
2534.01170,0.00735
2531.95153,0.00738
2529.89136,0.00722
2527.83119,0.00697
2525.77102,0.00672
2523.71084,0.00681
2521.65067,0.00711
2519.59050,0.00712
2517.53033,0.00692
2515.47015,0.00680
2513.40998,0.00701
2511.34981,0.00764
2509.28964,0.00817
2507.22947,0.00822
2505.16929,0.00807
2503.10912,0.00797
2501.04895,0.00809
2498.98878,0.00833
2496.92861,0.00810
2494.86843,0.00737
2492.80826,0.00684
2490.74809,0.00689
2488.68792,0.00727
2486.62775,0.00749
2484.56757,0.00762
2482.50740,0.00766
2480.44723,0.00756
2478.38706,0.00752
2476.32688,0.00745
2474.26671,0.00753
2472.20654,0.00774
2470.14637,0.00781
2468.08620,0.00798
2466.02602,0.00826
2463.96585,0.00818
2461.90568,0.00797
2459.84551,0.00787
2457.78534,0.00756
2455.72516,0.00727
2453.66499,0.00731
2451.60482,0.00764
2449.54465,0.00818
2447.48447,0.00853
2445.42430,0.00862
2443.36413,0.00863
2441.30396,0.00848
2439.24379,0.00819
2437.18361,0.00796
2435.12344,0.00770
2433.06327,0.00755
2431.00310,0.00784
2428.94293,0.00830
2426.88275,0.00851
2424.82258,0.00836
2422.76241,0.00818
2420.70224,0.00825
2418.64207,0.00821
2416.58189,0.00811
2414.52172,0.00823
2412.46155,0.00850
2410.40138,0.00854
2408.34120,0.00826
2406.28103,0.00798
2404.22086,0.00785
2402.16069,0.00787
2400.10052,0.00803
2398.04034,0.00749
2395.98017,0.00752
2393.92000,0.00766
2391.85983,0.00776
2389.79966,0.00824
2387.73948,0.00919
2385.67931,0.01027
2383.61914,0.01102
2381.55897,0.01129
2379.49880,0.01152
2377.43862,0.01222
2375.37845,0.01269
2373.31828,0.01301
2371.25811,0.01322
2369.19793,0.01247
2367.13776,0.01197
2365.07759,0.01195
2363.01742,0.00909
2360.95725,0.00753
2358.89707,0.00770
2356.83690,0.01048
2354.77673,0.01317
2352.71656,0.01432
2350.65639,0.01849
2348.59621,0.02099
2346.53604,0.01515
2344.47587,0.01323
2342.41570,0.01423
2340.35552,0.01528
2338.29535,0.01634
2336.23518,0.01622
2334.17501,0.01554
2332.11484,0.01496
2330.05466,0.01542
2327.99449,0.01545
2325.93432,0.01602
2323.87415,0.01500
2321.81398,0.01355
2319.75380,0.01264
2317.69363,0.01375
2315.63346,0.01397
2313.57329,0.01318
2311.51312,0.01297
2309.45294,0.01323
2307.39277,0.01323
2305.33260,0.01282
2303.27243,0.01220
2301.21225,0.01121
2299.15208,0.01071
2297.09191,0.01078
2295.03174,0.01089
2292.97157,0.01083
2290.91139,0.01049
2288.85122,0.00992
2286.79105,0.00946
2284.73088,0.00921
2282.67071,0.00868
2280.61053,0.00777
2278.55036,0.00708
2276.49019,0.00707
2274.43002,0.00777
2272.36984,0.00840
2270.30967,0.00831
2268.24950,0.00788
2266.18933,0.00766
2264.12916,0.00760
2262.06898,0.00755
2260.00881,0.00733
2257.94864,0.00733
2255.88847,0.00791
2253.82830,0.00850
2251.76812,0.00788
2249.70795,0.00653
2247.64778,0.00654
2245.58761,0.00680
2243.52744,0.00644
2241.46726,0.00630
2239.40709,0.00661
2237.34692,0.00696
2235.28675,0.00693
2233.22657,0.00640
2231.16640,0.00598
2229.10623,0.00600
2227.04606,0.00611
2224.98589,0.00591
2222.92571,0.00553
2220.86554,0.00604
2218.80537,0.00747
2216.74520,0.00827
2214.68503,0.00769
2212.62485,0.00605
2210.56468,0.00513
2208.50451,0.00637
2206.44434,0.00743
2204.38417,0.00661
2202.32399,0.00531
2200.26382,0.00460
2198.20365,0.00486
2196.14348,0.00566
2194.08330,0.00636
2192.02313,0.00680
2189.96296,0.00702
2187.90279,0.00725
2185.84262,0.00723
2183.78244,0.00650
2181.72227,0.00543
2179.66210,0.00448
2177.60193,0.00321
2175.54176,0.00234
2173.48158,0.00373
2171.42141,0.00656
2169.36124,0.00739
2167.30107,0.00529
2165.24089,0.00354
2163.18072,0.00375
2161.12055,0.00397
2159.06038,0.00318
2157.00021,0.00183
2154.94003,0.00149
2152.87986,0.00272
2150.81969,0.00357
2148.75952,0.00289
2146.69935,0.00208
2144.63917,0.00238
2142.57900,0.00308
2140.51883,0.00349
2138.45866,0.00371
2136.39849,0.00349
2134.33831,0.00319
2132.27814,0.00373
2130.21797,0.00491
2128.15780,0.00603
2126.09762,0.00640
2124.03745,0.00593
2121.97728,0.00569
2119.91711,0.00598
2117.85694,0.00595
2115.79676,0.00550
2113.73659,0.00526
2111.67642,0.00515
2109.61625,0.00509
2107.55608,0.00523
2105.49590,0.00492
2103.43573,0.00443
2101.37556,0.00469
2099.31539,0.00569
2097.25521,0.00638
2095.19504,0.00588
2093.13487,0.00487
2091.07470,0.00427
2089.01453,0.00460
2086.95435,0.00506
2084.89418,0.00501
2082.83401,0.00513
2080.77384,0.00554
2078.71367,0.00567
2076.65349,0.00535
2074.59332,0.00459
2072.53315,0.00382
2070.47298,0.00361
2068.41281,0.00375
2066.35263,0.00395
2064.29246,0.00426
2062.23229,0.00445
2060.17212,0.00432
2058.11194,0.00377
2056.05177,0.00295
2053.99160,0.00288
2051.93143,0.00343
2049.87126,0.00314
2047.81108,0.00269
2045.75091,0.00275
2043.69074,0.00209
2041.63057,0.00141
2039.57040,0.00190
2037.51022,0.00174
2035.45005,0.00038
2033.38988,0.00000
2031.32971,0.00088
2029.26954,0.00186
2027.20936,0.00275
2025.14919,0.00275
2023.08902,0.00148
2021.02885,0.00100
2018.96867,0.00182
2016.90850,0.00194
2014.84833,0.00104
2012.78816,-0.00007
2010.72799,-0.00019
2008.66781,0.00091
2006.60764,0.00127
2004.54747,0.00060
2002.48730,0.00061
2000.42713,0.00163
1998.36695,0.00268
1996.30678,0.00318
1994.24661,0.00300
1992.18644,0.00269
1990.12626,0.00352
1988.06609,0.00526
1986.00592,0.00610
1983.94575,0.00552
1981.88558,0.00433
1979.82540,0.00297
1977.76523,0.00204
1975.70506,0.00159
1973.64489,0.00055
1971.58472,0.00006
1969.52454,0.00153
1967.46437,0.00293
1965.40420,0.00285
1963.34403,0.00264
1961.28386,0.00276
1959.22368,0.00250
1957.16351,0.00170
1955.10334,0.00110
1953.04317,0.00132
1950.98299,0.00195
1948.92282,0.00256
1946.86265,0.00302
1944.80248,0.00316
1942.74231,0.00305
1940.68213,0.00298
1938.62196,0.00293
1936.56179,0.00257
1934.50162,0.00223
1932.44145,0.00243
1930.38127,0.00266
1928.32110,0.00264
1926.26093,0.00249
1924.20076,0.00226
1922.14059,0.00228
1920.08041,0.00248
1918.02024,0.00258
1915.96007,0.00275
1913.89990,0.00286
1911.83972,0.00264
1909.77955,0.00243
1907.71938,0.00265
1905.65921,0.00308
1903.59904,0.00352
1901.53886,0.00377
1899.47869,0.00381
1897.41852,0.00387
1895.35835,0.00381
1893.29818,0.00344
1891.23800,0.00319
1889.17783,0.00330
1887.11766,0.00346
1885.05749,0.00346
1882.99731,0.00338
1880.93714,0.00317
1878.87697,0.00285
1876.81680,0.00261
1874.75663,0.00251
1872.69645,0.00228
1870.63628,0.00198
1868.57611,0.00204
1866.51594,0.00218
1864.45577,0.00204
1862.39559,0.00215
1860.33542,0.00273
1858.27525,0.00329
1856.21508,0.00339
1854.15491,0.00292
1852.09473,0.00234
1850.03456,0.00232
1847.97439,0.00280
1845.91422,0.00318
1843.85404,0.00326
1841.79387,0.00324
1839.73370,0.00328
1837.67353,0.00337
1835.61336,0.00346
1833.55318,0.00342
1831.49301,0.00324
1829.43284,0.00299
1827.37267,0.00273
1825.31250,0.00262
1823.25232,0.00266
1821.19215,0.00267
1819.13198,0.00277
1817.07181,0.00289
1815.01163,0.00291
1812.95146,0.00299
1810.89129,0.00307
1808.83112,0.00299
1806.77095,0.00303
1804.71077,0.00336
1802.65060,0.00374
1800.59043,0.00394
1798.53026,0.00402
1796.47009,0.00400
1794.40991,0.00385
1792.34974,0.00375
1790.28957,0.00368
1788.22940,0.00357
1786.16923,0.00354
1784.10905,0.00358
1782.04888,0.00357
1779.98871,0.00346
1777.92854,0.00311
1775.86836,0.00272
1773.80819,0.00287
1771.74802,0.00366
1769.68785,0.00433
1767.62768,0.00435
1765.56750,0.00405
1763.50733,0.00401
1761.44716,0.00428
1759.38699,0.00453
1757.32682,0.00464
1755.26664,0.00457
1753.20647,0.00444
1751.14630,0.00463
1749.08613,0.00527
1747.02596,0.00587
1744.96578,0.00603
1742.90561,0.00571
1740.84544,0.00520
1738.78527,0.00500
1736.72509,0.00522
1734.66492,0.00580
1732.60475,0.00634
1730.54458,0.00619
1728.48441,0.00574
1726.42423,0.00554
1724.36406,0.00571
1722.30389,0.00598
1720.24372,0.00605
1718.18355,0.00625
1716.12337,0.00696
1714.06320,0.00746
1712.00303,0.00750
1709.94286,0.00735
1707.88268,0.00732
1705.82251,0.00771
1703.76234,0.00832
1701.70217,0.00868
1699.64200,0.00905
1697.58182,0.00960
1695.52165,0.01013
1693.46148,0.01059
1691.40131,0.01108
1689.34114,0.01156
1687.28096,0.01179
1685.22079,0.01210
1683.16062,0.01319
1681.10045,0.01429
1679.04028,0.01472
1676.98010,0.01482
1674.91993,0.01505
1672.85976,0.01554
1670.79959,0.01638
1668.73941,0.01742
1666.67924,0.01801
1664.61907,0.01820
1662.55890,0.01860
1660.49873,0.01927
1658.43855,0.01984
1656.37838,0.02017
1654.31821,0.02038
1652.25804,0.02079
1650.19787,0.02129
1648.13769,0.02162
1646.07752,0.02137
1644.01735,0.02065
1641.95718,0.02002
1639.89701,0.01956
1637.83683,0.01903
1635.77666,0.01839
1633.71649,0.01788
1631.65632,0.01752
1629.59614,0.01710
1627.53597,0.01656
1625.47580,0.01595
1623.41563,0.01528
1621.35546,0.01462
1619.29528,0.01393
1617.23511,0.01329
1615.17494,0.01309
1613.11477,0.01323
1611.05460,0.01314
1608.99442,0.01269
1606.93425,0.01214
1604.87408,0.01161
1602.81391,0.01110
1600.75373,0.01077
1598.69356,0.01060
1596.63339,0.01043
1594.57322,0.01017
1592.51305,0.00987
1590.45287,0.00962
1588.39270,0.00940
1586.33253,0.00920
1584.27236,0.00909
1582.21219,0.00898
1580.15201,0.00879
1578.09184,0.00865
1576.03167,0.00875
1573.97150,0.00884
1571.91133,0.00859
1569.85115,0.00830
1567.79098,0.00840
1565.73081,0.00867
1563.67064,0.00873
1561.61046,0.00851
1559.55029,0.00858
1557.49012,0.00939
1555.42995,0.00995
1553.36978,0.00992
1551.30960,0.00965
1549.24943,0.00945
1547.18926,0.00953
1545.12909,0.00987
1543.06892,0.00991
1541.00874,0.00904
1538.94857,0.00810
1536.88840,0.00799
1534.82823,0.00813
1532.76805,0.00803
1530.70788,0.00786
1528.64771,0.00781
1526.58754,0.00793
1524.52737,0.00797
1522.46719,0.00773
1520.40702,0.00742
1518.34685,0.00734
1516.28668,0.00747
1514.22651,0.00750
1512.16633,0.00744
1510.10616,0.00732
1508.04599,0.00687
1505.98582,0.00609
1503.92565,0.00566
1501.86547,0.00572
1499.80530,0.00574
1497.74513,0.00545
1495.68496,0.00499
1493.62478,0.00462
1491.56461,0.00461
1489.50444,0.00483
1487.44427,0.00465
1485.38410,0.00413
1483.32392,0.00390
1481.26375,0.00399
1479.20358,0.00409
1477.14341,0.00417
1475.08324,0.00432
1473.02306,0.00445
1470.96289,0.00444
1468.90272,0.00443
1466.84255,0.00454
1464.78238,0.00472
1462.72220,0.00483
1460.66203,0.00501
1458.60186,0.00539
1456.54169,0.00549
1454.48151,0.00496
1452.42134,0.00451
1450.36117,0.00432
1448.30100,0.00422
1446.24083,0.00417
1444.18065,0.00421
1442.12048,0.00433
1440.06031,0.00444
1438.00014,0.00451
1435.93997,0.00458
1433.87979,0.00456
1431.81962,0.00444
1429.75945,0.00431
1427.69928,0.00427
1425.63910,0.00435
1423.57893,0.00448
1421.51876,0.00471
1419.45859,0.00511
1417.39842,0.00525
1415.33824,0.00482
1413.27807,0.00440
1411.21790,0.00430
1409.15773,0.00425
1407.09756,0.00420
1405.03738,0.00426
1402.97721,0.00429
1400.91704,0.00432
1398.85687,0.00454
1396.79670,0.00472
1394.73652,0.00448
1392.67635,0.00397
1390.61618,0.00366
1388.55601,0.00367
1386.49583,0.00371
1384.43566,0.00355
1382.37549,0.00332
1380.31532,0.00328
1378.25515,0.00338
1376.19497,0.00343
1374.13480,0.00336
1372.07463,0.00319
1370.01446,0.00301
1367.95429,0.00296
1365.89411,0.00310
1363.83394,0.00332
1361.77377,0.00325
1359.71360,0.00280
1357.65343,0.00239
1355.59325,0.00224
1353.53308,0.00215
1351.47291,0.00195
1349.41274,0.00174
1347.35256,0.00162
1345.29239,0.00153
1343.23222,0.00155
1341.17205,0.00190
1339.11188,0.00238
1337.05170,0.00235
1334.99153,0.00188
1332.93136,0.00151
1330.87119,0.00141
1328.81102,0.00141
1326.75084,0.00143
1324.69067,0.00153
1322.63050,0.00171
1320.57033,0.00186
1318.51015,0.00197
1316.44998,0.00209
1314.38981,0.00212
1312.32964,0.00203
1310.26947,0.00198
1308.20929,0.00208
1306.14912,0.00213
1304.08895,0.00203
1302.02878,0.00205
1299.96861,0.00229
1297.90843,0.00257
1295.84826,0.00276
1293.78809,0.00300
1291.72792,0.00330
1289.66775,0.00348
1287.60757,0.00340
1285.54740,0.00317
1283.48723,0.00298
1281.42706,0.00294
1279.36688,0.00296
1277.30671,0.00303
1275.24654,0.00318
1273.18637,0.00336
1271.12620,0.00346
1269.06602,0.00340
1267.00585,0.00323
1264.94568,0.00297
1262.88551,0.00281
1260.82534,0.00287
1258.76516,0.00292
1256.70499,0.00288
1254.64482,0.00299
1252.58465,0.00320
1250.52447,0.00318
1248.46430,0.00305
1246.40413,0.00304
1244.34396,0.00304
1242.28379,0.00293
1240.22361,0.00264
1238.16344,0.00239
1236.10327,0.00238
1234.04310,0.00244
1231.98293,0.00244
1229.92275,0.00248
1227.86258,0.00241
1225.80241,0.00216
1223.74224,0.00192
1221.68207,0.00169
1219.62189,0.00149
1217.56172,0.00139
1215.50155,0.00125
1213.44138,0.00109
1211.38120,0.00104
1209.32103,0.00099
1207.26086,0.00086
1205.20069,0.00070
1203.14052,0.00053
1201.08034,0.00038
1199.02017,0.00038
1196.96000,0.00047
1194.89983,0.00036
1192.83966,0.00010
1190.77948,0.00000
1188.71931,0.00000
1186.65914,-0.00003
1184.59897,-0.00002
1182.53880,0.00018
1180.47862,0.00051
1178.41845,0.00069
1176.35828,0.00064
1174.29811,0.00055
1172.23793,0.00058
1170.17776,0.00083
1168.11759,0.00121
1166.05742,0.00137
1163.99725,0.00142
1161.93707,0.00155
1159.87690,0.00178
1157.81673,0.00236
1155.75656,0.00316
1153.69639,0.00380
1151.63621,0.00433
1149.57604,0.00477
1147.51587,0.00508
1145.45570,0.00547
1143.39552,0.00610
1141.33535,0.00696
1139.27518,0.00797
1137.21501,0.00899
1135.15484,0.01005
1133.09466,0.01136
1131.03449,0.01270
1128.97432,0.01373
1126.91415,0.01468
1124.85398,0.01593
1122.79380,0.01734
1120.73363,0.01890
1118.67346,0.02068
1116.61329,0.02210
1114.55312,0.02291
1112.49294,0.02403
1110.43277,0.02585
1108.37260,0.02761
1106.31243,0.02899
1104.25225,0.03037
1102.19208,0.03183
1100.13191,0.03322
1098.07174,0.03449
1096.01157,0.03553
1093.95139,0.03636
1091.89122,0.03724
1089.83105,0.03832
1087.77088,0.03945
1085.71071,0.04052
1083.65053,0.04149
1081.59036,0.04234
1079.53019,0.04331
1077.47002,0.04446
1075.40985,0.04535
1073.34967,0.04568
1071.28950,0.04579
1069.22933,0.04597
1067.16916,0.04612
1065.10898,0.04597
1063.04881,0.04540
1060.98864,0.04469
1058.92847,0.04398
1056.86830,0.04292
1054.80812,0.04136
1052.74795,0.03955
1050.68778,0.03770
1048.62761,0.03592
1046.56744,0.03414
1044.50726,0.03201
1042.44709,0.02947
1040.38692,0.02701
1038.32675,0.02501
1036.26657,0.02350
1034.20640,0.02220
1032.14623,0.02064
1030.08606,0.01904
1028.02589,0.01788
1025.96571,0.01689
1023.90554,0.01569
1021.84537,0.01472
1019.78520,0.01423
1017.72503,0.01401
1015.66485,0.01392
1013.60468,0.01391
1011.54451,0.01395
1009.48434,0.01413
1007.42417,0.01462
1005.36399,0.01536
1003.30382,0.01625
1001.24365,0.01738
999.18348,0.01862
997.12330,0.01952
995.06313,0.02044
993.00296,0.02196
990.94279,0.02333
988.88262,0.02393
986.82244,0.02435
984.76227,0.02476
982.70210,0.02503
980.64193,0.02537
978.58176,0.02536
976.52158,0.02453
974.46141,0.02332
972.40124,0.02232
970.34107,0.02134
968.28089,0.01995
966.22072,0.01852
964.16055,0.01736
962.10038,0.01621
960.04021,0.01493
957.98003,0.01368
955.91986,0.01250
953.85969,0.01142
951.79952,0.01046
949.73935,0.00954
947.67917,0.00861
945.61900,0.00773
943.55883,0.00698
941.49866,0.00637
939.43849,0.00571
937.37831,0.00492
935.31814,0.00425
933.25797,0.00408
931.19780,0.00409
929.13762,0.00363
927.07745,0.00303
925.01728,0.00289
922.95711,0.00298
920.89694,0.00300
918.83676,0.00304
916.77659,0.00297
914.71642,0.00291
912.65625,0.00297
910.59608,0.00290
908.53590,0.00278
906.47573,0.00286
904.41556,0.00313
902.35539,0.00347
900.29522,0.00387
898.23504,0.00434
896.17487,0.00444
894.11470,0.00424
892.05453,0.00449
889.99435,0.00522
887.93418,0.00611
885.87401,0.00694
883.81384,0.00741
881.75367,0.00795
879.69349,0.00892
877.63332,0.00954
875.57315,0.00953
873.51298,0.00962
871.45281,0.01003
869.39263,0.01054
867.33246,0.01096
865.27229,0.01102
863.21212,0.01087
861.15194,0.01100
859.09177,0.01153
857.03160,0.01182
854.97143,0.01159
852.91126,0.01126
850.85108,0.01072
848.79091,0.00984
846.73074,0.00914
844.67057,0.00867
842.61040,0.00815
840.55022,0.00767
838.49005,0.00724
836.42988,0.00680
834.36971,0.00629
832.30954,0.00573
830.24936,0.00512
828.18919,0.00412
826.12902,0.00312
824.06885,0.00281
822.00867,0.00281
819.94850,0.00256
817.88833,0.00209
815.82816,0.00174
813.76799,0.00180
811.70781,0.00209
809.64764,0.00225
807.58747,0.00190
805.52730,0.00131
803.46713,0.00105
801.40695,0.00117
799.34678,0.00127
797.28661,0.00090
795.22644,0.00025
793.16627,0.00000
791.10609,0.00009
789.04592,0.00004
786.98575,0.00035
784.92558,0.00098
782.86540,0.00109
780.80523,0.00098
778.74506,0.00126
776.68489,0.00171
774.62472,0.00202
772.56454,0.00217
770.50437,0.00199
768.44420,0.00193
766.38403,0.00241
764.32386,0.00259
762.26368,0.00203
760.20351,0.00152
758.14334,0.00167
756.08317,0.00221
754.02299,0.00272
751.96282,0.00299
749.90265,0.00281
747.84248,0.00263
745.78231,0.00294
743.72213,0.00334
741.66196,0.00322
739.60179,0.00285
737.54162,0.00280
735.48145,0.00283
733.42127,0.00250
731.36110,0.00183
729.30093,0.00142
727.24076,0.00193
725.18059,0.00269
723.12041,0.00391
721.06024,0.00338
719.00007,0.00316
716.93990,0.00253
714.87972,0.00158
712.81955,0.00122
710.75938,0.00148
708.69921,0.00251
706.63904,0.00368
704.57886,0.00417
702.51869,0.00396
700.45852,0.00375
698.39835,0.00428
696.33818,0.00555
694.27800,0.00651
692.21783,0.00612
690.15766,0.00468
688.09749,0.00336
686.03731,0.00295
683.97714,0.00362
681.91697,0.00471
679.85680,0.00497
677.79663,0.00448
675.73645,0.00453
673.67628,0.00654
671.61611,0.00967
669.55594,0.00492
667.49577,0.00000
665.43559,0.01029
663.37542,0.00864
661.31525,0.00596
659.25508,0.00524
657.19491,0.00454
655.13473,0.00428
653.07456,0.00477
651.01439,0.00514
648.95422,0.00540
646.89404,0.00658
644.83387,0.00747
642.77370,0.00766
640.71353,0.00728
638.65336,0.00656
636.59318,0.00533
634.53301,0.00426
632.47284,0.00382
630.41267,0.00311
628.35250,0.00243
626.29232,0.00295
624.23215,0.00366
622.17198,0.00387
620.11181,0.00451
618.05164,0.00582
615.99146,0.00530
613.93129,0.00235
611.87112,0.00028
609.81095,0.00000
607.75077,0.00043
605.69060,0.00129
603.63043,0.00170
601.57026,0.00095
599.51009,0.00000
