3996.73391,-0.00056
3994.67373,-0.00072
3992.61356,-0.00063
3990.55339,-0.00044
3988.49322,-0.00039
3986.43305,-0.00050
3984.37287,-0.00063
3982.31270,-0.00067
3980.25253,-0.00056
3978.19236,-0.00039
3976.13219,-0.00029
3974.07201,-0.00022
3972.01184,-0.00013
3969.95167,-0.00008
3967.89150,-0.00017
3965.83133,-0.00035
3963.77115,-0.00035
3961.71098,-0.00007
3959.65081,0.00022
3957.59064,0.00035
3955.53046,0.00035
3953.47029,0.00028
3951.41012,0.00012
3949.34995,0.00000
3947.28978,0.00011
3945.22960,0.00022
3943.16943,0.00017
3941.10926,0.00026
3939.04909,0.00047
3936.98892,0.00052
3934.92874,0.00049
3932.86857,0.00069
3930.80840,0.00111
3928.74823,0.00138
3926.68805,0.00124
3924.62788,0.00080
3922.56771,0.00046
3920.50754,0.00045
3918.44737,0.00056
3916.38719,0.00072
3914.32702,0.00088
3912.26685,0.00085
3910.20668,0.00070
3908.14651,0.00059
3906.08633,0.00035
3904.02616,0.00000
3901.96599,0.00005
3899.90582,0.00058
3897.84565,0.00111
3895.78547,0.00133
3893.72530,0.00120
3891.66513,0.00092
3889.60496,0.00083
3887.54478,0.00088
3885.48461,0.00077
3883.42444,0.00043
3881.36427,0.00018
3879.30410,0.00031
3877.24392,0.00067
3875.18375,0.00088
3873.12358,0.00080
3871.06341,0.00055
3869.00324,0.00040
3866.94306,0.00038
3864.88289,0.00034
3862.82272,0.00048
3860.76255,0.00080
3858.70237,0.00088
3856.64220,0.00073
3854.58203,0.00071
3852.52186,0.00069
3850.46169,0.00046
3848.40151,0.00033
3846.34134,0.00049
3844.28117,0.00072
3842.22100,0.00078
3840.16083,0.00077
3838.10065,0.00076
3836.04048,0.00063
3833.98031,0.00045
3831.92014,0.00044
3829.85997,0.00072
3827.79979,0.00122
3825.73962,0.00170
3823.67945,0.00190
3821.61928,0.00172
3819.55910,0.00138
3817.49893,0.00118
3815.43876,0.00121
3813.37859,0.00140
3811.31842,0.00170
3809.25824,0.00199
3807.19807,0.00198
3805.13790,0.00178
3803.07773,0.00188
3801.01756,0.00212
3798.95738,0.00197
3796.89721,0.00169
3794.83704,0.00174
3792.77687,0.00203
3790.71670,0.00228
3788.65652,0.00228
3786.59635,0.00200
3784.53618,0.00176
3782.47601,0.00197
3780.41583,0.00242
3778.35566,0.00256
3776.29549,0.00241
3774.23532,0.00249
3772.17515,0.00282
3770.11497,0.00287
3768.05480,0.00247
3765.99463,0.00215
3763.93446,0.00216
3761.87429,0.00224
3759.81411,0.00214
3757.75394,0.00185
3755.69377,0.00150
3753.63360,0.00102
3751.57342,0.00033
3749.51325,0.00000
3747.45308,0.00048
3745.39291,0.00138
3743.33274,0.00215
3741.27256,0.00237
3739.21239,0.00222
3737.15222,0.00205
3735.09205,0.00198
3733.03188,0.00211
3730.97170,0.00230
3728.91153,0.00226
3726.85136,0.00205
3724.79119,0.00224
3722.73102,0.00287
3720.67084,0.00314
3718.61067,0.00285
3716.55050,0.00266
3714.49033,0.00280
3712.43015,0.00298
3710.36998,0.00307
3708.30981,0.00302
3706.24964,0.00277
3704.18947,0.00246
3702.12929,0.00222
3700.06912,0.00214
3698.00895,0.00242
3695.94878,0.00291
3693.88861,0.00309
3691.82843,0.00270
3689.76826,0.00204
3687.70809,0.00181
3685.64792,0.00224
3683.58775,0.00270
3681.52757,0.00284
3679.46740,0.00293
3677.40723,0.00327
3675.34706,0.00351
3673.28688,0.00339
3671.22671,0.00303
3669.16654,0.00273
3667.10637,0.00282
3665.04620,0.00319
3662.98602,0.00361
3660.92585,0.00400
3658.86568,0.00424
3656.80551,0.00413
3654.74534,0.00371
3652.68516,0.00344
3650.62499,0.00352
3648.56482,0.00383
3646.50465,0.00415
3644.44447,0.00415
3642.38430,0.00389
3640.32413,0.00379
3638.26396,0.00404
3636.20379,0.00444
3634.14361,0.00484
3632.08344,0.00515
3630.02327,0.00524
3627.96310,0.00524
3625.90293,0.00549
3623.84275,0.00599
3621.78258,0.00632
3619.72241,0.00612
3617.66224,0.00558
3615.60207,0.00526
3613.54189,0.00540
3611.48172,0.00566
3609.42155,0.00571
3607.36138,0.00577
3605.30120,0.00632
3603.24103,0.00717
3601.18086,0.00749
3599.12069,0.00714
3597.06052,0.00688
3595.00034,0.00681
3592.94017,0.00681
3590.88000,0.00705
3588.81983,0.00735
3586.75966,0.00753
3584.69948,0.00783
3582.63931,0.00825
3580.57914,0.00861
3578.51897,0.00878
3576.45879,0.00872
3574.39862,0.00867
3572.33845,0.00889
3570.27828,0.00928
3568.21811,0.00952
3566.15793,0.00949
3564.09776,0.00953
3562.03759,0.00990
3559.97742,0.01042
3557.91725,0.01073
3555.85707,0.01068
3553.79690,0.01039
3551.73673,0.01020
3549.67656,0.01029
3547.61639,0.01056
3545.55621,0.01099
3543.49604,0.01138
3541.43587,0.01141
3539.37570,0.01130
3537.31552,0.01140
3535.25535,0.01168
3533.19518,0.01189
3531.13501,0.01203
3529.07484,0.01209
3527.01466,0.01212
3524.95449,0.01234
3522.89432,0.01265
3520.83415,0.01281
3518.77398,0.01295
3516.71380,0.01320
3514.65363,0.01332
3512.59346,0.01322
3510.53329,0.01325
3508.47312,0.01349
3506.41294,0.01359
3504.35277,0.01349
3502.29260,0.01356
3500.23243,0.01400
3498.17225,0.01448
3496.11208,0.01473
3494.05191,0.01485
3491.99174,0.01496
3489.93157,0.01502
3487.87139,0.01500
3485.81122,0.01507
3483.75105,0.01531
3481.69088,0.01559
3479.63071,0.01578
3477.57053,0.01601
3475.51036,0.01625
3473.45019,0.01630
3471.39002,0.01622
3469.32984,0.01617
3467.26967,0.01624
3465.20950,0.01652
3463.14933,0.01671
3461.08916,0.01659
3459.02898,0.01653
3456.96881,0.01671
3454.90864,0.01681
3452.84847,0.01687
3450.78830,0.01717
3448.72812,0.01748
3446.66795,0.01753
3444.60778,0.01766
3442.54761,0.01804
3440.48744,0.01830
3438.42726,0.01827
3436.36709,0.01806
3434.30692,0.01786
3432.24675,0.01788
3430.18657,0.01818
3428.12640,0.01849
3426.06623,0.01865
3424.00606,0.01875
3421.94589,0.01886
3419.88571,0.01892
3417.82554,0.01903
3415.76537,0.01924
3413.70520,0.01935
3411.64503,0.01932
3409.58485,0.01933
3407.52468,0.01944
3405.46451,0.01961
3403.40434,0.01976
3401.34416,0.01968
3399.28399,0.01949
3397.22382,0.01956
3395.16365,0.01972
3393.10348,0.01986
3391.04330,0.01993
3388.98313,0.02000
3386.92296,0.02010
3384.86279,0.02024
3382.80262,0.02042
3380.74244,0.02049
3378.68227,0.02045
3376.62210,0.02053
3374.56193,0.02081
3372.50176,0.02101
3370.44158,0.02098
3368.38141,0.02091
3366.32124,0.02088
3364.26107,0.02079
3362.20089,0.02076
3360.14072,0.02097
3358.08055,0.02120
3356.02038,0.02121
3353.96021,0.02124
3351.90003,0.02125
3349.83986,0.02117
3347.77969,0.02132
3345.71952,0.02167
3343.65935,0.02194
3341.59917,0.02197
3339.53900,0.02176
3337.47883,0.02156
3335.41866,0.02153
3333.35849,0.02161
3331.29831,0.02164
3329.23814,0.02162
3327.17797,0.02164
3325.11780,0.02167
3323.05762,0.02168
3320.99745,0.02180
3318.93728,0.02188
3316.87711,0.02191
3314.81694,0.02210
3312.75676,0.02227
3310.69659,0.02219
3308.63642,0.02199
3306.57625,0.02195
3304.51608,0.02201
3302.45590,0.02196
3300.39573,0.02183
3298.33556,0.02181
3296.27539,0.02204
3294.21521,0.02219
3292.15504,0.02208
3290.09487,0.02212
3288.03470,0.02239
3285.97453,0.02245
3283.91435,0.02229
3281.85418,0.02226
3279.79401,0.02229
3277.73384,0.02238
3275.67367,0.02271
3273.61349,0.02294
3271.55332,0.02283
3269.49315,0.02275
3267.43298,0.02277
3265.37281,0.02283
3263.31263,0.02299
3261.25246,0.02304
3259.19229,0.02292
3257.13212,0.02286
3255.07194,0.02282
3253.01177,0.02265
3250.95160,0.02249
3248.89143,0.02247
3246.83126,0.02252
3244.77108,0.02261
3242.71091,0.02278
3240.65074,0.02295
3238.59057,0.02296
3236.53040,0.02287
3234.47022,0.02282
3232.41005,0.02284
3230.34988,0.02283
3228.28971,0.02272
3226.22954,0.02265
3224.16936,0.02273
3222.10919,0.02275
3220.04902,0.02274
3217.98885,0.02291
3215.92867,0.02294
3213.86850,0.02271
3211.80833,0.02261
3209.74816,0.02266
3207.68799,0.02263
3205.62781,0.02260
3203.56764,0.02273
3201.50747,0.02278
3199.44730,0.02261
3197.38713,0.02250
3195.32695,0.02257
3193.26678,0.02267
3191.20661,0.02267
3189.14644,0.02257
3187.08626,0.02249
3185.02609,0.02245
3182.96592,0.02249
3180.90575,0.02261
3178.84558,0.02261
3176.78540,0.02242
3174.72523,0.02235
3172.66506,0.02253
3170.60489,0.02268
3168.54472,0.02270
3166.48454,0.02278
3164.42437,0.02283
3162.36420,0.02264
3160.30403,0.02225
3158.24386,0.02193
3156.18368,0.02190
3154.12351,0.02205
3152.06334,0.02211
3150.00317,0.02210
3147.94299,0.02211
3145.88282,0.02214
3143.82265,0.02223
3141.76248,0.02216
3139.70231,0.02206
3137.64213,0.02217
3135.58196,0.02223
3133.52179,0.02211
3131.46162,0.02192
3129.40145,0.02168
3127.34127,0.02148
3125.28110,0.02144
3123.22093,0.02151
3121.16076,0.02158
3119.10058,0.02155
3117.04041,0.02147
3114.98024,0.02137
3112.92007,0.02116
3110.85990,0.02092
3108.79972,0.02087
3106.73955,0.02095
3104.67938,0.02098
3102.61921,0.02102
3100.55904,0.02112
3098.49886,0.02102
3096.43869,0.02072
3094.37852,0.02051
3092.31835,0.02053
3090.25818,0.02067
3088.19800,0.02057
3086.13783,0.02036
3084.07766,0.02042
3082.01749,0.02058
3079.95731,0.02051
3077.89714,0.02039
3075.83697,0.02037
3073.77680,0.02036
3071.71663,0.02021
3069.65645,0.01996
3067.59628,0.01981
3065.53611,0.01992
3063.47594,0.02018
3061.41577,0.02020
3059.35559,0.01985
3057.29542,0.01948
3055.23525,0.01934
3053.17508,0.01934
3051.11491,0.01929
3049.05473,0.01919
3046.99456,0.01906
3044.93439,0.01892
3042.87422,0.01882
3040.81404,0.01872
3038.75387,0.01871
3036.69370,0.01878
3034.63353,0.01873
3032.57336,0.01856
3030.51318,0.01843
3028.45301,0.01828
3026.39284,0.01817
3024.33267,0.01820
3022.27250,0.01829
3020.21232,0.01830
3018.15215,0.01811
3016.09198,0.01777
3014.03181,0.01755
3011.97163,0.01750
3009.91146,0.01734
3007.85129,0.01709
3005.79112,0.01699
3003.73095,0.01705
3001.67077,0.01719
2999.61060,0.01730
2997.55043,0.01720
2995.49026,0.01698
2993.43009,0.01687
2991.36991,0.01687
2989.30974,0.01683
2987.24957,0.01675
2985.18940,0.01678
2983.12923,0.01675
2981.06905,0.01656
2979.00888,0.01646
2976.94871,0.01661
2974.88854,0.01675
2972.82836,0.01667
2970.76819,0.01660
2968.70802,0.01663
2966.64785,0.01664
2964.58768,0.01664
2962.52750,0.01664
2960.46733,0.01664
2958.40716,0.01659
2956.34699,0.01650
2954.28682,0.01647
2952.22664,0.01640
2950.16647,0.01625
2948.10630,0.01623
2946.04613,0.01621
2943.98596,0.01611
2941.92578,0.01622
2939.86561,0.01655
2937.80544,0.01673
2935.74527,0.01656
2933.68509,0.01620
2931.62492,0.01590
2929.56475,0.01570
2927.50458,0.01557
2925.44441,0.01557
2923.38423,0.01565
2921.32406,0.01567
2919.26389,0.01558
2917.20372,0.01549
2915.14355,0.01549
2913.08337,0.01547
2911.02320,0.01533
2908.96303,0.01504
2906.90286,0.01480
2904.84268,0.01480
2902.78251,0.01489
2900.72234,0.01493
2898.66217,0.01497
2896.60200,0.01493
2894.54182,0.01476
2892.48165,0.01469
2890.42148,0.01466
2888.36131,0.01448
2886.30114,0.01433
2884.24096,0.01431
2882.18079,0.01432
2880.12062,0.01431
2878.06045,0.01422
2876.00028,0.01411
2873.94010,0.01415
2871.87993,0.01427
2869.81976,0.01430
2867.75959,0.01412
2865.69941,0.01380
2863.63924,0.01351
2861.57907,0.01334
2859.51890,0.01325
2857.45873,0.01318
2855.39855,0.01307
2853.33838,0.01296
2851.27821,0.01290
2849.21804,0.01286
2847.15787,0.01281
2845.09769,0.01271
2843.03752,0.01260
2840.97735,0.01254
2838.91718,0.01262
2836.85700,0.01274
2834.79683,0.01271
2832.73666,0.01261
2830.67649,0.01255
2828.61632,0.01256
2826.55614,0.01258
2824.49597,0.01256
2822.43580,0.01251
2820.37563,0.01240
2818.31546,0.01221
2816.25528,0.01202
2814.19511,0.01192
2812.13494,0.01188
2810.07477,0.01184
2808.01460,0.01175
2805.95442,0.01161
2803.89425,0.01155
2801.83408,0.01153
2799.77391,0.01150
2797.71373,0.01142
2795.65356,0.01131
2793.59339,0.01122
2791.53322,0.01123
2789.47305,0.01130
2787.41287,0.01138
2785.35270,0.01144
2783.29253,0.01139
2781.23236,0.01114
2779.17219,0.01090
2777.11201,0.01083
2775.05184,0.01080
2772.99167,0.01082
2770.93150,0.01073
2768.87133,0.01052
2766.81115,0.01051
2764.75098,0.01060
2762.69081,0.01054
2760.63064,0.01041
2758.57046,0.01034
2756.51029,0.01035
2754.45012,0.01035
2752.38995,0.01032
2750.32978,0.01033
2748.26960,0.01035
2746.20943,0.01024
2744.14926,0.01005
2742.08909,0.00995
2740.02892,0.00999
2737.96874,0.01003
2735.90857,0.00993
2733.84840,0.00981
2731.78823,0.00983
2729.72805,0.00980
2727.66788,0.00967
2725.60771,0.00966
2723.54754,0.00974
2721.48737,0.00977
2719.42719,0.00969
2717.36702,0.00952
2715.30685,0.00935
2713.24668,0.00920
2711.18651,0.00900
2709.12633,0.00893
2707.06616,0.00898
2705.00599,0.00898
2702.94582,0.00893
2700.88565,0.00896
2698.82547,0.00907
2696.76530,0.00908
2694.70513,0.00895
2692.64496,0.00878
2690.58478,0.00867
2688.52461,0.00862
2686.46444,0.00858
2684.40427,0.00860
2682.34410,0.00859
2680.28392,0.00846
2678.22375,0.00840
2676.16358,0.00851
2674.10341,0.00855
2672.04324,0.00841
2669.98306,0.00825
2667.92289,0.00816
2665.86272,0.00815
2663.80255,0.00820
2661.74238,0.00823
2659.68220,0.00816
2657.62203,0.00803
2655.56186,0.00800
2653.50169,0.00816
2651.44151,0.00826
2649.38134,0.00808
2647.32117,0.00785
2645.26100,0.00773
2643.20083,0.00761
2641.14065,0.00747
2639.08048,0.00744
2637.02031,0.00747
2634.96014,0.00731
2632.89997,0.00719
2630.83979,0.00744
2628.77962,0.00762
2626.71945,0.00736
2624.65928,0.00697
2622.59910,0.00679
2620.53893,0.00685
2618.47876,0.00702
2616.41859,0.00714
2614.35842,0.00700
2612.29824,0.00676
2610.23807,0.00671
2608.17790,0.00668
2606.11773,0.00668
2604.05756,0.00675
2601.99738,0.00664
2599.93721,0.00647
2597.87704,0.00644
2595.81687,0.00638
2593.75670,0.00624
2591.69652,0.00624
2589.63635,0.00642
2587.57618,0.00654
2585.51601,0.00651
2583.45583,0.00640
2581.39566,0.00633
2579.33549,0.00632
2577.27532,0.00631
2575.21515,0.00629
2573.15497,0.00635
2571.09480,0.00643
2569.03463,0.00641
2566.97446,0.00636
2564.91429,0.00638
2562.85411,0.00636
2560.79394,0.00625
2558.73377,0.00612
2556.67360,0.00614
2554.61342,0.00619
2552.55325,0.00609
2550.49308,0.00607
2548.43291,0.00607
2546.37274,0.00582
2544.31256,0.00558
2542.25239,0.00565
2540.19222,0.00594
2538.13205,0.00607
2536.07188,0.00580
2534.01170,0.00554
2531.95153,0.00594
2529.89136,0.00651
2527.83119,0.00652
2525.77102,0.00634
2523.71084,0.00634
2521.65067,0.00637
2519.59050,0.00621
2517.53033,0.00591
2515.47015,0.00577
2513.40998,0.00590
2511.34981,0.00619
2509.28964,0.00634
2507.22947,0.00629
2505.16929,0.00628
2503.10912,0.00636
2501.04895,0.00618
2498.98878,0.00577
2496.92861,0.00578
2494.86843,0.00622
2492.80826,0.00650
2490.74809,0.00650
2488.68792,0.00638
2486.62775,0.00642
2484.56757,0.00659
2482.50740,0.00659
2480.44723,0.00655
2478.38706,0.00660
2476.32688,0.00661
2474.26671,0.00642
2472.20654,0.00604
2470.14637,0.00572
2468.08620,0.00575
2466.02602,0.00611
2463.96585,0.00643
2461.90568,0.00661
2459.84551,0.00687
2457.78534,0.00708
2455.72516,0.00696
2453.66499,0.00665
2451.60482,0.00644
2449.54465,0.00626
2447.48447,0.00621
2445.42430,0.00624
2443.36413,0.00621
2441.30396,0.00637
2439.24379,0.00660
2437.18361,0.00646
2435.12344,0.00616
2433.06327,0.00618
2431.00310,0.00645
2428.94293,0.00667
2426.88275,0.00660
2424.82258,0.00649
2422.76241,0.00654
2420.70224,0.00658
2418.64207,0.00640
2416.58189,0.00612
2414.52172,0.00619
2412.46155,0.00644
2410.40138,0.00642
2408.34120,0.00635
2406.28103,0.00633
2404.22086,0.00626
2402.16069,0.00630
2400.10052,0.00649
2398.04034,0.00656
2395.98017,0.00658
2393.92000,0.00645
2391.85983,0.00624
2389.79966,0.00606
2387.73948,0.00593
2385.67931,0.00600
2383.61914,0.00638
2381.55897,0.00680
2379.49880,0.00680
2377.43862,0.00637
2375.37845,0.00578
2373.31828,0.00528
2371.25811,0.00523
2369.19793,0.00561
2367.13776,0.00574
2365.07759,0.00553
2363.01742,0.00614
2360.95725,0.00798
2358.89707,0.00922
2356.83690,0.00883
2354.77673,0.00818
2352.71656,0.00802
2350.65639,0.00794
2348.59621,0.00786
2346.53604,0.00798
2344.47587,0.00839
2342.41570,0.00892
2340.35552,0.00893
2338.29535,0.00814
2336.23518,0.00722
2334.17501,0.00692
2332.11484,0.00724
2330.05466,0.00771
2327.99449,0.00808
2325.93432,0.00823
2323.87415,0.00798
2321.81398,0.00750
2319.75380,0.00719
2317.69363,0.00710
2315.63346,0.00694
2313.57329,0.00666
2311.51312,0.00657
2309.45294,0.00657
2307.39277,0.00624
2305.33260,0.00595
2303.27243,0.00617
2301.21225,0.00654
2299.15208,0.00675
2297.09191,0.00692
2295.03174,0.00708
2292.97157,0.00731
2290.91139,0.00754
2288.85122,0.00731
2286.79105,0.00666
2284.73088,0.00627
2282.67071,0.00645
2280.61053,0.00673
2278.55036,0.00665
2276.49019,0.00620
2274.43002,0.00569
2272.36984,0.00536
2270.30967,0.00519
2268.24950,0.00501
2266.18933,0.00479
2264.12916,0.00467
2262.06898,0.00480
2260.00881,0.00516
2257.94864,0.00547
2255.88847,0.00549
2253.82830,0.00538
2251.76812,0.00549
2249.70795,0.00562
2247.64778,0.00523
2245.58761,0.00467
2243.52744,0.00451
2241.46726,0.00463
2239.40709,0.00486
2237.34692,0.00467
2235.28675,0.00421
2233.22657,0.00426
2231.16640,0.00437
2229.10623,0.00466
2227.04606,0.00555
2224.98589,0.00555
2222.92571,0.00445
2220.86554,0.00371
2218.80537,0.00361
2216.74520,0.00408
2214.68503,0.00489
2212.62485,0.00537
2210.56468,0.00540
2208.50451,0.00531
2206.44434,0.00520
2204.38417,0.00468
2202.32399,0.00386
2200.26382,0.00337
2198.20365,0.00296
2196.14348,0.00232
2194.08330,0.00183
2192.02313,0.00169
2189.96296,0.00182
2187.90279,0.00244
2185.84262,0.00330
2183.78244,0.00341
2181.72227,0.00359
2179.66210,0.00452
2177.60193,0.00468
2175.54176,0.00414
2173.48158,0.00419
2171.42141,0.00500
2169.36124,0.00578
2167.30107,0.00580
2165.24089,0.00581
2163.18072,0.00569
2161.12055,0.00411
2159.06038,0.00249
2157.00021,0.00244
2154.94003,0.00278
2152.87986,0.00277
2150.81969,0.00268
2148.75952,0.00256
2146.69935,0.00226
2144.63917,0.00206
2142.57900,0.00210
2140.51883,0.00215
2138.45866,0.00207
2136.39849,0.00171
2134.33831,0.00118
2132.27814,0.00097
2130.21797,0.00141
2128.15780,0.00189
2126.09762,0.00198
2124.03745,0.00213
2121.97728,0.00258
2119.91711,0.00322
2117.85694,0.00376
2115.79676,0.00394
2113.73659,0.00365
2111.67642,0.00323
2109.61625,0.00323
2107.55608,0.00343
2105.49590,0.00357
2103.43573,0.00378
2101.37556,0.00366
2099.31539,0.00324
2097.25521,0.00303
2095.19504,0.00275
2093.13487,0.00242
2091.07470,0.00266
2089.01453,0.00301
2086.95435,0.00282
2084.89418,0.00260
2082.83401,0.00280
2080.77384,0.00292
2078.71367,0.00280
2076.65349,0.00288
2074.59332,0.00321
2072.53315,0.00327
2070.47298,0.00265
2068.41281,0.00162
2066.35263,0.00102
2064.29246,0.00120
2062.23229,0.00181
2060.17212,0.00262
2058.11194,0.00297
2056.05177,0.00265
2053.99160,0.00262
2051.93143,0.00309
2049.87126,0.00315
2047.81108,0.00291
2045.75091,0.00298
2043.69074,0.00289
2041.63057,0.00249
2039.57040,0.00237
2037.51022,0.00236
2035.45005,0.00202
2033.38988,0.00211
2031.32971,0.00264
2029.26954,0.00282
2027.20936,0.00349
2025.14919,0.00440
2023.08902,0.00377
2021.02885,0.00214
2018.96867,0.00143
2016.90850,0.00189
2014.84833,0.00207
2012.78816,0.00104
2010.72799,0.00000
2008.66781,0.00013
2006.60764,0.00092
2004.54747,0.00122
2002.48730,0.00103
2000.42713,0.00113
1998.36695,0.00152
1996.30678,0.00134
1994.24661,0.00036
1992.18644,-0.00003
1990.12626,0.00088
1988.06609,0.00160
1986.00592,0.00135
1983.94575,0.00093
1981.88558,0.00094
1979.82540,0.00151
1977.76523,0.00256
1975.70506,0.00331
1973.64489,0.00315
1971.58472,0.00263
1969.52454,0.00226
1967.46437,0.00183
1965.40420,0.00143
1963.34403,0.00179
1961.28386,0.00255
1959.22368,0.00213
1957.16351,0.00106
1955.10334,0.00080
1953.04317,0.00084
1950.98299,0.00071
1948.92282,0.00077
1946.86265,0.00101
1944.80248,0.00140
1942.74231,0.00184
1940.68213,0.00220
1938.62196,0.00248
1936.56179,0.00248
1934.50162,0.00227
1932.44145,0.00207
1930.38127,0.00195
1928.32110,0.00192
1926.26093,0.00188
1924.20076,0.00177
1922.14059,0.00177
1920.08041,0.00188
1918.02024,0.00200
1915.96007,0.00204
1913.89990,0.00210
1911.83972,0.00225
1909.77955,0.00224
1907.71938,0.00198
1905.65921,0.00186
1903.59904,0.00207
1901.53886,0.00230
1899.47869,0.00229
1897.41852,0.00200
1895.35835,0.00166
1893.29818,0.00159
1891.23800,0.00180
1889.17783,0.00213
1887.11766,0.00235
1885.05749,0.00242
1882.99731,0.00244
1880.93714,0.00229
1878.87697,0.00194
1876.81680,0.00162
1874.75663,0.00138
1872.69645,0.00107
1870.63628,0.00082
1868.57611,0.00079
1866.51594,0.00098
1864.45577,0.00139
1862.39559,0.00193
1860.33542,0.00230
1858.27525,0.00237
1856.21508,0.00236
1854.15491,0.00234
1852.09473,0.00220
1850.03456,0.00180
1847.97439,0.00123
1845.91422,0.00090
1843.85404,0.00108
1841.79387,0.00140
1839.73370,0.00139
1837.67353,0.00117
1835.61336,0.00107
1833.55318,0.00117
1831.49301,0.00132
1829.43284,0.00132
1827.37267,0.00124
1825.31250,0.00128
1823.25232,0.00141
1821.19215,0.00156
1819.13198,0.00181
1817.07181,0.00204
1815.01163,0.00212
1812.95146,0.00206
1810.89129,0.00187
1808.83112,0.00167
1806.77095,0.00165
1804.71077,0.00180
1802.65060,0.00187
1800.59043,0.00176
1798.53026,0.00165
1796.47009,0.00163
1794.40991,0.00163
1792.34974,0.00156
1790.28957,0.00144
1788.22940,0.00142
1786.16923,0.00152
1784.10905,0.00171
1782.04888,0.00188
1779.98871,0.00193
1777.92854,0.00183
1775.86836,0.00156
1773.80819,0.00122
1771.74802,0.00107
1769.68785,0.00123
1767.62768,0.00149
1765.56750,0.00170
1763.50733,0.00182
1761.44716,0.00182
1759.38699,0.00183
1757.32682,0.00195
1755.26664,0.00213
1753.20647,0.00228
1751.14630,0.00224
1749.08613,0.00204
1747.02596,0.00191
1744.96578,0.00203
1742.90561,0.00226
1740.84544,0.00243
1738.78527,0.00259
1736.72509,0.00270
1734.66492,0.00251
1732.60475,0.00217
1730.54458,0.00217
1728.48441,0.00249
1726.42423,0.00283
1724.36406,0.00293
1722.30389,0.00285
1720.24372,0.00272
1718.18355,0.00250
1716.12337,0.00228
1714.06320,0.00241
1712.00303,0.00276
1709.94286,0.00311
1707.88268,0.00336
1705.82251,0.00342
1703.76234,0.00345
1701.70217,0.00359
1699.64200,0.00355
1697.58182,0.00346
1695.52165,0.00396
1693.46148,0.00477
1691.40131,0.00530
1689.34114,0.00557
1687.28096,0.00575
1685.22079,0.00588
1683.16062,0.00604
1681.10045,0.00645
1679.04028,0.00705
1676.98010,0.00762
1674.91993,0.00789
1672.85976,0.00796
1670.79959,0.00808
1668.73941,0.00844
1666.67924,0.00896
1664.61907,0.00930
1662.55890,0.00946
1660.49873,0.00966
1658.43855,0.00990
1656.37838,0.01000
1654.31821,0.00990
1652.25804,0.00981
1650.19787,0.00987
1648.13769,0.00981
1646.07752,0.00974
1644.01735,0.00987
1641.95718,0.00998
1639.89701,0.00994
1637.83683,0.00973
1635.77666,0.00949
1633.71649,0.00945
1631.65632,0.00946
1629.59614,0.00932
1627.53597,0.00907
1625.47580,0.00882
1623.41563,0.00861
1621.35546,0.00855
1619.29528,0.00865
1617.23511,0.00864
1615.17494,0.00845
1613.11477,0.00835
1611.05460,0.00831
1608.99442,0.00817
1606.93425,0.00802
1604.87408,0.00792
1602.81391,0.00776
1600.75373,0.00754
1598.69356,0.00740
1596.63339,0.00730
1594.57322,0.00720
1592.51305,0.00713
1590.45287,0.00711
1588.39270,0.00712
1586.33253,0.00708
1584.27236,0.00693
1582.21219,0.00670
1580.15201,0.00654
1578.09184,0.00630
1576.03167,0.00588
1573.97150,0.00549
1571.91133,0.00520
1569.85115,0.00496
1567.79098,0.00489
1565.73081,0.00498
1563.67064,0.00508
1561.61046,0.00512
1559.55029,0.00486
1557.49012,0.00439
1555.42995,0.00429
1553.36978,0.00438
1551.30960,0.00445
1549.24943,0.00453
1547.18926,0.00467
1545.12909,0.00465
1543.06892,0.00427
1541.00874,0.00367
1538.94857,0.00337
1536.88840,0.00347
1534.82823,0.00350
1532.76805,0.00332
1530.70788,0.00318
1528.64771,0.00316
1526.58754,0.00316
1524.52737,0.00312
1522.46719,0.00289
1520.40702,0.00251
1518.34685,0.00230
1516.28668,0.00230
1514.22651,0.00232
1512.16633,0.00220
1510.10616,0.00186
1508.04599,0.00140
1505.98582,0.00135
1503.92565,0.00181
1501.86547,0.00218
1499.80530,0.00229
1497.74513,0.00218
1495.68496,0.00203
1493.62478,0.00200
1491.56461,0.00190
1489.50444,0.00162
1487.44427,0.00151
1485.38410,0.00166
1483.32392,0.00180
1481.26375,0.00188
1479.20358,0.00193
1477.14341,0.00185
1475.08324,0.00158
1473.02306,0.00148
1470.96289,0.00180
1468.90272,0.00214
1466.84255,0.00220
1464.78238,0.00210
1462.72220,0.00210
1460.66203,0.00213
1458.60186,0.00202
1456.54169,0.00186
1454.48151,0.00198
1452.42134,0.00219
1450.36117,0.00229
1448.30100,0.00229
1446.24083,0.00234
1444.18065,0.00248
1442.12048,0.00255
1440.06031,0.00251
1438.00014,0.00239
1435.93997,0.00224
1433.87979,0.00221
1431.81962,0.00232
1429.75945,0.00252
1427.69928,0.00270
1425.63910,0.00279
1423.57893,0.00283
1421.51876,0.00287
1419.45859,0.00285
1417.39842,0.00286
1415.33824,0.00305
1413.27807,0.00327
1411.21790,0.00335
1409.15773,0.00328
1407.09756,0.00324
1405.03738,0.00328
1402.97721,0.00329
1400.91704,0.00309
1398.85687,0.00269
1396.79670,0.00244
1394.73652,0.00245
1392.67635,0.00257
1390.61618,0.00262
1388.55601,0.00257
1386.49583,0.00258
1384.43566,0.00272
1382.37549,0.00279
1380.31532,0.00272
1378.25515,0.00262
1376.19497,0.00262
1374.13480,0.00265
1372.07463,0.00263
1370.01446,0.00255
1367.95429,0.00247
1365.89411,0.00240
1363.83394,0.00231
1361.77377,0.00226
1359.71360,0.00231
1357.65343,0.00234
1355.59325,0.00227
1353.53308,0.00216
1351.47291,0.00212
1349.41274,0.00216
1347.35256,0.00222
1345.29239,0.00221
1343.23222,0.00204
1341.17205,0.00178
1339.11188,0.00169
1337.05170,0.00184
1334.99153,0.00196
1332.93136,0.00197
1330.87119,0.00199
1328.81102,0.00204
1326.75084,0.00206
1324.69067,0.00202
1322.63050,0.00194
1320.57033,0.00188
1318.51015,0.00187
1316.44998,0.00193
1314.38981,0.00201
1312.32964,0.00206
1310.26947,0.00214
1308.20929,0.00220
1306.14912,0.00222
1304.08895,0.00219
1302.02878,0.00218
1299.96861,0.00234
1297.90843,0.00256
1295.84826,0.00266
1293.78809,0.00265
1291.72792,0.00260
1289.66775,0.00252
1287.60757,0.00248
1285.54740,0.00247
1283.48723,0.00247
1281.42706,0.00246
1279.36688,0.00247
1277.30671,0.00253
1275.24654,0.00262
1273.18637,0.00255
1271.12620,0.00238
1269.06602,0.00231
1267.00585,0.00235
1264.94568,0.00237
1262.88551,0.00234
1260.82534,0.00244
1258.76516,0.00267
1256.70499,0.00278
1254.64482,0.00272
1252.58465,0.00267
1250.52447,0.00266
1248.46430,0.00262
1246.40413,0.00249
1244.34396,0.00232
1242.28379,0.00219
1240.22361,0.00210
1238.16344,0.00203
1236.10327,0.00195
1234.04310,0.00186
1231.98293,0.00178
1229.92275,0.00167
1227.86258,0.00148
1225.80241,0.00124
1223.74224,0.00113
1221.68207,0.00115
1219.62189,0.00111
1217.56172,0.00095
1215.50155,0.00075
1213.44138,0.00059
1211.38120,0.00048
1209.32103,0.00038
1207.26086,0.00026
1205.20069,0.00013
1203.14052,0.00008
1201.08034,0.00006
1199.02017,0.00000
1196.96000,-0.00000
1194.89983,0.00002
1192.83966,-0.00001
1190.77948,-0.00004
1188.71931,-0.00005
1186.65914,0.00000
1184.59897,0.00012
1182.53880,0.00020
1180.47862,0.00028
1178.41845,0.00036
1176.35828,0.00050
1174.29811,0.00079
1172.23793,0.00111
1170.17776,0.00141
1168.11759,0.00165
1166.05742,0.00178
1163.99725,0.00196
1161.93707,0.00227
1159.87690,0.00263
1157.81673,0.00302
1155.75656,0.00346
1153.69639,0.00388
1151.63621,0.00429
1149.57604,0.00487
1147.51587,0.00563
1145.45570,0.00625
1143.39552,0.00665
1141.33535,0.00709
1139.27518,0.00759
1137.21501,0.00823
1135.15484,0.00905
1133.09466,0.00985
1131.03449,0.01050
1128.97432,0.01109
1126.91415,0.01174
1124.85398,0.01251
1122.79380,0.01340
1120.73363,0.01426
1118.67346,0.01499
1116.61329,0.01566
1114.55312,0.01628
1112.49294,0.01692
1110.43277,0.01771
1108.37260,0.01854
1106.31243,0.01922
1104.25225,0.01976
1102.19208,0.02025
1100.13191,0.02081
1098.07174,0.02148
1096.01157,0.02219
1093.95139,0.02281
1091.89122,0.02329
1089.83105,0.02365
1087.77088,0.02399
1085.71071,0.02435
1083.65053,0.02479
1081.59036,0.02539
1079.53019,0.02600
1077.47002,0.02630
1075.40985,0.02641
1073.34967,0.02663
1071.28950,0.02692
1069.22933,0.02724
1067.16916,0.02754
1065.10898,0.02771
1063.04881,0.02768
1060.98864,0.02746
1058.92847,0.02717
1056.86830,0.02695
1054.80812,0.02678
1052.74795,0.02640
1050.68778,0.02569
1048.62761,0.02478
1046.56744,0.02382
1044.50726,0.02280
1042.44709,0.02178
1040.38692,0.02087
1038.32675,0.01995
1036.26657,0.01891
1034.20640,0.01782
1032.14623,0.01665
1030.08606,0.01551
1028.02589,0.01468
1025.96571,0.01407
1023.90554,0.01348
1021.84537,0.01285
1019.78520,0.01230
1017.72503,0.01188
1015.66485,0.01143
1013.60468,0.01096
1011.54451,0.01075
1009.48434,0.01085
1007.42417,0.01111
1005.36399,0.01150
1003.30382,0.01199
1001.24365,0.01264
999.18348,0.01342
997.12330,0.01407
995.06313,0.01464
993.00296,0.01542
990.94279,0.01608
988.88262,0.01641
986.82244,0.01673
984.76227,0.01718
982.70210,0.01758
980.64193,0.01786
978.58176,0.01800
976.52158,0.01803
974.46141,0.01808
972.40124,0.01806
970.34107,0.01774
968.28089,0.01717
966.22072,0.01668
964.16055,0.01628
962.10038,0.01569
960.04021,0.01492
957.98003,0.01416
955.91986,0.01345
953.85969,0.01274
951.79952,0.01204
949.73935,0.01135
947.67917,0.01060
945.61900,0.00981
943.55883,0.00922
941.49866,0.00887
939.43849,0.00827
937.37831,0.00740
935.31814,0.00675
933.25797,0.00636
931.19780,0.00610
929.13762,0.00597
927.07745,0.00583
925.01728,0.00537
922.95711,0.00477
920.89694,0.00448
918.83676,0.00442
916.77659,0.00431
914.71642,0.00409
912.65625,0.00394
910.59608,0.00390
908.53590,0.00382
906.47573,0.00355
904.41556,0.00322
902.35539,0.00309
900.29522,0.00311
898.23504,0.00327
896.17487,0.00372
894.11470,0.00421
892.05453,0.00445
889.99435,0.00470
887.93418,0.00506
885.87401,0.00534
883.81384,0.00552
881.75367,0.00583
879.69349,0.00630
877.63332,0.00667
875.57315,0.00683
873.51298,0.00697
871.45281,0.00741
869.39263,0.00793
867.33246,0.00822
865.27229,0.00834
863.21212,0.00841
861.15194,0.00839
859.09177,0.00828
857.03160,0.00848
854.97143,0.00894
852.91126,0.00916
850.85108,0.00924
848.79091,0.00930
846.73074,0.00914
844.67057,0.00875
842.61040,0.00836
840.55022,0.00819
838.49005,0.00822
836.42988,0.00784
834.36971,0.00692
832.30954,0.00620
830.24936,0.00585
828.18919,0.00565
826.12902,0.00575
824.06885,0.00577
822.00867,0.00527
819.94850,0.00469
817.88833,0.00435
815.82816,0.00422
813.76799,0.00410
811.70781,0.00379
809.64764,0.00330
807.58747,0.00292
805.52730,0.00294
803.46713,0.00308
801.40695,0.00287
799.34678,0.00244
797.28661,0.00208
795.22644,0.00194
793.16627,0.00195
791.10609,0.00198
789.04592,0.00208
786.98575,0.00199
784.92558,0.00163
782.86540,0.00148
780.80523,0.00171
778.74506,0.00189
776.68489,0.00183
774.62472,0.00198
772.56454,0.00220
770.50437,0.00187
768.44420,0.00122
766.38403,0.00095
764.32386,0.00129
762.26368,0.00190
760.20351,0.00207
758.14334,0.00153
756.08317,0.00083
754.02299,0.00064
751.96282,0.00094
749.90265,0.00124
747.84248,0.00127
745.78231,0.00113
743.72213,0.00089
741.66196,0.00075
739.60179,0.00081
737.54162,0.00090
735.48145,0.00097
733.42127,0.00096
731.36110,0.00090
729.30093,0.00090
727.24076,0.00083
725.18059,0.00079
723.12041,0.00130
721.06024,0.00185
719.00007,0.00187
716.93990,0.00141
714.87972,0.00087
712.81955,0.00066
710.75938,0.00114
708.69921,0.00198
706.63904,0.00245
704.57886,0.00250
702.51869,0.00229
700.45852,0.00172
698.39835,0.00091
696.33818,0.00035
694.27800,0.00032
692.21783,0.00058
690.15766,0.00110
688.09749,0.00210
686.03731,0.00311
683.97714,0.00328
681.91697,0.00280
679.85680,0.00227
677.79663,0.00199
675.73645,0.00213
673.67628,0.00260
671.61611,0.00305
669.55594,0.00307
667.49577,0.00258
665.43559,0.00208
663.37542,0.00222
661.31525,0.00240
659.25508,0.00217
657.19491,0.00201
655.13473,0.00244
653.07456,0.00292
651.01439,0.00240
648.95422,0.00127
646.89404,0.00091
644.83387,0.00140
642.77370,0.00176
640.71353,0.00127
638.65336,0.00033
636.59318,0.00000
634.53301,0.00040
632.47284,0.00094
630.41267,0.00065
628.35250,-0.00032
626.29232,-0.00061
624.23215,0.00070
622.17198,0.00235
620.11181,0.00250
618.05164,0.00072
615.99146,-0.00143
613.93129,-0.00253
611.87112,-0.00283
609.81095,-0.00239
607.75077,-0.00118
605.69060,-0.00034
603.63043,-0.00018
601.57026,-0.00005
599.51009,0.00000
