3996.73391,0.00007
3994.67373,0.00000
3992.61356,0.00017
3990.55339,0.00058
3988.49322,0.00087
3986.43305,0.00077
3984.37287,0.00049
3982.31270,0.00030
3980.25253,0.00030
3978.19236,0.00058
3976.13219,0.00078
3974.07201,0.00070
3972.01184,0.00072
3969.95167,0.00101
3967.89150,0.00115
3965.83133,0.00091
3963.77115,0.00055
3961.71098,0.00039
3959.65081,0.00047
3957.59064,0.00060
3955.53046,0.00062
3953.47029,0.00065
3951.41012,0.00076
3949.34995,0.00081
3947.28978,0.00078
3945.22960,0.00079
3943.16943,0.00081
3941.10926,0.00076
3939.04909,0.00069
3936.98892,0.00068
3934.92874,0.00074
3932.86857,0.00092
3930.80840,0.00120
3928.74823,0.00138
3926.68805,0.00130
3924.62788,0.00100
3922.56771,0.00065
3920.50754,0.00042
3918.44737,0.00026
3916.38719,0.00027
3914.32702,0.00051
3912.26685,0.00079
3910.20668,0.00106
3908.14651,0.00127
3906.08633,0.00119
3904.02616,0.00096
3901.96599,0.00105
3899.90582,0.00121
3897.84565,0.00109
3895.78547,0.00103
3893.72530,0.00118
3891.66513,0.00126
3889.60496,0.00120
3887.54478,0.00118
3885.48461,0.00110
3883.42444,0.00092
3881.36427,0.00063
3879.30410,0.00035
3877.24392,0.00044
3875.18375,0.00083
3873.12358,0.00091
3871.06341,0.00042
3869.00324,0.00000
3866.94306,0.00012
3864.88289,0.00037
3862.82272,0.00040
3860.76255,0.00043
3858.70237,0.00055
3856.64220,0.00076
3854.58203,0.00093
3852.52186,0.00073
3850.46169,0.00038
3848.40151,0.00026
3846.34134,0.00042
3844.28117,0.00072
3842.22100,0.00103
3840.16083,0.00131
3838.10065,0.00130
3836.04048,0.00084
3833.98031,0.00046
3831.92014,0.00050
3829.85997,0.00077
3827.79979,0.00105
3825.73962,0.00125
3823.67945,0.00139
3821.61928,0.00152
3819.55910,0.00147
3817.49893,0.00123
3815.43876,0.00096
3813.37859,0.00077
3811.31842,0.00080
3809.25824,0.00115
3807.19807,0.00149
3805.13790,0.00153
3803.07773,0.00163
3801.01756,0.00181
3798.95738,0.00162
3796.89721,0.00117
3794.83704,0.00099
3792.77687,0.00129
3790.71670,0.00175
3788.65652,0.00190
3786.59635,0.00168
3784.53618,0.00143
3782.47601,0.00153
3780.41583,0.00179
3778.35566,0.00172
3776.29549,0.00144
3774.23532,0.00139
3772.17515,0.00147
3770.11497,0.00140
3768.05480,0.00126
3765.99463,0.00127
3763.93446,0.00129
3761.87429,0.00120
3759.81411,0.00107
3757.75394,0.00108
3755.69377,0.00140
3753.63360,0.00163
3751.57342,0.00112
3749.51325,0.00020
3747.45308,0.00000
3745.39291,0.00049
3743.33274,0.00103
3741.27256,0.00120
3739.21239,0.00121
3737.15222,0.00141
3735.09205,0.00152
3733.03188,0.00139
3730.97170,0.00140
3728.91153,0.00167
3726.85136,0.00180
3724.79119,0.00168
3722.73102,0.00161
3720.67084,0.00142
3718.61067,0.00114
3716.55050,0.00097
3714.49033,0.00108
3712.43015,0.00148
3710.36998,0.00164
3708.30981,0.00149
3706.24964,0.00141
3704.18947,0.00151
3702.12929,0.00156
3700.06912,0.00158
3698.00895,0.00176
3695.94878,0.00197
3693.88861,0.00208
3691.82843,0.00191
3689.76826,0.00135
3687.70809,0.00091
3685.64792,0.00111
3683.58775,0.00154
3681.52757,0.00191
3679.46740,0.00229
3677.40723,0.00270
3675.34706,0.00286
3673.28688,0.00282
3671.22671,0.00262
3669.16654,0.00213
3667.10637,0.00181
3665.04620,0.00195
3662.98602,0.00233
3660.92585,0.00279
3658.86568,0.00304
3656.80551,0.00288
3654.74534,0.00259
3652.68516,0.00255
3650.62499,0.00267
3648.56482,0.00292
3646.50465,0.00329
3644.44447,0.00345
3642.38430,0.00343
3640.32413,0.00331
3638.26396,0.00317
3636.20379,0.00321
3634.14361,0.00345
3632.08344,0.00368
3630.02327,0.00390
3627.96310,0.00422
3625.90293,0.00457
3623.84275,0.00482
3621.78258,0.00504
3619.72241,0.00518
3617.66224,0.00525
3615.60207,0.00548
3613.54189,0.00571
3611.48172,0.00577
3609.42155,0.00571
3607.36138,0.00573
3605.30120,0.00605
3603.24103,0.00651
3601.18086,0.00671
3599.12069,0.00653
3597.06052,0.00642
3595.00034,0.00641
3592.94017,0.00642
3590.88000,0.00661
3588.81983,0.00699
3586.75966,0.00736
3584.69948,0.00776
3582.63931,0.00799
3580.57914,0.00792
3578.51897,0.00781
3576.45879,0.00782
3574.39862,0.00789
3572.33845,0.00810
3570.27828,0.00849
3568.21811,0.00885
3566.15793,0.00906
3564.09776,0.00917
3562.03759,0.00924
3559.97742,0.00926
3557.91725,0.00932
3555.85707,0.00955
3553.79690,0.00980
3551.73673,0.01006
3549.67656,0.01045
3547.61639,0.01078
3545.55621,0.01094
3543.49604,0.01110
3541.43587,0.01122
3539.37570,0.01128
3537.31552,0.01153
3535.25535,0.01186
3533.19518,0.01189
3531.13501,0.01177
3529.07484,0.01177
3527.01466,0.01184
3524.95449,0.01203
3522.89432,0.01234
3520.83415,0.01256
3518.77398,0.01268
3516.71380,0.01291
3514.65363,0.01318
3512.59346,0.01334
3510.53329,0.01354
3508.47312,0.01388
3506.41294,0.01410
3504.35277,0.01397
3502.29260,0.01381
3500.23243,0.01398
3498.17225,0.01447
3496.11208,0.01497
3494.05191,0.01518
3491.99174,0.01522
3489.93157,0.01535
3487.87139,0.01549
3485.81122,0.01561
3483.75105,0.01579
3481.69088,0.01597
3479.63071,0.01619
3477.57053,0.01641
3475.51036,0.01652
3473.45019,0.01661
3471.39002,0.01665
3469.32984,0.01652
3467.26967,0.01649
3465.20950,0.01672
3463.14933,0.01702
3461.08916,0.01729
3459.02898,0.01744
3456.96881,0.01743
3454.90864,0.01745
3452.84847,0.01759
3450.78830,0.01772
3448.72812,0.01781
3446.66795,0.01795
3444.60778,0.01814
3442.54761,0.01824
3440.48744,0.01823
3438.42726,0.01824
3436.36709,0.01833
3434.30692,0.01842
3432.24675,0.01860
3430.18657,0.01894
3428.12640,0.01914
3426.06623,0.01916
3424.00606,0.01925
3421.94589,0.01949
3419.88571,0.01971
3417.82554,0.01987
3415.76537,0.02006
3413.70520,0.02019
3411.64503,0.02023
3409.58485,0.02017
3407.52468,0.01993
3405.46451,0.01972
3403.40434,0.01986
3401.34416,0.02013
3399.28399,0.02008
3397.22382,0.02006
3395.16365,0.02015
3393.10348,0.02030
3391.04330,0.02031
3388.98313,0.02026
3386.92296,0.02040
3384.86279,0.02064
3382.80262,0.02086
3380.74244,0.02107
3378.68227,0.02124
3376.62210,0.02133
3374.56193,0.02139
3372.50176,0.02134
3370.44158,0.02123
3368.38141,0.02124
3366.32124,0.02126
3364.26107,0.02117
3362.20089,0.02117
3360.14072,0.02127
3358.08055,0.02123
3356.02038,0.02118
3353.96021,0.02139
3351.90003,0.02162
3349.83986,0.02172
3347.77969,0.02190
3345.71952,0.02211
3343.65935,0.02215
3341.59917,0.02208
3339.53900,0.02208
3337.47883,0.02222
3335.41866,0.02239
3333.35849,0.02244
3331.29831,0.02231
3329.23814,0.02217
3327.17797,0.02219
3325.11780,0.02231
3323.05762,0.02248
3320.99745,0.02255
3318.93728,0.02246
3316.87711,0.02243
3314.81694,0.02260
3312.75676,0.02287
3310.69659,0.02297
3308.63642,0.02287
3306.57625,0.02280
3304.51608,0.02285
3302.45590,0.02277
3300.39573,0.02251
3298.33556,0.02251
3296.27539,0.02286
3294.21521,0.02316
3292.15504,0.02322
3290.09487,0.02324
3288.03470,0.02330
3285.97453,0.02314
3283.91435,0.02276
3281.85418,0.02252
3279.79401,0.02252
3277.73384,0.02269
3275.67367,0.02303
3273.61349,0.02320
3271.55332,0.02320
3269.49315,0.02330
3267.43298,0.02329
3265.37281,0.02323
3263.31263,0.02336
3261.25246,0.02338
3259.19229,0.02308
3257.13212,0.02282
3255.07194,0.02279
3253.01177,0.02275
3250.95160,0.02276
3248.89143,0.02290
3246.83126,0.02293
3244.77108,0.02282
3242.71091,0.02282
3240.65074,0.02300
3238.59057,0.02316
3236.53040,0.02311
3234.47022,0.02289
3232.41005,0.02276
3230.34988,0.02282
3228.28971,0.02281
3226.22954,0.02264
3224.16936,0.02255
3222.10919,0.02252
3220.04902,0.02245
3217.98885,0.02244
3215.92867,0.02249
3213.86850,0.02256
3211.80833,0.02267
3209.74816,0.02271
3207.68799,0.02257
3205.62781,0.02234
3203.56764,0.02221
3201.50747,0.02223
3199.44730,0.02229
3197.38713,0.02230
3195.32695,0.02229
3193.26678,0.02235
3191.20661,0.02238
3189.14644,0.02222
3187.08626,0.02203
3185.02609,0.02200
3182.96592,0.02203
3180.90575,0.02213
3178.84558,0.02221
3176.78540,0.02206
3174.72523,0.02193
3172.66506,0.02197
3170.60489,0.02190
3168.54472,0.02171
3166.48454,0.02173
3164.42437,0.02189
3162.36420,0.02193
3160.30403,0.02171
3158.24386,0.02138
3156.18368,0.02135
3154.12351,0.02163
3152.06334,0.02170
3150.00317,0.02146
3147.94299,0.02129
3145.88282,0.02137
3143.82265,0.02150
3141.76248,0.02148
3139.70231,0.02143
3137.64213,0.02148
3135.58196,0.02140
3133.52179,0.02120
3131.46162,0.02098
3129.40145,0.02072
3127.34127,0.02064
3125.28110,0.02071
3123.22093,0.02064
3121.16076,0.02052
3119.10058,0.02052
3117.04041,0.02053
3114.98024,0.02043
3112.92007,0.02021
3110.85990,0.02003
3108.79972,0.02011
3106.73955,0.02040
3104.67938,0.02056
3102.61921,0.02041
3100.55904,0.02019
3098.49886,0.01997
3096.43869,0.01973
3094.37852,0.01966
3092.31835,0.01966
3090.25818,0.01962
3088.19800,0.01960
3086.13783,0.01956
3084.07766,0.01945
3082.01749,0.01935
3079.95731,0.01931
3077.89714,0.01923
3075.83697,0.01906
3073.77680,0.01900
3071.71663,0.01911
3069.65645,0.01919
3067.59628,0.01914
3065.53611,0.01905
3063.47594,0.01904
3061.41577,0.01911
3059.35559,0.01896
3057.29542,0.01858
3055.23525,0.01840
3053.17508,0.01850
3051.11491,0.01858
3049.05473,0.01847
3046.99456,0.01821
3044.93439,0.01798
3042.87422,0.01789
3040.81404,0.01776
3038.75387,0.01760
3036.69370,0.01761
3034.63353,0.01769
3032.57336,0.01757
3030.51318,0.01736
3028.45301,0.01728
3026.39284,0.01732
3024.33267,0.01735
3022.27250,0.01726
3020.21232,0.01708
3018.15215,0.01695
3016.09198,0.01687
3014.03181,0.01682
3011.97163,0.01671
3009.91146,0.01646
3007.85129,0.01626
3005.79112,0.01623
3003.73095,0.01618
3001.67077,0.01613
2999.61060,0.01619
2997.55043,0.01618
2995.49026,0.01597
2993.43009,0.01574
2991.36991,0.01579
2989.30974,0.01596
2987.24957,0.01596
2985.18940,0.01580
2983.12923,0.01569
2981.06905,0.01563
2979.00888,0.01555
2976.94871,0.01556
2974.88854,0.01563
2972.82836,0.01561
2970.76819,0.01562
2968.70802,0.01559
2966.64785,0.01544
2964.58768,0.01541
2962.52750,0.01557
2960.46733,0.01574
2958.40716,0.01581
2956.34699,0.01581
2954.28682,0.01591
2952.22664,0.01590
2950.16647,0.01571
2948.10630,0.01571
2946.04613,0.01580
2943.98596,0.01564
2941.92578,0.01549
2939.86561,0.01556
2937.80544,0.01580
2935.74527,0.01597
2933.68509,0.01585
2931.62492,0.01562
2929.56475,0.01543
2927.50458,0.01519
2925.44441,0.01500
2923.38423,0.01498
2921.32406,0.01500
2919.26389,0.01490
2917.20372,0.01481
2915.14355,0.01483
2913.08337,0.01491
2911.02320,0.01491
2908.96303,0.01478
2906.90286,0.01467
2904.84268,0.01463
2902.78251,0.01455
2900.72234,0.01453
2898.66217,0.01466
2896.60200,0.01464
2894.54182,0.01435
2892.48165,0.01412
2890.42148,0.01403
2888.36131,0.01382
2886.30114,0.01366
2884.24096,0.01370
2882.18079,0.01378
2880.12062,0.01376
2878.06045,0.01364
2876.00028,0.01355
2873.94010,0.01354
2871.87993,0.01357
2869.81976,0.01357
2867.75959,0.01347
2865.69941,0.01329
2863.63924,0.01307
2861.57907,0.01282
2859.51890,0.01265
2857.45873,0.01258
2855.39855,0.01242
2853.33838,0.01216
2851.27821,0.01200
2849.21804,0.01201
2847.15787,0.01214
2845.09769,0.01223
2843.03752,0.01213
2840.97735,0.01189
2838.91718,0.01169
2836.85700,0.01165
2834.79683,0.01174
2832.73666,0.01178
2830.67649,0.01164
2828.61632,0.01148
2826.55614,0.01145
2824.49597,0.01148
2822.43580,0.01140
2820.37563,0.01126
2818.31546,0.01121
2816.25528,0.01118
2814.19511,0.01106
2812.13494,0.01098
2810.07477,0.01100
2808.01460,0.01096
2805.95442,0.01086
2803.89425,0.01074
2801.83408,0.01064
2799.77391,0.01061
2797.71373,0.01059
2795.65356,0.01059
2793.59339,0.01059
2791.53322,0.01043
2789.47305,0.01023
2787.41287,0.01013
2785.35270,0.01009
2783.29253,0.01006
2781.23236,0.00996
2779.17219,0.00986
2777.11201,0.00992
2775.05184,0.01003
2772.99167,0.01006
2770.93150,0.00999
2768.87133,0.00987
2766.81115,0.00983
2764.75098,0.00981
2762.69081,0.00976
2760.63064,0.00961
2758.57046,0.00943
2756.51029,0.00938
2754.45012,0.00939
2752.38995,0.00931
2750.32978,0.00925
2748.26960,0.00935
2746.20943,0.00937
2744.14926,0.00925
2742.08909,0.00913
2740.02892,0.00902
2737.96874,0.00893
2735.90857,0.00878
2733.84840,0.00866
2731.78823,0.00872
2729.72805,0.00879
2727.66788,0.00871
2725.60771,0.00864
2723.54754,0.00867
2721.48737,0.00869
2719.42719,0.00861
2717.36702,0.00854
2715.30685,0.00854
2713.24668,0.00848
2711.18651,0.00836
2709.12633,0.00828
2707.06616,0.00816
2705.00599,0.00804
2702.94582,0.00802
2700.88565,0.00804
2698.82547,0.00802
2696.76530,0.00804
2694.70513,0.00811
2692.64496,0.00807
2690.58478,0.00793
2688.52461,0.00777
2686.46444,0.00760
2684.40427,0.00748
2682.34410,0.00746
2680.28392,0.00743
2678.22375,0.00737
2676.16358,0.00737
2674.10341,0.00737
2672.04324,0.00739
2669.98306,0.00739
2667.92289,0.00727
2665.86272,0.00727
2663.80255,0.00748
2661.74238,0.00754
2659.68220,0.00735
2657.62203,0.00721
2655.56186,0.00726
2653.50169,0.00739
2651.44151,0.00736
2649.38134,0.00722
2647.32117,0.00723
2645.26100,0.00727
2643.20083,0.00708
2641.14065,0.00680
2639.08048,0.00659
2637.02031,0.00649
2634.96014,0.00652
2632.89997,0.00663
2630.83979,0.00675
2628.77962,0.00663
2626.71945,0.00633
2624.65928,0.00632
2622.59910,0.00648
2620.53893,0.00636
2618.47876,0.00622
2616.41859,0.00629
2614.35842,0.00623
2612.29824,0.00605
2610.23807,0.00601
2608.17790,0.00595
2606.11773,0.00587
2604.05756,0.00587
2601.99738,0.00583
2599.93721,0.00574
2597.87704,0.00580
2595.81687,0.00588
2593.75670,0.00568
2591.69652,0.00544
2589.63635,0.00552
2587.57618,0.00576
2585.51601,0.00585
2583.45583,0.00566
2581.39566,0.00543
2579.33549,0.00532
2577.27532,0.00517
2575.21515,0.00509
2573.15497,0.00525
2571.09480,0.00542
2569.03463,0.00549
2566.97446,0.00558
2564.91429,0.00574
2562.85411,0.00570
2560.79394,0.00542
2558.73377,0.00535
2556.67360,0.00546
2554.61342,0.00525
2552.55325,0.00504
2550.49308,0.00514
2548.43291,0.00515
2546.37274,0.00491
2544.31256,0.00476
2542.25239,0.00481
2540.19222,0.00499
2538.13205,0.00513
2536.07188,0.00508
2534.01170,0.00506
2531.95153,0.00542
2529.89136,0.00574
2527.83119,0.00557
2525.77102,0.00534
2523.71084,0.00526
2521.65067,0.00521
2519.59050,0.00509
2517.53033,0.00489
2515.47015,0.00477
2513.40998,0.00478
2511.34981,0.00488
2509.28964,0.00514
2507.22947,0.00543
2505.16929,0.00549
2503.10912,0.00540
2501.04895,0.00514
2498.98878,0.00470
2496.92861,0.00466
2494.86843,0.00513
2492.80826,0.00554
2490.74809,0.00559
2488.68792,0.00541
2486.62775,0.00529
2484.56757,0.00530
2482.50740,0.00536
2480.44723,0.00550
2478.38706,0.00562
2476.32688,0.00562
2474.26671,0.00550
2472.20654,0.00535
2470.14637,0.00525
2468.08620,0.00516
2466.02602,0.00508
2463.96585,0.00511
2461.90568,0.00522
2459.84551,0.00528
2457.78534,0.00539
2455.72516,0.00544
2453.66499,0.00536
2451.60482,0.00539
2449.54465,0.00541
2447.48447,0.00542
2445.42430,0.00553
2443.36413,0.00546
2441.30396,0.00532
2439.24379,0.00536
2437.18361,0.00533
2435.12344,0.00520
2433.06327,0.00512
2431.00310,0.00510
2428.94293,0.00521
2426.88275,0.00543
2424.82258,0.00570
2422.76241,0.00586
2420.70224,0.00572
2418.64207,0.00543
2416.58189,0.00532
2414.52172,0.00550
2412.46155,0.00557
2410.40138,0.00542
2408.34120,0.00542
2406.28103,0.00549
2404.22086,0.00549
2402.16069,0.00551
2400.10052,0.00551
2398.04034,0.00547
2395.98017,0.00554
2393.92000,0.00548
2391.85983,0.00534
2389.79966,0.00527
2387.73948,0.00511
2385.67931,0.00484
2383.61914,0.00475
2381.55897,0.00486
2379.49880,0.00488
2377.43862,0.00452
2375.37845,0.00413
2373.31828,0.00364
2371.25811,0.00360
2369.19793,0.00457
2367.13776,0.00466
2365.07759,0.00342
2363.01742,0.00367
2360.95725,0.00422
2358.89707,0.00553
2356.83690,0.00597
2354.77673,0.00606
2352.71656,0.00607
2350.65639,0.00392
2348.59621,0.00293
2346.53604,0.00684
2344.47587,0.00760
2342.41570,0.00641
2340.35552,0.00546
2338.29535,0.00449
2336.23518,0.00434
2334.17501,0.00501
2332.11484,0.00586
2330.05466,0.00580
2327.99449,0.00566
2325.93432,0.00516
2323.87415,0.00509
2321.81398,0.00465
2319.75380,0.00463
2317.69363,0.00427
2315.63346,0.00440
2313.57329,0.00479
2311.51312,0.00506
2309.45294,0.00525
2307.39277,0.00520
2305.33260,0.00509
2303.27243,0.00513
2301.21225,0.00542
2299.15208,0.00555
2297.09191,0.00549
2295.03174,0.00537
2292.97157,0.00537
2290.91139,0.00558
2288.85122,0.00570
2286.79105,0.00553
2284.73088,0.00524
2282.67071,0.00520
2280.61053,0.00551
2278.55036,0.00587
2276.49019,0.00572
2274.43002,0.00495
2272.36984,0.00434
2270.30967,0.00434
2268.24950,0.00469
2266.18933,0.00504
2264.12916,0.00515
2262.06898,0.00493
2260.00881,0.00466
2257.94864,0.00432
2255.88847,0.00391
2253.82830,0.00354
2251.76812,0.00359
2249.70795,0.00406
2247.64778,0.00433
2245.58761,0.00420
2243.52744,0.00412
2241.46726,0.00405
2239.40709,0.00395
2237.34692,0.00385
2235.28675,0.00363
2233.22657,0.00351
2231.16640,0.00363
2229.10623,0.00405
2227.04606,0.00483
2224.98589,0.00497
2222.92571,0.00406
2220.86554,0.00340
2218.80537,0.00375
2216.74520,0.00427
2214.68503,0.00417
2212.62485,0.00392
2210.56468,0.00377
2208.50451,0.00350
2206.44434,0.00324
2204.38417,0.00292
2202.32399,0.00284
2200.26382,0.00318
2198.20365,0.00325
2196.14348,0.00292
2194.08330,0.00256
2192.02313,0.00239
2189.96296,0.00226
2187.90279,0.00199
2185.84262,0.00199
2183.78244,0.00237
2181.72227,0.00284
2179.66210,0.00293
2177.60193,0.00239
2175.54176,0.00235
2173.48158,0.00312
2171.42141,0.00396
2169.36124,0.00477
2167.30107,0.00506
2165.24089,0.00527
2163.18072,0.00566
2161.12055,0.00401
2159.06038,0.00113
2157.00021,0.00026
2154.94003,0.00081
2152.87986,0.00142
2150.81969,0.00188
2148.75952,0.00212
2146.69935,0.00222
2144.63917,0.00206
2142.57900,0.00139
2140.51883,0.00075
2138.45866,0.00054
2136.39849,0.00026
2134.33831,0.00000
2132.27814,0.00025
2130.21797,0.00073
2128.15780,0.00079
2126.09762,0.00060
2124.03745,0.00087
2121.97728,0.00178
2119.91711,0.00278
2117.85694,0.00334
2115.79676,0.00339
2113.73659,0.00307
2111.67642,0.00283
2109.61625,0.00303
2107.55608,0.00336
2105.49590,0.00346
2103.43573,0.00342
2101.37556,0.00314
2099.31539,0.00269
2097.25521,0.00238
2095.19504,0.00192
2093.13487,0.00134
2091.07470,0.00165
2089.01453,0.00272
2086.95435,0.00324
2084.89418,0.00288
2082.83401,0.00225
2080.77384,0.00180
2078.71367,0.00178
2076.65349,0.00207
2074.59332,0.00229
2072.53315,0.00212
2070.47298,0.00170
2068.41281,0.00123
2066.35263,0.00079
2064.29246,0.00072
2062.23229,0.00129
2060.17212,0.00194
2058.11194,0.00221
2056.05177,0.00212
2053.99160,0.00177
2051.93143,0.00155
2049.87126,0.00173
2047.81108,0.00245
2045.75091,0.00335
2043.69074,0.00310
2041.63057,0.00173
2039.57040,0.00107
2037.51022,0.00188
2035.45005,0.00256
2033.38988,0.00217
2031.32971,0.00165
2029.26954,0.00158
2027.20936,0.00225
2025.14919,0.00258
2023.08902,0.00177
2021.02885,0.00095
2018.96867,0.00041
2016.90850,0.00023
2014.84833,0.00062
2012.78816,0.00101
2010.72799,0.00118
2008.66781,0.00115
2006.60764,0.00098
2004.54747,0.00088
2002.48730,0.00062
2000.42713,0.00013
1998.36695,0.00001
1996.30678,0.00013
1994.24661,0.00012
1992.18644,0.00041
1990.12626,0.00101
1988.06609,0.00120
1986.00592,0.00122
1983.94575,0.00154
1981.88558,0.00174
1979.82540,0.00170
1977.76523,0.00200
1975.70506,0.00249
1973.64489,0.00252
1971.58472,0.00186
1969.52454,0.00071
1967.46437,0.00000
1965.40420,0.00014
1963.34403,0.00041
1961.28386,0.00039
1959.22368,0.00020
1957.16351,0.00037
1955.10334,0.00109
1953.04317,0.00154
1950.98299,0.00135
1948.92282,0.00112
1946.86265,0.00092
1944.80248,0.00068
1942.74231,0.00080
1940.68213,0.00115
1938.62196,0.00125
1936.56179,0.00119
1934.50162,0.00129
1932.44145,0.00146
1930.38127,0.00140
1928.32110,0.00106
1926.26093,0.00069
1924.20076,0.00062
1922.14059,0.00094
1920.08041,0.00133
1918.02024,0.00164
1915.96007,0.00191
1913.89990,0.00208
1911.83972,0.00222
1909.77955,0.00223
1907.71938,0.00204
1905.65921,0.00191
1903.59904,0.00175
1901.53886,0.00139
1899.47869,0.00106
1897.41852,0.00100
1895.35835,0.00128
1893.29818,0.00159
1891.23800,0.00158
1889.17783,0.00139
1887.11766,0.00137
1885.05749,0.00159
1882.99731,0.00185
1880.93714,0.00185
1878.87697,0.00167
1876.81680,0.00161
1874.75663,0.00154
1872.69645,0.00134
1870.63628,0.00126
1868.57611,0.00130
1866.51594,0.00124
1864.45577,0.00114
1862.39559,0.00122
1860.33542,0.00147
1858.27525,0.00170
1856.21508,0.00174
1854.15491,0.00174
1852.09473,0.00175
1850.03456,0.00152
1847.97439,0.00104
1845.91422,0.00069
1843.85404,0.00074
1841.79387,0.00091
1839.73370,0.00095
1837.67353,0.00097
1835.61336,0.00107
1833.55318,0.00132
1831.49301,0.00161
1829.43284,0.00163
1827.37267,0.00148
1825.31250,0.00153
1823.25232,0.00167
1821.19215,0.00164
1819.13198,0.00146
1817.07181,0.00134
1815.01163,0.00135
1812.95146,0.00139
1810.89129,0.00135
1808.83112,0.00129
1806.77095,0.00129
1804.71077,0.00132
1802.65060,0.00129
1800.59043,0.00121
1798.53026,0.00117
1796.47009,0.00126
1794.40991,0.00141
1792.34974,0.00135
1790.28957,0.00110
1788.22940,0.00105
1786.16923,0.00123
1784.10905,0.00146
1782.04888,0.00170
1779.98871,0.00185
1777.92854,0.00184
1775.86836,0.00180
1773.80819,0.00185
1771.74802,0.00195
1769.68785,0.00199
1767.62768,0.00192
1765.56750,0.00186
1763.50733,0.00194
1761.44716,0.00205
1759.38699,0.00209
1757.32682,0.00217
1755.26664,0.00233
1753.20647,0.00253
1751.14630,0.00272
1749.08613,0.00284
1747.02596,0.00286
1744.96578,0.00290
1742.90561,0.00307
1740.84544,0.00330
1738.78527,0.00336
1736.72509,0.00323
1734.66492,0.00309
1732.60475,0.00305
1730.54458,0.00308
1728.48441,0.00309
1726.42423,0.00312
1724.36406,0.00317
1722.30389,0.00325
1720.24372,0.00339
1718.18355,0.00354
1716.12337,0.00363
1714.06320,0.00377
1712.00303,0.00378
1709.94286,0.00361
1707.88268,0.00350
1705.82251,0.00355
1703.76234,0.00374
1701.70217,0.00414
1699.64200,0.00457
1697.58182,0.00492
1695.52165,0.00551
1693.46148,0.00616
1691.40131,0.00655
1689.34114,0.00686
1687.28096,0.00731
1685.22079,0.00788
1683.16062,0.00840
1681.10045,0.00887
1679.04028,0.00941
1676.98010,0.00999
1674.91993,0.01045
1672.85976,0.01081
1670.79959,0.01127
1668.73941,0.01181
1666.67924,0.01217
1664.61907,0.01239
1662.55890,0.01267
1660.49873,0.01297
1658.43855,0.01328
1656.37838,0.01372
1654.31821,0.01424
1652.25804,0.01434
1650.19787,0.01405
1648.13769,0.01374
1646.07752,0.01346
1644.01735,0.01320
1641.95718,0.01306
1639.89701,0.01302
1637.83683,0.01295
1635.77666,0.01272
1633.71649,0.01238
1631.65632,0.01206
1629.59614,0.01185
1627.53597,0.01175
1625.47580,0.01163
1623.41563,0.01140
1621.35546,0.01114
1619.29528,0.01103
1617.23511,0.01093
1615.17494,0.01066
1613.11477,0.01043
1611.05460,0.01036
1608.99442,0.01034
1606.93425,0.01025
1604.87408,0.01010
1602.81391,0.00988
1600.75373,0.00961
1598.69356,0.00940
1596.63339,0.00922
1594.57322,0.00905
1592.51305,0.00897
1590.45287,0.00883
1588.39270,0.00859
1586.33253,0.00835
1584.27236,0.00811
1582.21219,0.00787
1580.15201,0.00773
1578.09184,0.00764
1576.03167,0.00736
1573.97150,0.00694
1571.91133,0.00672
1569.85115,0.00672
1567.79098,0.00669
1565.73081,0.00655
1563.67064,0.00645
1561.61046,0.00651
1559.55029,0.00666
1557.49012,0.00665
1555.42995,0.00644
1553.36978,0.00621
1551.30960,0.00612
1549.24943,0.00615
1547.18926,0.00616
1545.12909,0.00623
1543.06892,0.00637
1541.00874,0.00629
1538.94857,0.00585
1536.88840,0.00553
1534.82823,0.00540
1532.76805,0.00521
1530.70788,0.00494
1528.64771,0.00476
1526.58754,0.00467
1524.52737,0.00475
1522.46719,0.00496
1520.40702,0.00498
1518.34685,0.00468
1516.28668,0.00418
1514.22651,0.00369
1512.16633,0.00345
1510.10616,0.00352
1508.04599,0.00365
1505.98582,0.00346
1503.92565,0.00309
1501.86547,0.00289
1499.80530,0.00295
1497.74513,0.00306
1495.68496,0.00299
1493.62478,0.00290
1491.56461,0.00286
1489.50444,0.00272
1487.44427,0.00250
1485.38410,0.00235
1483.32392,0.00232
1481.26375,0.00239
1479.20358,0.00251
1477.14341,0.00260
1475.08324,0.00265
1473.02306,0.00281
1470.96289,0.00304
1468.90272,0.00317
1466.84255,0.00329
1464.78238,0.00344
1462.72220,0.00363
1460.66203,0.00394
1458.60186,0.00426
1456.54169,0.00417
1454.48151,0.00383
1452.42134,0.00360
1450.36117,0.00345
1448.30100,0.00336
1446.24083,0.00343
1444.18065,0.00359
1442.12048,0.00366
1440.06031,0.00362
1438.00014,0.00358
1435.93997,0.00358
1433.87979,0.00358
1431.81962,0.00367
1429.75945,0.00386
1427.69928,0.00401
1425.63910,0.00408
1423.57893,0.00416
1421.51876,0.00425
1419.45859,0.00430
1417.39842,0.00438
1415.33824,0.00454
1413.27807,0.00464
1411.21790,0.00455
1409.15773,0.00443
1407.09756,0.00445
1405.03738,0.00454
1402.97721,0.00454
1400.91704,0.00441
1398.85687,0.00417
1396.79670,0.00397
1394.73652,0.00388
1392.67635,0.00378
1390.61618,0.00369
1388.55601,0.00359
1386.49583,0.00350
1384.43566,0.00349
1382.37549,0.00354
1380.31532,0.00354
1378.25515,0.00351
1376.19497,0.00351
1374.13480,0.00354
1372.07463,0.00351
1370.01446,0.00342
1367.95429,0.00337
1365.89411,0.00337
1363.83394,0.00338
1361.77377,0.00336
1359.71360,0.00325
1357.65343,0.00311
1355.59325,0.00300
1353.53308,0.00293
1351.47291,0.00287
1349.41274,0.00286
1347.35256,0.00290
1345.29239,0.00288
1343.23222,0.00272
1341.17205,0.00253
1339.11188,0.00244
1337.05170,0.00248
1334.99153,0.00250
1332.93136,0.00248
1330.87119,0.00252
1328.81102,0.00262
1326.75084,0.00263
1324.69067,0.00257
1322.63050,0.00256
1320.57033,0.00269
1318.51015,0.00280
1316.44998,0.00279
1314.38981,0.00273
1312.32964,0.00274
1310.26947,0.00279
1308.20929,0.00287
1306.14912,0.00295
1304.08895,0.00293
1302.02878,0.00286
1299.96861,0.00292
1297.90843,0.00312
1295.84826,0.00341
1293.78809,0.00365
1291.72792,0.00369
1289.66775,0.00354
1287.60757,0.00333
1285.54740,0.00318
1283.48723,0.00311
1281.42706,0.00309
1279.36688,0.00311
1277.30671,0.00314
1275.24654,0.00312
1273.18637,0.00302
1271.12620,0.00294
1269.06602,0.00296
1267.00585,0.00300
1264.94568,0.00300
1262.88551,0.00298
1260.82534,0.00307
1258.76516,0.00329
1256.70499,0.00341
1254.64482,0.00336
1252.58465,0.00333
1250.52447,0.00333
1248.46430,0.00328
1246.40413,0.00317
1244.34396,0.00306
1242.28379,0.00302
1240.22361,0.00296
1238.16344,0.00282
1236.10327,0.00266
1234.04310,0.00254
1231.98293,0.00240
1229.92275,0.00223
1227.86258,0.00210
1225.80241,0.00205
1223.74224,0.00204
1221.68207,0.00190
1219.62189,0.00161
1217.56172,0.00131
1215.50155,0.00108
1213.44138,0.00085
1211.38120,0.00067
1209.32103,0.00061
1207.26086,0.00060
1205.20069,0.00054
1203.14052,0.00040
1201.08034,0.00015
1199.02017,0.00000
1196.96000,0.00013
1194.89983,0.00032
1192.83966,0.00030
1190.77948,0.00019
1188.71931,0.00018
1186.65914,0.00029
1184.59897,0.00039
1182.53880,0.00041
1180.47862,0.00050
1178.41845,0.00075
1176.35828,0.00113
1174.29811,0.00154
1172.23793,0.00182
1170.17776,0.00204
1168.11759,0.00225
1166.05742,0.00242
1163.99725,0.00261
1161.93707,0.00294
1159.87690,0.00334
1157.81673,0.00380
1155.75656,0.00434
1153.69639,0.00484
1151.63621,0.00524
1149.57604,0.00570
1147.51587,0.00635
1145.45570,0.00705
1143.39552,0.00764
1141.33535,0.00812
1139.27518,0.00855
1137.21501,0.00910
1135.15484,0.00987
1133.09466,0.01074
1131.03449,0.01148
1128.97432,0.01207
1126.91415,0.01267
1124.85398,0.01348
1122.79380,0.01461
1120.73363,0.01575
1118.67346,0.01655
1116.61329,0.01725
1114.55312,0.01797
1112.49294,0.01861
1110.43277,0.01921
1108.37260,0.01985
1106.31243,0.02054
1104.25225,0.02127
1102.19208,0.02198
1100.13191,0.02254
1098.07174,0.02299
1096.01157,0.02352
1093.95139,0.02413
1091.89122,0.02464
1089.83105,0.02506
1087.77088,0.02550
1085.71071,0.02592
1083.65053,0.02637
1081.59036,0.02690
1079.53019,0.02741
1077.47002,0.02782
1075.40985,0.02803
1073.34967,0.02812
1071.28950,0.02826
1069.22933,0.02845
1067.16916,0.02862
1065.10898,0.02873
1063.04881,0.02875
1060.98864,0.02873
1058.92847,0.02859
1056.86830,0.02836
1054.80812,0.02818
1052.74795,0.02778
1050.68778,0.02696
1048.62761,0.02608
1046.56744,0.02531
1044.50726,0.02455
1042.44709,0.02372
1040.38692,0.02294
1038.32675,0.02221
1036.26657,0.02140
1034.20640,0.02046
1032.14623,0.01936
1030.08606,0.01825
1028.02589,0.01736
1025.96571,0.01666
1023.90554,0.01609
1021.84537,0.01544
1019.78520,0.01468
1017.72503,0.01409
1015.66485,0.01361
1013.60468,0.01320
1011.54451,0.01309
1009.48434,0.01318
1007.42417,0.01328
1005.36399,0.01345
1003.30382,0.01379
1001.24365,0.01434
999.18348,0.01502
997.12330,0.01554
995.06313,0.01600
993.00296,0.01671
990.94279,0.01742
988.88262,0.01778
986.82244,0.01796
984.76227,0.01821
982.70210,0.01857
980.64193,0.01886
978.58176,0.01885
976.52158,0.01862
974.46141,0.01846
972.40124,0.01822
970.34107,0.01769
968.28089,0.01713
966.22072,0.01673
964.16055,0.01631
962.10038,0.01571
960.04021,0.01498
957.98003,0.01423
955.91986,0.01355
953.85969,0.01293
951.79952,0.01218
949.73935,0.01144
947.67917,0.01086
945.61900,0.01028
943.55883,0.00965
941.49866,0.00916
939.43849,0.00866
937.37831,0.00791
935.31814,0.00723
933.25797,0.00701
931.19780,0.00684
929.13762,0.00638
927.07745,0.00584
925.01728,0.00539
922.95711,0.00510
920.89694,0.00505
918.83676,0.00503
916.77659,0.00489
914.71642,0.00464
912.65625,0.00431
910.59608,0.00405
908.53590,0.00394
906.47573,0.00389
904.41556,0.00379
902.35539,0.00377
900.29522,0.00393
898.23504,0.00416
896.17487,0.00445
894.11470,0.00476
892.05453,0.00502
889.99435,0.00527
887.93418,0.00562
885.87401,0.00594
883.81384,0.00606
881.75367,0.00622
879.69349,0.00653
877.63332,0.00680
875.57315,0.00715
873.51298,0.00766
871.45281,0.00823
869.39263,0.00869
867.33246,0.00881
865.27229,0.00873
863.21212,0.00883
861.15194,0.00907
859.09177,0.00914
857.03160,0.00920
854.97143,0.00942
852.91126,0.00959
850.85108,0.00961
848.79091,0.00952
846.73074,0.00931
844.67057,0.00909
842.61040,0.00912
840.55022,0.00938
838.49005,0.00937
836.42988,0.00863
834.36971,0.00751
832.30954,0.00684
830.24936,0.00677
828.18919,0.00665
826.12902,0.00638
824.06885,0.00629
822.00867,0.00609
819.94850,0.00559
817.88833,0.00527
815.82816,0.00532
813.76799,0.00535
811.70781,0.00523
809.64764,0.00498
807.58747,0.00457
805.52730,0.00433
803.46713,0.00429
801.40695,0.00418
799.34678,0.00391
797.28661,0.00360
795.22644,0.00343
793.16627,0.00349
791.10609,0.00375
789.04592,0.00395
786.98575,0.00384
784.92558,0.00348
782.86540,0.00327
780.80523,0.00332
778.74506,0.00327
776.68489,0.00306
774.62472,0.00321
772.56454,0.00367
770.50437,0.00383
768.44420,0.00363
766.38403,0.00342
764.32386,0.00364
762.26368,0.00396
760.20351,0.00371
758.14334,0.00303
756.08317,0.00257
754.02299,0.00282
751.96282,0.00332
749.90265,0.00327
747.84248,0.00288
745.78231,0.00268
743.72213,0.00256
741.66196,0.00261
739.60179,0.00283
737.54162,0.00292
735.48145,0.00309
733.42127,0.00329
731.36110,0.00326
729.30093,0.00321
727.24076,0.00315
725.18059,0.00320
723.12041,0.00349
721.06024,0.00412
719.00007,0.00380
716.93990,0.00329
714.87972,0.00299
712.81955,0.00284
710.75938,0.00319
708.69921,0.00365
706.63904,0.00359
704.57886,0.00344
702.51869,0.00371
700.45852,0.00376
698.39835,0.00317
696.33818,0.00251
694.27800,0.00251
692.21783,0.00308
690.15766,0.00359
688.09749,0.00391
686.03731,0.00414
683.97714,0.00406
681.91697,0.00352
679.85680,0.00273
677.79663,0.00223
675.73645,0.00228
673.67628,0.00170
671.61611,0.00000
669.55594,0.00365
667.49577,0.00784
665.43559,-0.00016
663.37542,0.00036
661.31525,0.00209
659.25508,0.00233
657.19491,0.00254
655.13473,0.00285
653.07456,0.00290
651.01439,0.00276
648.95422,0.00265
646.89404,0.00274
644.83387,0.00342
642.77370,0.00377
640.71353,0.00335
638.65336,0.00254
636.59318,0.00215
634.53301,0.00252
632.47284,0.00304
630.41267,0.00302
628.35250,0.00285
626.29232,0.00343
624.23215,0.00435
622.17198,0.00463
620.11181,0.00423
618.05164,0.00256
615.99146,0.00044
613.93129,0.00000
611.87112,0.00110
609.81095,0.00290
607.75077,0.00314
605.69060,0.00125
603.63043,-0.00020
601.57026,0.00005
599.51009,0.00000
