3996.73391,0.00021
3994.67373,0.00031
3992.61356,0.00034
3990.55339,0.00018
3988.49322,0.00000
3986.43305,0.00015
3984.37287,0.00051
3982.31270,0.00059
3980.25253,0.00043
3978.19236,0.00044
3976.13219,0.00052
3974.07201,0.00042
3972.01184,0.00043
3969.95167,0.00070
3967.89150,0.00085
3965.83133,0.00070
3963.77115,0.00048
3961.71098,0.00045
3959.65081,0.00066
3957.59064,0.00090
3955.53046,0.00109
3953.47029,0.00129
3951.41012,0.00126
3949.34995,0.00079
3947.28978,0.00035
3945.22960,0.00034
3943.16943,0.00049
3941.10926,0.00066
3939.04909,0.00090
3936.98892,0.00097
3934.92874,0.00071
3932.86857,0.00027
3930.80840,0.00000
3928.74823,0.00021
3926.68805,0.00066
3924.62788,0.00089
3922.56771,0.00088
3920.50754,0.00076
3918.44737,0.00046
3916.38719,0.00027
3914.32702,0.00041
3912.26685,0.00067
3910.20668,0.00087
3908.14651,0.00117
3906.08633,0.00146
3904.02616,0.00118
3901.96599,0.00049
3899.90582,0.00035
3897.84565,0.00075
3895.78547,0.00116
3893.72530,0.00128
3891.66513,0.00098
3889.60496,0.00069
3887.54478,0.00080
3885.48461,0.00102
3883.42444,0.00109
3881.36427,0.00097
3879.30410,0.00069
3877.24392,0.00054
3875.18375,0.00063
3873.12358,0.00081
3871.06341,0.00073
3869.00324,0.00035
3866.94306,0.00038
3864.88289,0.00066
3862.82272,0.00054
3860.76255,0.00044
3858.70237,0.00082
3856.64220,0.00138
3854.58203,0.00166
3852.52186,0.00126
3850.46169,0.00083
3848.40151,0.00091
3846.34134,0.00135
3844.28117,0.00168
3842.22100,0.00168
3840.16083,0.00164
3838.10065,0.00163
3836.04048,0.00148
3833.98031,0.00135
3831.92014,0.00149
3829.85997,0.00177
3827.79979,0.00181
3825.73962,0.00166
3823.67945,0.00177
3821.61928,0.00200
3819.55910,0.00197
3817.49893,0.00202
3815.43876,0.00200
3813.37859,0.00181
3811.31842,0.00176
3809.25824,0.00174
3807.19807,0.00142
3805.13790,0.00102
3803.07773,0.00086
3801.01756,0.00087
3798.95738,0.00106
3796.89721,0.00120
3794.83704,0.00128
3792.77687,0.00153
3790.71670,0.00182
3788.65652,0.00206
3786.59635,0.00223
3784.53618,0.00220
3782.47601,0.00225
3780.41583,0.00241
3778.35566,0.00232
3776.29549,0.00222
3774.23532,0.00229
3772.17515,0.00228
3770.11497,0.00212
3768.05480,0.00193
3765.99463,0.00178
3763.93446,0.00186
3761.87429,0.00220
3759.81411,0.00222
3757.75394,0.00173
3755.69377,0.00137
3753.63360,0.00123
3751.57342,0.00080
3749.51325,0.00035
3747.45308,0.00055
3745.39291,0.00073
3743.33274,0.00086
3741.27256,0.00160
3739.21239,0.00256
3737.15222,0.00278
3735.09205,0.00190
3733.03188,0.00128
3730.97170,0.00182
3728.91153,0.00280
3726.85136,0.00308
3724.79119,0.00244
3722.73102,0.00190
3720.67084,0.00185
3718.61067,0.00201
3716.55050,0.00233
3714.49033,0.00310
3712.43015,0.00405
3710.36998,0.00385
3708.30981,0.00300
3706.24964,0.00270
3704.18947,0.00293
3702.12929,0.00288
3700.06912,0.00257
3698.00895,0.00267
3695.94878,0.00298
3693.88861,0.00308
3691.82843,0.00267
3689.76826,0.00195
3687.70809,0.00174
3685.64792,0.00235
3683.58775,0.00287
3681.52757,0.00295
3679.46740,0.00270
3677.40723,0.00217
3675.34706,0.00156
3673.28688,0.00157
3671.22671,0.00201
3669.16654,0.00214
3667.10637,0.00215
3665.04620,0.00254
3662.98602,0.00317
3660.92585,0.00380
3658.86568,0.00420
3656.80551,0.00411
3654.74534,0.00405
3652.68516,0.00471
3650.62499,0.00518
3648.56482,0.00445
3646.50465,0.00367
3644.44447,0.00336
3642.38430,0.00332
3640.32413,0.00352
3638.26396,0.00367
3636.20379,0.00363
3634.14361,0.00382
3632.08344,0.00444
3630.02327,0.00482
3627.96310,0.00431
3625.90293,0.00377
3623.84275,0.00350
3621.78258,0.00314
3619.72241,0.00292
3617.66224,0.00333
3615.60207,0.00397
3613.54189,0.00396
3611.48172,0.00356
3609.42155,0.00337
3607.36138,0.00352
3605.30120,0.00392
3603.24103,0.00447
3601.18086,0.00517
3599.12069,0.00560
3597.06052,0.00568
3595.00034,0.00566
3592.94017,0.00591
3590.88000,0.00621
3588.81983,0.00625
3586.75966,0.00594
3584.69948,0.00583
3582.63931,0.00611
3580.57914,0.00658
3578.51897,0.00699
3576.45879,0.00722
3574.39862,0.00740
3572.33845,0.00757
3570.27828,0.00745
3568.21811,0.00689
3566.15793,0.00641
3564.09776,0.00662
3562.03759,0.00712
3559.97742,0.00757
3557.91725,0.00798
3555.85707,0.00827
3553.79690,0.00836
3551.73673,0.00828
3549.67656,0.00822
3547.61639,0.00836
3545.55621,0.00872
3543.49604,0.00902
3541.43587,0.00912
3539.37570,0.00932
3537.31552,0.00967
3535.25535,0.00985
3533.19518,0.00987
3531.13501,0.00985
3529.07484,0.00987
3527.01466,0.01000
3524.95449,0.01014
3522.89432,0.01018
3520.83415,0.01014
3518.77398,0.01018
3516.71380,0.01046
3514.65363,0.01092
3512.59346,0.01121
3510.53329,0.01114
3508.47312,0.01095
3506.41294,0.01096
3504.35277,0.01106
3502.29260,0.01113
3500.23243,0.01146
3498.17225,0.01192
3496.11208,0.01206
3494.05191,0.01187
3491.99174,0.01175
3489.93157,0.01192
3487.87139,0.01227
3485.81122,0.01249
3483.75105,0.01244
3481.69088,0.01229
3479.63071,0.01236
3477.57053,0.01268
3475.51036,0.01289
3473.45019,0.01291
3471.39002,0.01292
3469.32984,0.01299
3467.26967,0.01311
3465.20950,0.01326
3463.14933,0.01331
3461.08916,0.01318
3459.02898,0.01309
3456.96881,0.01325
3454.90864,0.01345
3452.84847,0.01349
3450.78830,0.01346
3448.72812,0.01350
3446.66795,0.01357
3444.60778,0.01368
3442.54761,0.01390
3440.48744,0.01427
3438.42726,0.01460
3436.36709,0.01455
3434.30692,0.01433
3432.24675,0.01431
3430.18657,0.01442
3428.12640,0.01463
3426.06623,0.01487
3424.00606,0.01508
3421.94589,0.01511
3419.88571,0.01482
3417.82554,0.01457
3415.76537,0.01459
3413.70520,0.01462
3411.64503,0.01449
3409.58485,0.01445
3407.52468,0.01460
3405.46451,0.01469
3403.40434,0.01484
3401.34416,0.01514
3399.28399,0.01486
3397.22382,0.01466
3395.16365,0.01485
3393.10348,0.01521
3391.04330,0.01558
3388.98313,0.01606
3386.92296,0.01621
3384.86279,0.01586
3382.80262,0.01556
3380.74244,0.01551
3378.68227,0.01557
3376.62210,0.01562
3374.56193,0.01552
3372.50176,0.01534
3370.44158,0.01526
3368.38141,0.01533
3366.32124,0.01553
3364.26107,0.01582
3362.20089,0.01599
3360.14072,0.01595
3358.08055,0.01588
3356.02038,0.01593
3353.96021,0.01609
3351.90003,0.01625
3349.83986,0.01628
3347.77969,0.01619
3345.71952,0.01609
3343.65935,0.01593
3341.59917,0.01577
3339.53900,0.01577
3337.47883,0.01585
3335.41866,0.01591
3333.35849,0.01582
3331.29831,0.01561
3329.23814,0.01557
3327.17797,0.01568
3325.11780,0.01584
3323.05762,0.01599
3320.99745,0.01603
3318.93728,0.01595
3316.87711,0.01586
3314.81694,0.01586
3312.75676,0.01589
3310.69659,0.01595
3308.63642,0.01603
3306.57625,0.01594
3304.51608,0.01578
3302.45590,0.01573
3300.39573,0.01574
3298.33556,0.01584
3296.27539,0.01612
3294.21521,0.01625
3292.15504,0.01609
3290.09487,0.01593
3288.03470,0.01580
3285.97453,0.01572
3283.91435,0.01577
3281.85418,0.01589
3279.79401,0.01611
3277.73384,0.01630
3275.67367,0.01616
3273.61349,0.01585
3271.55332,0.01578
3269.49315,0.01577
3267.43298,0.01570
3265.37281,0.01586
3263.31263,0.01618
3261.25246,0.01618
3259.19229,0.01590
3257.13212,0.01555
3255.07194,0.01523
3253.01177,0.01527
3250.95160,0.01560
3248.89143,0.01567
3246.83126,0.01567
3244.77108,0.01590
3242.71091,0.01611
3240.65074,0.01607
3238.59057,0.01573
3236.53040,0.01531
3234.47022,0.01500
3232.41005,0.01490
3230.34988,0.01515
3228.28971,0.01550
3226.22954,0.01555
3224.16936,0.01537
3222.10919,0.01529
3220.04902,0.01542
3217.98885,0.01557
3215.92867,0.01549
3213.86850,0.01533
3211.80833,0.01516
3209.74816,0.01487
3207.68799,0.01471
3205.62781,0.01493
3203.56764,0.01526
3201.50747,0.01529
3199.44730,0.01509
3197.38713,0.01509
3195.32695,0.01528
3193.26678,0.01524
3191.20661,0.01512
3189.14644,0.01523
3187.08626,0.01529
3185.02609,0.01512
3182.96592,0.01496
3180.90575,0.01493
3178.84558,0.01499
3176.78540,0.01506
3174.72523,0.01508
3172.66506,0.01499
3170.60489,0.01496
3168.54472,0.01494
3166.48454,0.01466
3164.42437,0.01429
3162.36420,0.01419
3160.30403,0.01422
3158.24386,0.01425
3156.18368,0.01434
3154.12351,0.01439
3152.06334,0.01420
3150.00317,0.01392
3147.94299,0.01375
3145.88282,0.01369
3143.82265,0.01361
3141.76248,0.01347
3139.70231,0.01331
3137.64213,0.01331
3135.58196,0.01347
3133.52179,0.01344
3131.46162,0.01334
3129.40145,0.01343
3127.34127,0.01356
3125.28110,0.01369
3123.22093,0.01381
3121.16076,0.01372
3119.10058,0.01359
3117.04041,0.01366
3114.98024,0.01371
3112.92007,0.01364
3110.85990,0.01357
3108.79972,0.01355
3106.73955,0.01355
3104.67938,0.01347
3102.61921,0.01323
3100.55904,0.01313
3098.49886,0.01327
3096.43869,0.01333
3094.37852,0.01325
3092.31835,0.01322
3090.25818,0.01322
3088.19800,0.01309
3086.13783,0.01273
3084.07766,0.01242
3082.01749,0.01252
3079.95731,0.01279
3077.89714,0.01274
3075.83697,0.01241
3073.77680,0.01219
3071.71663,0.01222
3069.65645,0.01211
3067.59628,0.01182
3065.53611,0.01176
3063.47594,0.01201
3061.41577,0.01214
3059.35559,0.01198
3057.29542,0.01168
3055.23525,0.01148
3053.17508,0.01156
3051.11491,0.01177
3049.05473,0.01190
3046.99456,0.01190
3044.93439,0.01182
3042.87422,0.01164
3040.81404,0.01140
3038.75387,0.01126
3036.69370,0.01123
3034.63353,0.01129
3032.57336,0.01124
3030.51318,0.01106
3028.45301,0.01101
3026.39284,0.01099
3024.33267,0.01084
3022.27250,0.01073
3020.21232,0.01082
3018.15215,0.01095
3016.09198,0.01091
3014.03181,0.01080
3011.97163,0.01084
3009.91146,0.01092
3007.85129,0.01090
3005.79112,0.01073
3003.73095,0.01049
3001.67077,0.01045
2999.61060,0.01052
2997.55043,0.01034
2995.49026,0.01016
2993.43009,0.01023
2991.36991,0.01032
2989.30974,0.01035
2987.24957,0.01045
2985.18940,0.01042
2983.12923,0.01024
2981.06905,0.01013
2979.00888,0.01004
2976.94871,0.00997
2974.88854,0.01013
2972.82836,0.01029
2970.76819,0.01029
2968.70802,0.01031
2966.64785,0.01056
2964.58768,0.01086
2962.52750,0.01088
2960.46733,0.01068
2958.40716,0.01042
2956.34699,0.01014
2954.28682,0.01009
2952.22664,0.01031
2950.16647,0.01051
2948.10630,0.01044
2946.04613,0.01021
2943.98596,0.01008
2941.92578,0.01013
2939.86561,0.01016
2937.80544,0.00996
2935.74527,0.00989
2933.68509,0.01024
2931.62492,0.01056
2929.56475,0.01059
2927.50458,0.01051
2925.44441,0.01036
2923.38423,0.01015
2921.32406,0.00992
2919.26389,0.00982
2917.20372,0.00979
2915.14355,0.00972
2913.08337,0.00975
2911.02320,0.00982
2908.96303,0.00980
2906.90286,0.00975
2904.84268,0.00983
2902.78251,0.00983
2900.72234,0.00968
2898.66217,0.00953
2896.60200,0.00931
2894.54182,0.00911
2892.48165,0.00905
2890.42148,0.00903
2888.36131,0.00910
2886.30114,0.00917
2884.24096,0.00904
2882.18079,0.00889
2880.12062,0.00893
2878.06045,0.00894
2876.00028,0.00878
2873.94010,0.00870
2871.87993,0.00877
2869.81976,0.00881
2867.75959,0.00887
2865.69941,0.00896
2863.63924,0.00904
2861.57907,0.00907
2859.51890,0.00880
2857.45873,0.00846
2855.39855,0.00848
2853.33838,0.00857
2851.27821,0.00846
2849.21804,0.00828
2847.15787,0.00808
2845.09769,0.00786
2843.03752,0.00769
2840.97735,0.00771
2838.91718,0.00791
2836.85700,0.00813
2834.79683,0.00813
2832.73666,0.00784
2830.67649,0.00763
2828.61632,0.00761
2826.55614,0.00753
2824.49597,0.00752
2822.43580,0.00760
2820.37563,0.00748
2818.31546,0.00725
2816.25528,0.00719
2814.19511,0.00726
2812.13494,0.00735
2810.07477,0.00739
2808.01460,0.00733
2805.95442,0.00724
2803.89425,0.00720
2801.83408,0.00717
2799.77391,0.00719
2797.71373,0.00717
2795.65356,0.00694
2793.59339,0.00674
2791.53322,0.00679
2789.47305,0.00683
2787.41287,0.00676
2785.35270,0.00673
2783.29253,0.00657
2781.23236,0.00623
2779.17219,0.00613
2777.11201,0.00644
2775.05184,0.00676
2772.99167,0.00679
2770.93150,0.00666
2768.87133,0.00657
2766.81115,0.00655
2764.75098,0.00650
2762.69081,0.00643
2760.63064,0.00647
2758.57046,0.00659
2756.51029,0.00666
2754.45012,0.00672
2752.38995,0.00678
2750.32978,0.00676
2748.26960,0.00669
2746.20943,0.00659
2744.14926,0.00645
2742.08909,0.00634
2740.02892,0.00625
2737.96874,0.00619
2735.90857,0.00630
2733.84840,0.00648
2731.78823,0.00639
2729.72805,0.00604
2727.66788,0.00572
2725.60771,0.00560
2723.54754,0.00564
2721.48737,0.00565
2719.42719,0.00561
2717.36702,0.00580
2715.30685,0.00609
2713.24668,0.00613
2711.18651,0.00597
2709.12633,0.00574
2707.06616,0.00566
2705.00599,0.00573
2702.94582,0.00569
2700.88565,0.00555
2698.82547,0.00545
2696.76530,0.00539
2694.70513,0.00542
2692.64496,0.00550
2690.58478,0.00555
2688.52461,0.00557
2686.46444,0.00554
2684.40427,0.00557
2682.34410,0.00561
2680.28392,0.00546
2678.22375,0.00534
2676.16358,0.00542
2674.10341,0.00538
2672.04324,0.00523
2669.98306,0.00516
2667.92289,0.00507
2665.86272,0.00497
2663.80255,0.00497
2661.74238,0.00509
2659.68220,0.00536
2657.62203,0.00570
2655.56186,0.00583
2653.50169,0.00565
2651.44151,0.00538
2649.38134,0.00531
2647.32117,0.00549
2645.26100,0.00557
2643.20083,0.00536
2641.14065,0.00522
2639.08048,0.00542
2637.02031,0.00565
2634.96014,0.00575
2632.89997,0.00583
2630.83979,0.00586
2628.77962,0.00577
2626.71945,0.00561
2624.65928,0.00536
2622.59910,0.00509
2620.53893,0.00497
2618.47876,0.00509
2616.41859,0.00528
2614.35842,0.00523
2612.29824,0.00508
2610.23807,0.00514
2608.17790,0.00529
2606.11773,0.00532
2604.05756,0.00524
2601.99738,0.00519
2599.93721,0.00523
2597.87704,0.00523
2595.81687,0.00505
2593.75670,0.00476
2591.69652,0.00473
2589.63635,0.00498
2587.57618,0.00503
2585.51601,0.00499
2583.45583,0.00513
2581.39566,0.00502
2579.33549,0.00465
2577.27532,0.00443
2575.21515,0.00419
2573.15497,0.00414
2571.09480,0.00448
2569.03463,0.00460
2566.97446,0.00462
2564.91429,0.00481
2562.85411,0.00490
2560.79394,0.00488
2558.73377,0.00489
2556.67360,0.00481
2554.61342,0.00465
2552.55325,0.00462
2550.49308,0.00452
2548.43291,0.00445
2546.37274,0.00485
2544.31256,0.00531
2542.25239,0.00527
2540.19222,0.00498
2538.13205,0.00474
2536.07188,0.00450
2534.01170,0.00441
2531.95153,0.00438
2529.89136,0.00425
2527.83119,0.00423
2525.77102,0.00439
2523.71084,0.00457
2521.65067,0.00466
2519.59050,0.00458
2517.53033,0.00455
2515.47015,0.00466
2513.40998,0.00477
2511.34981,0.00484
2509.28964,0.00456
2507.22947,0.00409
2505.16929,0.00397
2503.10912,0.00416
2501.04895,0.00414
2498.98878,0.00394
2496.92861,0.00404
2494.86843,0.00438
2492.80826,0.00468
2490.74809,0.00494
2488.68792,0.00510
2486.62775,0.00492
2484.56757,0.00456
2482.50740,0.00449
2480.44723,0.00465
2478.38706,0.00474
2476.32688,0.00483
2474.26671,0.00496
2472.20654,0.00480
2470.14637,0.00451
2468.08620,0.00452
2466.02602,0.00472
2463.96585,0.00473
2461.90568,0.00465
2459.84551,0.00472
2457.78534,0.00481
2455.72516,0.00474
2453.66499,0.00477
2451.60482,0.00495
2449.54465,0.00500
2447.48447,0.00492
2445.42430,0.00482
2443.36413,0.00491
2441.30396,0.00503
2439.24379,0.00473
2437.18361,0.00448
2435.12344,0.00471
2433.06327,0.00483
2431.00310,0.00454
2428.94293,0.00426
2426.88275,0.00429
2424.82258,0.00460
2422.76241,0.00481
2420.70224,0.00465
2418.64207,0.00453
2416.58189,0.00472
2414.52172,0.00508
2412.46155,0.00531
2410.40138,0.00510
2408.34120,0.00481
2406.28103,0.00488
2404.22086,0.00493
2402.16069,0.00480
2400.10052,0.00478
2398.04034,0.00441
2395.98017,0.00420
2393.92000,0.00407
2391.85983,0.00412
2389.79966,0.00435
2387.73948,0.00457
2385.67931,0.00454
2383.61914,0.00433
2381.55897,0.00427
2379.49880,0.00456
2377.43862,0.00496
2375.37845,0.00571
2373.31828,0.00581
2371.25811,0.00564
2369.19793,0.00669
2367.13776,0.00756
2365.07759,0.00678
2363.01742,0.00722
2360.95725,0.00617
2358.89707,0.00660
2356.83690,0.00741
2354.77673,0.00858
2352.71656,0.00826
2350.65639,0.00352
2348.59621,0.00092
2346.53604,0.00795
2344.47587,0.00978
2342.41570,0.00876
2340.35552,0.00757
2338.29535,0.00610
2336.23518,0.00530
2334.17501,0.00501
2332.11484,0.00567
2330.05466,0.00612
2327.99449,0.00671
2325.93432,0.00559
2323.87415,0.00584
2321.81398,0.00608
2319.75380,0.00676
2317.69363,0.00567
2315.63346,0.00514
2313.57329,0.00504
2311.51312,0.00471
2309.45294,0.00479
2307.39277,0.00499
2305.33260,0.00494
2303.27243,0.00471
2301.21225,0.00493
2299.15208,0.00513
2297.09191,0.00535
2295.03174,0.00570
2292.97157,0.00582
2290.91139,0.00583
2288.85122,0.00594
2286.79105,0.00592
2284.73088,0.00568
2282.67071,0.00544
2280.61053,0.00545
2278.55036,0.00582
2276.49019,0.00613
2274.43002,0.00595
2272.36984,0.00547
2270.30967,0.00483
2268.24950,0.00434
2266.18933,0.00443
2264.12916,0.00483
2262.06898,0.00484
2260.00881,0.00469
2257.94864,0.00483
2255.88847,0.00524
2253.82830,0.00514
2251.76812,0.00427
2249.70795,0.00357
2247.64778,0.00430
2245.58761,0.00565
2243.52744,0.00618
2241.46726,0.00597
2239.40709,0.00573
2237.34692,0.00542
2235.28675,0.00501
2233.22657,0.00517
2231.16640,0.00581
2229.10623,0.00589
2227.04606,0.00516
2224.98589,0.00453
2222.92571,0.00488
2220.86554,0.00555
2218.80537,0.00563
2216.74520,0.00580
2214.68503,0.00546
2212.62485,0.00388
2210.56468,0.00316
2208.50451,0.00408
2206.44434,0.00476
2204.38417,0.00427
2202.32399,0.00378
2200.26382,0.00400
2198.20365,0.00470
2196.14348,0.00522
2194.08330,0.00519
2192.02313,0.00507
2189.96296,0.00473
2187.90279,0.00419
2185.84262,0.00375
2183.78244,0.00335
2181.72227,0.00280
2179.66210,0.00220
2177.60193,0.00272
2175.54176,0.00423
2173.48158,0.00474
2171.42141,0.00382
2169.36124,0.00339
2167.30107,0.00400
2165.24089,0.00417
2163.18072,0.00353
2161.12055,0.00247
2159.06038,0.00146
2157.00021,0.00154
2154.94003,0.00230
2152.87986,0.00265
2150.81969,0.00273
2148.75952,0.00284
2146.69935,0.00334
2144.63917,0.00378
2142.57900,0.00352
2140.51883,0.00287
2138.45866,0.00232
2136.39849,0.00177
2134.33831,0.00086
2132.27814,0.00030
2130.21797,0.00086
2128.15780,0.00171
2126.09762,0.00219
2124.03745,0.00276
2121.97728,0.00354
2119.91711,0.00416
2117.85694,0.00451
2115.79676,0.00460
2113.73659,0.00440
2111.67642,0.00409
2109.61625,0.00410
2107.55608,0.00436
2105.49590,0.00453
2103.43573,0.00469
2101.37556,0.00427
2099.31539,0.00312
2097.25521,0.00226
2095.19504,0.00250
2093.13487,0.00289
2091.07470,0.00317
2089.01453,0.00368
2086.95435,0.00392
2084.89418,0.00368
2082.83401,0.00350
2080.77384,0.00359
2078.71367,0.00373
2076.65349,0.00396
2074.59332,0.00432
2072.53315,0.00457
2070.47298,0.00463
2068.41281,0.00465
2066.35263,0.00428
2064.29246,0.00330
2062.23229,0.00282
2060.17212,0.00314
2058.11194,0.00285
2056.05177,0.00209
2053.99160,0.00226
2051.93143,0.00311
2049.87126,0.00345
2047.81108,0.00339
2045.75091,0.00399
2043.69074,0.00433
2041.63057,0.00347
2039.57040,0.00311
2037.51022,0.00411
2035.45005,0.00494
2033.38988,0.00495
2031.32971,0.00455
2029.26954,0.00391
2027.20936,0.00307
2025.14919,0.00197
2023.08902,0.00152
2021.02885,0.00177
2018.96867,0.00143
2016.90850,0.00117
2014.84833,0.00211
2012.78816,0.00310
2010.72799,0.00278
2008.66781,0.00231
2006.60764,0.00280
2004.54747,0.00283
2002.48730,0.00207
2000.42713,0.00187
1998.36695,0.00258
1996.30678,0.00310
1994.24661,0.00286
1992.18644,0.00274
1990.12626,0.00335
1988.06609,0.00380
1986.00592,0.00369
1983.94575,0.00346
1981.88558,0.00349
1979.82540,0.00348
1977.76523,0.00301
1975.70506,0.00282
1973.64489,0.00292
1971.58472,0.00289
1969.52454,0.00253
1967.46437,0.00192
1965.40420,0.00178
1963.34403,0.00177
1961.28386,0.00169
1959.22368,0.00252
1957.16351,0.00342
1955.10334,0.00308
1953.04317,0.00240
1950.98299,0.00225
1948.92282,0.00235
1946.86265,0.00241
1944.80248,0.00236
1942.74231,0.00205
1940.68213,0.00175
1938.62196,0.00205
1936.56179,0.00249
1934.50162,0.00250
1932.44145,0.00221
1930.38127,0.00175
1928.32110,0.00156
1926.26093,0.00170
1924.20076,0.00160
1922.14059,0.00126
1920.08041,0.00119
1918.02024,0.00165
1915.96007,0.00227
1913.89990,0.00242
1911.83972,0.00210
1909.77955,0.00172
1907.71938,0.00171
1905.65921,0.00210
1903.59904,0.00239
1901.53886,0.00239
1899.47869,0.00243
1897.41852,0.00261
1895.35835,0.00272
1893.29818,0.00269
1891.23800,0.00266
1889.17783,0.00272
1887.11766,0.00276
1885.05749,0.00259
1882.99731,0.00230
1880.93714,0.00226
1878.87697,0.00247
1876.81680,0.00268
1874.75663,0.00254
1872.69645,0.00202
1870.63628,0.00163
1868.57611,0.00173
1866.51594,0.00200
1864.45577,0.00218
1862.39559,0.00230
1860.33542,0.00214
1858.27525,0.00186
1856.21508,0.00189
1854.15491,0.00211
1852.09473,0.00219
1850.03456,0.00202
1847.97439,0.00169
1845.91422,0.00161
1843.85404,0.00190
1841.79387,0.00213
1839.73370,0.00216
1837.67353,0.00215
1835.61336,0.00223
1833.55318,0.00245
1831.49301,0.00272
1829.43284,0.00269
1827.37267,0.00232
1825.31250,0.00210
1823.25232,0.00221
1821.19215,0.00227
1819.13198,0.00216
1817.07181,0.00212
1815.01163,0.00224
1812.95146,0.00235
1810.89129,0.00238
1808.83112,0.00231
1806.77095,0.00212
1804.71077,0.00193
1802.65060,0.00185
1800.59043,0.00189
1798.53026,0.00200
1796.47009,0.00210
1794.40991,0.00224
1792.34974,0.00237
1790.28957,0.00238
1788.22940,0.00225
1786.16923,0.00200
1784.10905,0.00200
1782.04888,0.00226
1779.98871,0.00226
1777.92854,0.00210
1775.86836,0.00222
1773.80819,0.00235
1771.74802,0.00209
1769.68785,0.00174
1767.62768,0.00178
1765.56750,0.00206
1763.50733,0.00225
1761.44716,0.00223
1759.38699,0.00218
1757.32682,0.00220
1755.26664,0.00223
1753.20647,0.00229
1751.14630,0.00236
1749.08613,0.00242
1747.02596,0.00252
1744.96578,0.00265
1742.90561,0.00271
1740.84544,0.00263
1738.78527,0.00258
1736.72509,0.00257
1734.66492,0.00232
1732.60475,0.00207
1730.54458,0.00220
1728.48441,0.00239
1726.42423,0.00255
1724.36406,0.00270
1722.30389,0.00284
1720.24372,0.00306
1718.18355,0.00318
1716.12337,0.00287
1714.06320,0.00260
1712.00303,0.00260
1709.94286,0.00277
1707.88268,0.00298
1705.82251,0.00300
1703.76234,0.00290
1701.70217,0.00306
1699.64200,0.00333
1697.58182,0.00349
1695.52165,0.00370
1693.46148,0.00396
1691.40131,0.00423
1689.34114,0.00461
1687.28096,0.00508
1685.22079,0.00540
1683.16062,0.00529
1681.10045,0.00520
1679.04028,0.00548
1676.98010,0.00597
1674.91993,0.00639
1672.85976,0.00666
1670.79959,0.00693
1668.73941,0.00717
1666.67924,0.00729
1664.61907,0.00743
1662.55890,0.00758
1660.49873,0.00755
1658.43855,0.00748
1656.37838,0.00772
1654.31821,0.00826
1652.25804,0.00843
1650.19787,0.00813
1648.13769,0.00775
1646.07752,0.00755
1644.01735,0.00748
1641.95718,0.00746
1639.89701,0.00760
1637.83683,0.00792
1635.77666,0.00807
1633.71649,0.00783
1631.65632,0.00762
1629.59614,0.00769
1627.53597,0.00775
1625.47580,0.00763
1623.41563,0.00750
1621.35546,0.00741
1619.29528,0.00742
1617.23511,0.00753
1615.17494,0.00750
1613.11477,0.00741
1611.05460,0.00749
1608.99442,0.00765
1606.93425,0.00768
1604.87408,0.00763
1602.81391,0.00758
1600.75373,0.00751
1598.69356,0.00741
1596.63339,0.00732
1594.57322,0.00728
1592.51305,0.00725
1590.45287,0.00712
1588.39270,0.00686
1586.33253,0.00659
1584.27236,0.00637
1582.21219,0.00620
1580.15201,0.00611
1578.09184,0.00609
1576.03167,0.00600
1573.97150,0.00582
1571.91133,0.00565
1569.85115,0.00537
1567.79098,0.00487
1565.73081,0.00441
1563.67064,0.00429
1561.61046,0.00456
1559.55029,0.00462
1557.49012,0.00396
1555.42995,0.00341
1553.36978,0.00323
1551.30960,0.00329
1549.24943,0.00334
1547.18926,0.00323
1545.12909,0.00319
1543.06892,0.00335
1541.00874,0.00339
1538.94857,0.00298
1536.88840,0.00256
1534.82823,0.00241
1532.76805,0.00239
1530.70788,0.00233
1528.64771,0.00222
1526.58754,0.00201
1524.52737,0.00187
1522.46719,0.00197
1520.40702,0.00209
1518.34685,0.00201
1516.28668,0.00169
1514.22651,0.00134
1512.16633,0.00115
1510.10616,0.00121
1508.04599,0.00152
1505.98582,0.00181
1503.92565,0.00185
1501.86547,0.00175
1499.80530,0.00177
1497.74513,0.00181
1495.68496,0.00181
1493.62478,0.00191
1491.56461,0.00210
1489.50444,0.00220
1487.44427,0.00223
1485.38410,0.00234
1483.32392,0.00252
1481.26375,0.00263
1479.20358,0.00264
1477.14341,0.00274
1475.08324,0.00288
1473.02306,0.00287
1470.96289,0.00280
1468.90272,0.00287
1466.84255,0.00314
1464.78238,0.00350
1462.72220,0.00375
1460.66203,0.00396
1458.60186,0.00401
1456.54169,0.00365
1454.48151,0.00332
1452.42134,0.00322
1450.36117,0.00327
1448.30100,0.00336
1446.24083,0.00342
1444.18065,0.00342
1442.12048,0.00342
1440.06031,0.00351
1438.00014,0.00366
1435.93997,0.00368
1433.87979,0.00368
1431.81962,0.00383
1429.75945,0.00405
1427.69928,0.00414
1425.63910,0.00410
1423.57893,0.00409
1421.51876,0.00419
1419.45859,0.00427
1417.39842,0.00425
1415.33824,0.00435
1413.27807,0.00451
1411.21790,0.00453
1409.15773,0.00443
1407.09756,0.00439
1405.03738,0.00438
1402.97721,0.00432
1400.91704,0.00422
1398.85687,0.00406
1396.79670,0.00383
1394.73652,0.00369
1392.67635,0.00367
1390.61618,0.00376
1388.55601,0.00395
1386.49583,0.00417
1384.43566,0.00431
1382.37549,0.00428
1380.31532,0.00416
1378.25515,0.00400
1376.19497,0.00387
1374.13480,0.00381
1372.07463,0.00385
1370.01446,0.00391
1367.95429,0.00389
1365.89411,0.00377
1363.83394,0.00362
1361.77377,0.00362
1359.71360,0.00379
1357.65343,0.00393
1355.59325,0.00397
1353.53308,0.00398
1351.47291,0.00397
1349.41274,0.00397
1347.35256,0.00393
1345.29239,0.00385
1343.23222,0.00373
1341.17205,0.00357
1339.11188,0.00342
1337.05170,0.00344
1334.99153,0.00362
1332.93136,0.00377
1330.87119,0.00380
1328.81102,0.00377
1326.75084,0.00370
1324.69067,0.00363
1322.63050,0.00359
1320.57033,0.00358
1318.51015,0.00353
1316.44998,0.00351
1314.38981,0.00354
1312.32964,0.00362
1310.26947,0.00365
1308.20929,0.00364
1306.14912,0.00364
1304.08895,0.00369
1302.02878,0.00374
1299.96861,0.00380
1297.90843,0.00388
1295.84826,0.00396
1293.78809,0.00406
1291.72792,0.00414
1289.66775,0.00413
1287.60757,0.00398
1285.54740,0.00374
1283.48723,0.00364
1281.42706,0.00373
1279.36688,0.00382
1277.30671,0.00391
1275.24654,0.00397
1273.18637,0.00395
1271.12620,0.00404
1269.06602,0.00420
1267.00585,0.00415
1264.94568,0.00394
1262.88551,0.00380
1260.82534,0.00379
1258.76516,0.00383
1256.70499,0.00381
1254.64482,0.00385
1252.58465,0.00402
1250.52447,0.00420
1248.46430,0.00413
1246.40413,0.00395
1244.34396,0.00383
1242.28379,0.00378
1240.22361,0.00372
1238.16344,0.00366
1236.10327,0.00369
1234.04310,0.00379
1231.98293,0.00376
1229.92275,0.00357
1227.86258,0.00344
1225.80241,0.00356
1223.74224,0.00374
1221.68207,0.00367
1219.62189,0.00344
1217.56172,0.00331
1215.50155,0.00328
1213.44138,0.00314
1211.38120,0.00288
1209.32103,0.00266
1207.26086,0.00259
1205.20069,0.00266
1203.14052,0.00278
1201.08034,0.00294
1199.02017,0.00323
1196.96000,0.00340
1194.89983,0.00344
1192.83966,0.00338
1190.77948,0.00333
1188.71931,0.00334
1186.65914,0.00335
1184.59897,0.00347
1182.53880,0.00370
1180.47862,0.00387
1178.41845,0.00401
1176.35828,0.00414
1174.29811,0.00431
1172.23793,0.00452
1170.17776,0.00462
1168.11759,0.00475
1166.05742,0.00506
1163.99725,0.00545
1161.93707,0.00571
1159.87690,0.00581
1157.81673,0.00600
1155.75656,0.00636
1153.69639,0.00665
1151.63621,0.00674
1149.57604,0.00684
1147.51587,0.00721
1145.45570,0.00775
1143.39552,0.00811
1141.33535,0.00827
1139.27518,0.00838
1137.21501,0.00861
1135.15484,0.00909
1133.09466,0.00964
1131.03449,0.01000
1128.97432,0.01024
1126.91415,0.01067
1124.85398,0.01137
1122.79380,0.01199
1120.73363,0.01235
1118.67346,0.01265
1116.61329,0.01298
1114.55312,0.01330
1112.49294,0.01368
1110.43277,0.01408
1108.37260,0.01445
1106.31243,0.01484
1104.25225,0.01532
1102.19208,0.01591
1100.13191,0.01644
1098.07174,0.01662
1096.01157,0.01667
1093.95139,0.01692
1091.89122,0.01735
1089.83105,0.01790
1087.77088,0.01827
1085.71071,0.01827
1083.65053,0.01830
1081.59036,0.01863
1079.53019,0.01901
1077.47002,0.01911
1075.40985,0.01902
1073.34967,0.01916
1071.28950,0.01934
1069.22933,0.01914
1067.16916,0.01887
1065.10898,0.01894
1063.04881,0.01922
1060.98864,0.01921
1058.92847,0.01895
1056.86830,0.01872
1054.80812,0.01845
1052.74795,0.01812
1050.68778,0.01789
1048.62761,0.01752
1046.56744,0.01677
1044.50726,0.01615
1042.44709,0.01592
1040.38692,0.01563
1038.32675,0.01508
1036.26657,0.01440
1034.20640,0.01371
1032.14623,0.01305
1030.08606,0.01255
1028.02589,0.01229
1025.96571,0.01204
1023.90554,0.01152
1021.84537,0.01093
1019.78520,0.01060
1017.72503,0.01060
1015.66485,0.01062
1013.60468,0.01035
1011.54451,0.01012
1009.48434,0.01023
1007.42417,0.01036
1005.36399,0.01040
1003.30382,0.01076
1001.24365,0.01136
999.18348,0.01185
997.12330,0.01225
995.06313,0.01261
993.00296,0.01287
990.94279,0.01301
988.88262,0.01316
986.82244,0.01344
984.76227,0.01369
982.70210,0.01380
980.64193,0.01368
978.58176,0.01329
976.52158,0.01299
974.46141,0.01305
972.40124,0.01320
970.34107,0.01312
968.28089,0.01283
966.22072,0.01242
964.16055,0.01214
962.10038,0.01197
960.04021,0.01152
957.98003,0.01086
955.91986,0.01029
953.85969,0.01006
951.79952,0.01015
949.73935,0.01004
947.67917,0.00958
945.61900,0.00913
943.55883,0.00871
941.49866,0.00821
939.43849,0.00795
937.37831,0.00798
935.31814,0.00789
933.25797,0.00749
931.19780,0.00700
929.13762,0.00678
927.07745,0.00698
925.01728,0.00732
922.95711,0.00741
920.89694,0.00730
918.83676,0.00709
916.77659,0.00677
914.71642,0.00658
912.65625,0.00663
910.59608,0.00656
908.53590,0.00635
906.47573,0.00633
904.41556,0.00650
902.35539,0.00665
900.29522,0.00665
898.23504,0.00671
896.17487,0.00701
894.11470,0.00729
892.05453,0.00736
889.99435,0.00732
887.93418,0.00739
885.87401,0.00760
883.81384,0.00788
881.75367,0.00807
879.69349,0.00823
877.63332,0.00857
875.57315,0.00898
873.51298,0.00932
871.45281,0.00954
869.39263,0.00969
867.33246,0.00996
865.27229,0.01026
863.21212,0.01025
861.15194,0.00998
859.09177,0.01001
857.03160,0.01031
854.97143,0.01047
852.91126,0.01062
850.85108,0.01063
848.79091,0.01040
846.73074,0.01041
844.67057,0.01038
842.61040,0.00997
840.55022,0.00964
838.49005,0.00939
836.42988,0.00899
834.36971,0.00862
832.30954,0.00829
830.24936,0.00791
828.18919,0.00787
826.12902,0.00824
824.06885,0.00843
822.00867,0.00830
819.94850,0.00818
817.88833,0.00812
815.82816,0.00796
813.76799,0.00790
811.70781,0.00811
809.64764,0.00809
807.58747,0.00784
805.52730,0.00789
803.46713,0.00789
801.40695,0.00756
799.34678,0.00704
797.28661,0.00663
795.22644,0.00647
793.16627,0.00656
791.10609,0.00675
789.04592,0.00668
786.98575,0.00661
784.92558,0.00685
782.86540,0.00719
780.80523,0.00745
778.74506,0.00767
776.68489,0.00763
774.62472,0.00749
772.56454,0.00742
770.50437,0.00721
768.44420,0.00675
766.38403,0.00621
764.32386,0.00604
762.26368,0.00638
760.20351,0.00700
758.14334,0.00731
756.08317,0.00721
754.02299,0.00733
751.96282,0.00738
749.90265,0.00706
747.84248,0.00689
745.78231,0.00725
743.72213,0.00755
741.66196,0.00725
739.60179,0.00678
737.54162,0.00650
735.48145,0.00637
733.42127,0.00628
731.36110,0.00631
729.30093,0.00693
727.24076,0.00801
725.18059,0.00865
723.12041,0.00835
721.06024,0.00842
719.00007,0.00770
716.93990,0.00740
714.87972,0.00753
712.81955,0.00748
710.75938,0.00712
708.69921,0.00689
706.63904,0.00721
704.57886,0.00773
702.51869,0.00781
700.45852,0.00773
698.39835,0.00818
696.33818,0.00888
694.27800,0.00915
692.21783,0.00895
690.15766,0.00860
688.09749,0.00797
686.03731,0.00681
683.97714,0.00539
681.91697,0.00470
679.85680,0.00509
677.79663,0.00584
675.73645,0.00652
673.67628,0.00507
671.61611,0.00026
669.55594,0.00399
667.49577,0.01324
665.43559,0.00131
663.37542,0.00364
661.31525,0.00677
659.25508,0.00672
657.19491,0.00643
655.13473,0.00696
653.07456,0.00800
651.01439,0.00869
648.95422,0.00860
646.89404,0.00720
644.83387,0.00583
642.77370,0.00496
640.71353,0.00466
638.65336,0.00450
636.59318,0.00427
634.53301,0.00445
632.47284,0.00590
630.41267,0.00755
628.35250,0.00719
626.29232,0.00489
624.23215,0.00432
622.17198,0.00552
620.11181,0.00602
618.05164,0.00512
615.99146,0.00464
613.93129,0.00473
611.87112,0.00276
609.81095,0.00026
607.75077,0.00000
605.69060,0.00115
603.63043,0.00061
601.57026,-0.00017
599.51009,0.00000
