3996.73391,0.00058
3994.67374,0.00050
3992.61357,0.00038
3990.55339,0.00020
3988.49322,0.00000
3986.43305,0.00003
3984.37288,0.00040
3982.31271,0.00072
3980.25253,0.00084
3978.19236,0.00094
3976.13219,0.00093
3974.07202,0.00076
3972.01184,0.00067
3969.95167,0.00059
3967.89150,0.00035
3965.83133,0.00016
3963.77116,0.00024
3961.71098,0.00039
3959.65081,0.00027
3957.59064,0.00012
3955.53047,0.00032
3953.47030,0.00065
3951.41012,0.00056
3949.34995,0.00019
3947.28978,0.00009
3945.22961,0.00026
3943.16943,0.00044
3941.10926,0.00055
3939.04909,0.00058
3936.98892,0.00061
3934.92875,0.00062
3932.86857,0.00039
3930.80840,0.00006
3928.74823,0.00005
3926.68806,0.00031
3924.62789,0.00050
3922.56771,0.00046
3920.50754,0.00036
3918.44737,0.00042
3916.38720,0.00068
3914.32703,0.00094
3912.26685,0.00108
3910.20668,0.00111
3908.14651,0.00103
3906.08634,0.00085
3904.02616,0.00057
3901.96599,0.00023
3899.90582,0.00009
3897.84565,0.00038
3895.78548,0.00071
3893.72530,0.00071
3891.66513,0.00061
3889.60496,0.00067
3887.54479,0.00066
3885.48462,0.00054
3883.42444,0.00047
3881.36427,0.00047
3879.30410,0.00056
3877.24393,0.00068
3875.18376,0.00072
3873.12358,0.00074
3871.06341,0.00068
3869.00324,0.00058
3866.94307,0.00058
3864.88289,0.00059
3862.82272,0.00050
3860.76255,0.00031
3858.70238,0.00021
3856.64221,0.00051
3854.58203,0.00107
3852.52186,0.00113
3850.46169,0.00065
3848.40152,0.00034
3846.34135,0.00041
3844.28117,0.00069
3842.22100,0.00097
3840.16083,0.00100
3838.10066,0.00074
3836.04048,0.00068
3833.98031,0.00090
3831.92014,0.00098
3829.85997,0.00085
3827.79980,0.00063
3825.73962,0.00052
3823.67945,0.00080
3821.61928,0.00139
3819.55911,0.00169
3817.49894,0.00148
3815.43876,0.00114
3813.37859,0.00091
3811.31842,0.00087
3809.25825,0.00095
3807.19808,0.00082
3805.13790,0.00043
3803.07773,0.00033
3801.01756,0.00062
3798.95739,0.00078
3796.89721,0.00077
3794.83704,0.00075
3792.77687,0.00079
3790.71670,0.00082
3788.65653,0.00073
3786.59635,0.00064
3784.53618,0.00067
3782.47601,0.00077
3780.41584,0.00098
3778.35567,0.00122
3776.29549,0.00129
3774.23532,0.00122
3772.17515,0.00136
3770.11498,0.00170
3768.05481,0.00175
3765.99463,0.00140
3763.93446,0.00100
3761.87429,0.00084
3759.81412,0.00082
3757.75394,0.00081
3755.69377,0.00072
3753.63360,0.00057
3751.57343,0.00045
3749.51326,0.00022
3747.45308,0.00010
3745.39291,0.00043
3743.33274,0.00096
3741.27257,0.00103
3739.21240,0.00064
3737.15222,0.00023
3735.09205,0.00025
3733.03188,0.00067
3730.97171,0.00085
3728.91153,0.00073
3726.85136,0.00070
3724.79119,0.00093
3722.73102,0.00130
3720.67085,0.00155
3718.61067,0.00146
3716.55050,0.00105
3714.49033,0.00059
3712.43016,0.00037
3710.36999,0.00036
3708.30981,0.00037
3706.24964,0.00035
3704.18947,0.00039
3702.12930,0.00048
3700.06913,0.00060
3698.00895,0.00085
3695.94878,0.00121
3693.88861,0.00168
3691.82844,0.00210
3689.76826,0.00196
3687.70809,0.00135
3685.64792,0.00107
3683.58775,0.00120
3681.52758,0.00147
3679.46740,0.00171
3677.40723,0.00185
3675.34706,0.00186
3673.28689,0.00187
3671.22672,0.00183
3669.16654,0.00166
3667.10637,0.00153
3665.04620,0.00152
3662.98603,0.00158
3660.92586,0.00152
3658.86568,0.00126
3656.80551,0.00120
3654.74534,0.00154
3652.68517,0.00194
3650.62499,0.00235
3648.56482,0.00291
3646.50465,0.00332
3644.44448,0.00320
3642.38431,0.00282
3640.32413,0.00263
3638.26396,0.00277
3636.20379,0.00299
3634.14362,0.00295
3632.08345,0.00266
3630.02327,0.00255
3627.96310,0.00314
3625.90293,0.00395
3623.84276,0.00433
3621.78258,0.00445
3619.72241,0.00473
3617.66224,0.00514
3615.60207,0.00538
3613.54190,0.00538
3611.48172,0.00529
3609.42155,0.00526
3607.36138,0.00550
3605.30121,0.00598
3603.24104,0.00643
3601.18086,0.00672
3599.12069,0.00679
3597.06052,0.00678
3595.00035,0.00694
3592.94018,0.00730
3590.88000,0.00746
3588.81983,0.00725
3586.75966,0.00721
3584.69949,0.00764
3582.63931,0.00819
3580.57914,0.00856
3578.51897,0.00869
3576.45880,0.00880
3574.39863,0.00907
3572.33845,0.00935
3570.27828,0.00950
3568.21811,0.00970
3566.15794,0.01019
3564.09777,0.01065
3562.03759,0.01073
3559.97742,0.01078
3557.91725,0.01108
3555.85708,0.01134
3553.79690,0.01152
3551.73673,0.01179
3549.67656,0.01194
3547.61639,0.01185
3545.55622,0.01179
3543.49604,0.01192
3541.43587,0.01204
3539.37570,0.01213
3537.31553,0.01232
3535.25536,0.01258
3533.19518,0.01291
3531.13501,0.01325
3529.07484,0.01340
3527.01467,0.01344
3524.95450,0.01364
3522.89432,0.01409
3520.83415,0.01455
3518.77398,0.01479
3516.71381,0.01487
3514.65363,0.01489
3512.59346,0.01477
3510.53329,0.01468
3508.47312,0.01495
3506.41295,0.01546
3504.35277,0.01571
3502.29260,0.01571
3500.23243,0.01607
3498.17226,0.01680
3496.11209,0.01726
3494.05191,0.01724
3491.99174,0.01708
3489.93157,0.01706
3487.87140,0.01731
3485.81123,0.01766
3483.75105,0.01781
3481.69088,0.01774
3479.63071,0.01768
3477.57054,0.01788
3475.51036,0.01840
3473.45019,0.01889
3471.39002,0.01900
3469.32985,0.01896
3467.26968,0.01906
3465.20950,0.01929
3463.14933,0.01964
3461.08916,0.02006
3459.02899,0.02027
3456.96882,0.02017
3454.90864,0.02012
3452.84847,0.02045
3450.78830,0.02076
3448.72813,0.02066
3446.66795,0.02049
3444.60778,0.02069
3442.54761,0.02129
3440.48744,0.02180
3438.42727,0.02186
3436.36709,0.02180
3434.30692,0.02186
3432.24675,0.02188
3430.18658,0.02182
3428.12641,0.02185
3426.06623,0.02210
3424.00606,0.02238
3421.94589,0.02243
3419.88572,0.02237
3417.82555,0.02243
3415.76537,0.02260
3413.70520,0.02282
3411.64503,0.02295
3409.58486,0.02310
3407.52468,0.02341
3405.46451,0.02369
3403.40434,0.02371
3401.34417,0.02355
3399.28400,0.02346
3397.22382,0.02377
3395.16365,0.02412
3393.10348,0.02439
3391.04331,0.02459
3388.98314,0.02450
3386.92296,0.02431
3384.86279,0.02445
3382.80262,0.02469
3380.74245,0.02468
3378.68228,0.02457
3376.62210,0.02459
3374.56193,0.02484
3372.50176,0.02520
3370.44159,0.02541
3368.38141,0.02547
3366.32124,0.02551
3364.26107,0.02554
3362.20090,0.02545
3360.14073,0.02535
3358.08055,0.02547
3356.02038,0.02564
3353.96021,0.02554
3351.90004,0.02533
3349.83987,0.02537
3347.77969,0.02568
3345.71952,0.02611
3343.65935,0.02648
3341.59918,0.02650
3339.53900,0.02638
3337.47883,0.02644
3335.41866,0.02645
3333.35849,0.02623
3331.29832,0.02608
3329.23814,0.02622
3327.17797,0.02656
3325.11780,0.02683
3323.05763,0.02680
3320.99746,0.02657
3318.93728,0.02658
3316.87711,0.02685
3314.81694,0.02706
3312.75677,0.02716
3310.69660,0.02729
3308.63642,0.02730
3306.57625,0.02714
3304.51608,0.02711
3302.45591,0.02727
3300.39573,0.02739
3298.33556,0.02732
3296.27539,0.02721
3294.21522,0.02735
3292.15505,0.02765
3290.09487,0.02778
3288.03470,0.02773
3285.97453,0.02775
3283.91436,0.02794
3281.85419,0.02817
3279.79401,0.02826
3277.73384,0.02815
3275.67367,0.02795
3273.61350,0.02790
3271.55333,0.02801
3269.49315,0.02815
3267.43298,0.02826
3265.37281,0.02826
3263.31264,0.02820
3261.25246,0.02817
3259.19229,0.02819
3257.13212,0.02821
3255.07195,0.02818
3253.01178,0.02817
3250.95160,0.02827
3248.89143,0.02840
3246.83126,0.02833
3244.77109,0.02816
3242.71092,0.02823
3240.65074,0.02837
3238.59057,0.02836
3236.53040,0.02843
3234.47023,0.02854
3232.41005,0.02840
3230.34988,0.02815
3228.28971,0.02814
3226.22954,0.02831
3224.16937,0.02829
3222.10919,0.02816
3220.04902,0.02833
3217.98885,0.02857
3215.92868,0.02851
3213.86851,0.02835
3211.80833,0.02832
3209.74816,0.02833
3207.68799,0.02835
3205.62782,0.02846
3203.56765,0.02852
3201.50747,0.02851
3199.44730,0.02842
3197.38713,0.02824
3195.32696,0.02798
3193.26678,0.02774
3191.20661,0.02773
3189.14644,0.02786
3187.08627,0.02792
3185.02610,0.02790
3182.96592,0.02783
3180.90575,0.02769
3178.84558,0.02756
3176.78541,0.02747
3174.72524,0.02733
3172.66506,0.02726
3170.60489,0.02731
3168.54472,0.02731
3166.48455,0.02717
3164.42437,0.02702
3162.36420,0.02703
3160.30403,0.02729
3158.24386,0.02755
3156.18369,0.02757
3154.12351,0.02744
3152.06334,0.02729
3150.00317,0.02722
3147.94300,0.02728
3145.88283,0.02720
3143.82265,0.02684
3141.76248,0.02660
3139.70231,0.02667
3137.64214,0.02680
3135.58197,0.02678
3133.52179,0.02663
3131.46162,0.02646
3129.40145,0.02634
3127.34128,0.02627
3125.28110,0.02624
3123.22093,0.02624
3121.16076,0.02633
3119.10059,0.02637
3117.04042,0.02616
3114.98024,0.02581
3112.92007,0.02554
3110.85990,0.02548
3108.79973,0.02566
3106.73956,0.02579
3104.67938,0.02572
3102.61921,0.02553
3100.55904,0.02531
3098.49887,0.02516
3096.43870,0.02506
3094.37852,0.02489
3092.31835,0.02467
3090.25818,0.02456
3088.19801,0.02466
3086.13783,0.02476
3084.07766,0.02462
3082.01749,0.02430
3079.95732,0.02411
3077.89715,0.02410
3075.83697,0.02416
3073.77680,0.02422
3071.71663,0.02418
3069.65646,0.02394
3067.59629,0.02358
3065.53611,0.02336
3063.47594,0.02331
3061.41577,0.02327
3059.35560,0.02324
3057.29542,0.02329
3055.23525,0.02328
3053.17508,0.02305
3051.11491,0.02276
3049.05474,0.02265
3046.99456,0.02266
3044.93439,0.02262
3042.87422,0.02252
3040.81405,0.02240
3038.75388,0.02228
3036.69370,0.02219
3034.63353,0.02205
3032.57336,0.02183
3030.51319,0.02172
3028.45302,0.02172
3026.39284,0.02168
3024.33267,0.02157
3022.27250,0.02153
3020.21233,0.02156
3018.15215,0.02145
3016.09198,0.02118
3014.03181,0.02097
3011.97164,0.02079
3009.91147,0.02066
3007.85129,0.02061
3005.79112,0.02047
3003.73095,0.02029
3001.67078,0.02034
2999.61061,0.02055
2997.55043,0.02049
2995.49026,0.02023
2993.43009,0.02007
2991.36992,0.01991
2989.30975,0.01970
2987.24957,0.01959
2985.18940,0.01963
2983.12923,0.01967
2981.06906,0.01968
2979.00888,0.01973
2976.94871,0.01982
2974.88854,0.01974
2972.82837,0.01947
2970.76820,0.01934
2968.70802,0.01940
2966.64785,0.01943
2964.58768,0.01941
2962.52751,0.01937
2960.46734,0.01918
2958.40716,0.01894
2956.34699,0.01881
2954.28682,0.01879
2952.22665,0.01888
2950.16647,0.01898
2948.10630,0.01901
2946.04613,0.01903
2943.98596,0.01905
2941.92579,0.01900
2939.86561,0.01897
2937.80544,0.01891
2935.74527,0.01867
2933.68510,0.01840
2931.62493,0.01823
2929.56475,0.01810
2927.50458,0.01800
2925.44441,0.01804
2923.38424,0.01822
2921.32407,0.01825
2919.26389,0.01813
2917.20372,0.01802
2915.14355,0.01780
2913.08338,0.01763
2911.02320,0.01777
2908.96303,0.01779
2906.90286,0.01753
2904.84269,0.01740
2902.78252,0.01735
2900.72234,0.01721
2898.66217,0.01712
2896.60200,0.01718
2894.54183,0.01719
2892.48166,0.01694
2890.42148,0.01677
2888.36131,0.01693
2886.30114,0.01708
2884.24097,0.01690
2882.18080,0.01655
2880.12062,0.01633
2878.06045,0.01633
2876.00028,0.01648
2873.94011,0.01657
2871.87993,0.01641
2869.81976,0.01618
2867.75959,0.01604
2865.69942,0.01600
2863.63925,0.01606
2861.57907,0.01603
2859.51890,0.01590
2857.45873,0.01575
2855.39856,0.01564
2853.33839,0.01569
2851.27821,0.01576
2849.21804,0.01558
2847.15787,0.01529
2845.09770,0.01505
2843.03752,0.01486
2840.97735,0.01474
2838.91718,0.01470
2836.85701,0.01465
2834.79684,0.01463
2832.73666,0.01473
2830.67649,0.01468
2828.61632,0.01432
2826.55615,0.01405
2824.49598,0.01409
2822.43580,0.01409
2820.37563,0.01382
2818.31546,0.01363
2816.25529,0.01372
2814.19512,0.01374
2812.13494,0.01361
2810.07477,0.01360
2808.01460,0.01365
2805.95443,0.01364
2803.89425,0.01357
2801.83408,0.01349
2799.77391,0.01346
2797.71374,0.01343
2795.65357,0.01335
2793.59339,0.01330
2791.53322,0.01328
2789.47305,0.01311
2787.41288,0.01278
2785.35271,0.01257
2783.29253,0.01263
2781.23236,0.01272
2779.17219,0.01265
2777.11202,0.01256
2775.05184,0.01248
2772.99167,0.01236
2770.93150,0.01224
2768.87133,0.01214
2766.81116,0.01207
2764.75098,0.01201
2762.69081,0.01187
2760.63064,0.01182
2758.57047,0.01183
2756.51030,0.01172
2754.45012,0.01162
2752.38995,0.01164
2750.32978,0.01159
2748.26961,0.01144
2746.20944,0.01142
2744.14926,0.01151
2742.08909,0.01146
2740.02892,0.01125
2737.96875,0.01096
2735.90857,0.01073
2733.84840,0.01069
2731.78823,0.01069
2729.72806,0.01062
2727.66789,0.01070
2725.60771,0.01090
2723.54754,0.01084
2721.48737,0.01053
2719.42720,0.01029
2717.36703,0.01018
2715.30685,0.01011
2713.24668,0.01010
2711.18651,0.01016
2709.12634,0.01003
2707.06617,0.00975
2705.00599,0.00964
2702.94582,0.00970
2700.88565,0.00973
2698.82548,0.00980
2696.76530,0.00986
2694.70513,0.00976
2692.64496,0.00961
2690.58479,0.00946
2688.52462,0.00927
2686.46444,0.00908
2684.40427,0.00891
2682.34410,0.00893
2680.28393,0.00917
2678.22376,0.00937
2676.16358,0.00932
2674.10341,0.00917
2672.04324,0.00899
2669.98307,0.00880
2667.92289,0.00874
2665.86272,0.00879
2663.80255,0.00878
2661.74238,0.00875
2659.68221,0.00874
2657.62203,0.00866
2655.56186,0.00847
2653.50169,0.00822
2651.44152,0.00806
2649.38135,0.00808
2647.32117,0.00816
2645.26100,0.00823
2643.20083,0.00824
2641.14066,0.00820
2639.08049,0.00819
2637.02031,0.00817
2634.96014,0.00815
2632.89997,0.00818
2630.83980,0.00821
2628.77962,0.00812
2626.71945,0.00783
2624.65928,0.00760
2622.59911,0.00759
2620.53894,0.00764
2618.47876,0.00763
2616.41859,0.00765
2614.35842,0.00767
2612.29825,0.00753
2610.23808,0.00729
2608.17790,0.00707
2606.11773,0.00699
2604.05756,0.00706
2601.99739,0.00715
2599.93722,0.00716
2597.87704,0.00717
2595.81687,0.00727
2593.75670,0.00739
2591.69653,0.00751
2589.63635,0.00742
2587.57618,0.00707
2585.51601,0.00691
2583.45584,0.00701
2581.39567,0.00694
2579.33549,0.00674
2577.27532,0.00671
2575.21515,0.00677
2573.15498,0.00680
2571.09481,0.00687
2569.03463,0.00703
2566.97446,0.00707
2564.91429,0.00695
2562.85412,0.00680
2560.79394,0.00676
2558.73377,0.00686
2556.67360,0.00699
2554.61343,0.00704
2552.55326,0.00715
2550.49308,0.00727
2548.43291,0.00713
2546.37274,0.00684
2544.31257,0.00676
2542.25240,0.00695
2540.19222,0.00704
2538.13205,0.00690
2536.07188,0.00682
2534.01171,0.00689
2531.95154,0.00696
2529.89136,0.00689
2527.83119,0.00677
2525.77102,0.00657
2523.71085,0.00647
2521.65067,0.00662
2519.59050,0.00677
2517.53033,0.00683
2515.47016,0.00688
2513.40999,0.00682
2511.34981,0.00681
2509.28964,0.00720
2507.22947,0.00746
2505.16930,0.00727
2503.10913,0.00719
2501.04895,0.00728
2498.98878,0.00737
2496.92861,0.00752
2494.86844,0.00748
2492.80827,0.00732
2490.74809,0.00726
2488.68792,0.00724
2486.62775,0.00716
2484.56758,0.00708
2482.50740,0.00716
2480.44723,0.00720
2478.38706,0.00706
2476.32689,0.00707
2474.26672,0.00735
2472.20654,0.00770
2470.14637,0.00781
2468.08620,0.00782
2466.02603,0.00802
2463.96586,0.00812
2461.90568,0.00799
2459.84551,0.00803
2457.78534,0.00819
2455.72517,0.00826
2453.66499,0.00831
2451.60482,0.00833
2449.54465,0.00820
2447.48448,0.00786
2445.42431,0.00766
2443.36413,0.00790
2441.30396,0.00806
2439.24379,0.00786
2437.18362,0.00786
2435.12345,0.00804
2433.06327,0.00790
2431.00310,0.00757
2428.94293,0.00731
2426.88276,0.00716
2424.82259,0.00722
2422.76241,0.00735
2420.70224,0.00743
2418.64207,0.00756
2416.58190,0.00767
2414.52172,0.00763
2412.46155,0.00757
2410.40138,0.00766
2408.34121,0.00780
2406.28104,0.00775
2404.22086,0.00762
2402.16069,0.00765
2400.10052,0.00761
2398.04035,0.00731
2395.98018,0.00721
2393.92000,0.00738
2391.85983,0.00756
2389.79966,0.00748
2387.73949,0.00722
2385.67931,0.00705
2383.61914,0.00704
2381.55897,0.00704
2379.49880,0.00682
2377.43863,0.00636
2375.37845,0.00609
2373.31828,0.00654
2371.25811,0.00744
2369.19794,0.00794
2367.13777,0.00802
2365.07759,0.00817
2363.01742,0.00824
2360.95725,0.00810
2358.89708,0.00824
2356.83691,0.00857
2354.77673,0.00837
2352.71656,0.00771
2350.65639,0.00718
2348.59622,0.00693
2346.53604,0.00700
2344.47587,0.00745
2342.41570,0.00787
2340.35553,0.00782
2338.29536,0.00761
2336.23518,0.00772
2334.17501,0.00787
2332.11484,0.00767
2330.05467,0.00743
2327.99450,0.00751
2325.93432,0.00770
2323.87415,0.00786
2321.81398,0.00780
2319.75381,0.00724
2317.69364,0.00649
2315.63346,0.00610
2313.57329,0.00613
2311.51312,0.00619
2309.45295,0.00598
2307.39277,0.00583
2305.33260,0.00608
2303.27243,0.00639
2301.21226,0.00644
2299.15209,0.00645
2297.09191,0.00665
2295.03174,0.00683
2292.97157,0.00690
2290.91140,0.00703
2288.85123,0.00718
2286.79105,0.00710
2284.73088,0.00679
2282.67071,0.00658
2280.61054,0.00668
2278.55036,0.00697
2276.49019,0.00716
2274.43002,0.00713
2272.36985,0.00700
2270.30968,0.00693
2268.24950,0.00688
2266.18933,0.00672
2264.12916,0.00661
2262.06899,0.00668
2260.00882,0.00671
2257.94864,0.00651
2255.88847,0.00611
2253.82830,0.00591
2251.76813,0.00644
2249.70796,0.00713
2247.64778,0.00723
2245.58761,0.00694
2243.52744,0.00625
2241.46727,0.00589
2239.40709,0.00669
2237.34692,0.00742
2235.28675,0.00715
2233.22658,0.00678
2231.16641,0.00657
2229.10623,0.00586
2227.04606,0.00454
2224.98589,0.00369
2222.92572,0.00393
2220.86555,0.00423
2218.80537,0.00413
2216.74520,0.00403
2214.68503,0.00448
2212.62486,0.00565
2210.56469,0.00645
2208.50451,0.00631
2206.44434,0.00604
2204.38417,0.00581
2202.32400,0.00504
2200.26382,0.00434
2198.20365,0.00454
2196.14348,0.00518
2194.08331,0.00553
2192.02314,0.00544
2189.96296,0.00518
2187.90279,0.00487
2185.84262,0.00446
2183.78245,0.00399
2181.72228,0.00357
2179.66210,0.00358
2177.60193,0.00387
2175.54176,0.00379
2173.48159,0.00354
2171.42141,0.00382
2169.36124,0.00467
2167.30107,0.00528
2165.24090,0.00558
2163.18073,0.00524
2161.12055,0.00295
2159.06038,0.00040
2157.00021,0.00015
2154.94004,0.00104
2152.87987,0.00203
2150.81969,0.00276
2148.75952,0.00303
2146.69935,0.00306
2144.63918,0.00280
2142.57901,0.00243
2140.51883,0.00228
2138.45866,0.00221
2136.39849,0.00192
2134.33832,0.00159
2132.27814,0.00159
2130.21797,0.00179
2128.15780,0.00204
2126.09763,0.00236
2124.03746,0.00270
2121.97728,0.00297
2119.91711,0.00311
2117.85694,0.00313
2115.79677,0.00310
2113.73660,0.00319
2111.67642,0.00331
2109.61625,0.00338
2107.55608,0.00353
2105.49591,0.00368
2103.43573,0.00377
2101.37556,0.00336
2099.31539,0.00275
2097.25522,0.00286
2095.19505,0.00334
2093.13487,0.00341
2091.07470,0.00325
2089.01453,0.00330
2086.95436,0.00374
2084.89419,0.00395
2082.83401,0.00373
2080.77384,0.00371
2078.71367,0.00376
2076.65350,0.00359
2074.59333,0.00340
2072.53315,0.00321
2070.47298,0.00272
2068.41281,0.00223
2066.35264,0.00211
2064.29246,0.00192
2062.23229,0.00181
2060.17212,0.00229
2058.11195,0.00291
2056.05178,0.00306
2053.99160,0.00301
2051.93143,0.00303
2049.87126,0.00307
2047.81109,0.00342
2045.75092,0.00383
2043.69074,0.00342
2041.63057,0.00271
2039.57040,0.00277
2037.51023,0.00298
2035.45006,0.00259
2033.38988,0.00202
2031.32971,0.00181
2029.26954,0.00203
2027.20937,0.00261
2025.14919,0.00284
2023.08902,0.00250
2021.02885,0.00291
2018.96868,0.00370
2016.90851,0.00329
2014.84833,0.00221
2012.78816,0.00201
2010.72799,0.00297
2008.66782,0.00394
2006.60765,0.00357
2004.54747,0.00258
2002.48730,0.00218
2000.42713,0.00203
1998.36696,0.00214
1996.30678,0.00269
1994.24661,0.00312
1992.18644,0.00330
1990.12627,0.00351
1988.06610,0.00339
1986.00592,0.00265
1983.94575,0.00227
1981.88558,0.00282
1979.82541,0.00328
1977.76524,0.00276
1975.70506,0.00152
1973.64489,0.00097
1971.58472,0.00177
1969.52455,0.00238
1967.46438,0.00162
1965.40420,0.00067
1963.34403,0.00072
1961.28386,0.00122
1959.22369,0.00127
1957.16351,0.00069
1955.10334,0.00016
1953.04317,0.00037
1950.98300,0.00110
1948.92283,0.00162
1946.86265,0.00161
1944.80248,0.00127
1942.74231,0.00112
1940.68214,0.00148
1938.62197,0.00212
1936.56179,0.00247
1934.50162,0.00227
1932.44145,0.00213
1930.38128,0.00237
1928.32111,0.00238
1926.26093,0.00191
1924.20076,0.00152
1922.14059,0.00133
1920.08042,0.00116
1918.02024,0.00129
1915.96007,0.00164
1913.89990,0.00177
1911.83973,0.00185
1909.77956,0.00214
1907.71938,0.00245
1905.65921,0.00249
1903.59904,0.00230
1901.53887,0.00223
1899.47870,0.00235
1897.41852,0.00246
1895.35835,0.00244
1893.29818,0.00229
1891.23801,0.00224
1889.17783,0.00237
1887.11766,0.00243
1885.05749,0.00250
1882.99732,0.00261
1880.93715,0.00249
1878.87697,0.00223
1876.81680,0.00219
1874.75663,0.00236
1872.69646,0.00244
1870.63629,0.00239
1868.57611,0.00246
1866.51594,0.00266
1864.45577,0.00277
1862.39560,0.00273
1860.33543,0.00257
1858.27525,0.00249
1856.21508,0.00257
1854.15491,0.00254
1852.09474,0.00230
1850.03456,0.00219
1847.97439,0.00233
1845.91422,0.00244
1843.85405,0.00235
1841.79388,0.00225
1839.73370,0.00230
1837.67353,0.00241
1835.61336,0.00243
1833.55319,0.00248
1831.49302,0.00270
1829.43284,0.00290
1827.37267,0.00291
1825.31250,0.00280
1823.25233,0.00267
1821.19216,0.00257
1819.13198,0.00245
1817.07181,0.00237
1815.01164,0.00245
1812.95147,0.00261
1810.89129,0.00269
1808.83112,0.00275
1806.77095,0.00287
1804.71078,0.00295
1802.65061,0.00293
1800.59043,0.00286
1798.53026,0.00276
1796.47009,0.00270
1794.40992,0.00268
1792.34975,0.00263
1790.28957,0.00255
1788.22940,0.00257
1786.16923,0.00264
1784.10906,0.00278
1782.04888,0.00298
1779.98871,0.00304
1777.92854,0.00300
1775.86837,0.00310
1773.80820,0.00327
1771.74802,0.00320
1769.68785,0.00296
1767.62768,0.00295
1765.56751,0.00311
1763.50734,0.00309
1761.44716,0.00290
1759.38699,0.00286
1757.32682,0.00302
1755.26665,0.00322
1753.20648,0.00337
1751.14630,0.00342
1749.08613,0.00343
1747.02596,0.00353
1744.96579,0.00375
1742.90561,0.00402
1740.84544,0.00416
1738.78527,0.00403
1736.72510,0.00382
1734.66493,0.00366
1732.60475,0.00367
1730.54458,0.00388
1728.48441,0.00410
1726.42424,0.00425
1724.36407,0.00435
1722.30389,0.00446
1720.24372,0.00462
1718.18355,0.00471
1716.12338,0.00446
1714.06320,0.00418
1712.00303,0.00415
1709.94286,0.00429
1707.88269,0.00450
1705.82252,0.00473
1703.76234,0.00495
1701.70217,0.00512
1699.64200,0.00525
1697.58183,0.00551
1695.52166,0.00595
1693.46148,0.00637
1691.40131,0.00672
1689.34114,0.00708
1687.28097,0.00754
1685.22080,0.00806
1683.16062,0.00833
1681.10045,0.00840
1679.04028,0.00866
1676.98011,0.00908
1674.91993,0.00951
1672.85976,0.00990
1670.79959,0.01019
1668.73942,0.01036
1666.67925,0.01063
1664.61907,0.01113
1662.55890,0.01158
1660.49873,0.01175
1658.43856,0.01180
1656.37839,0.01198
1654.31821,0.01230
1652.25804,0.01251
1650.19787,0.01253
1648.13770,0.01260
1646.07753,0.01262
1644.01735,0.01243
1641.95718,0.01225
1639.89701,0.01225
1637.83684,0.01231
1635.77666,0.01209
1633.71649,0.01172
1631.65632,0.01165
1629.59615,0.01170
1627.53598,0.01153
1625.47580,0.01121
1623.41563,0.01100
1621.35546,0.01098
1619.29529,0.01112
1617.23512,0.01116
1615.17494,0.01092
1613.11477,0.01067
1611.05460,0.01058
1608.99443,0.01051
1606.93425,0.01041
1604.87408,0.01034
1602.81391,0.01019
1600.75374,0.00989
1598.69357,0.00961
1596.63339,0.00949
1594.57322,0.00944
1592.51305,0.00926
1590.45288,0.00896
1588.39271,0.00873
1586.33253,0.00854
1584.27236,0.00825
1582.21219,0.00796
1580.15202,0.00789
1578.09185,0.00799
1576.03167,0.00784
1573.97150,0.00740
1571.91133,0.00706
1569.85116,0.00681
1567.79098,0.00650
1565.73081,0.00630
1563.67064,0.00629
1561.61047,0.00644
1559.55030,0.00656
1557.49012,0.00621
1555.42995,0.00565
1553.36978,0.00528
1551.30961,0.00512
1549.24944,0.00506
1547.18926,0.00504
1545.12909,0.00511
1543.06892,0.00533
1541.00875,0.00551
1538.94858,0.00521
1536.88840,0.00473
1534.82823,0.00438
1532.76806,0.00412
1530.70789,0.00398
1528.64771,0.00390
1526.58754,0.00375
1524.52737,0.00367
1522.46720,0.00364
1520.40703,0.00337
1518.34685,0.00302
1516.28668,0.00280
1514.22651,0.00271
1512.16634,0.00268
1510.10617,0.00262
1508.04599,0.00254
1505.98582,0.00247
1503.92565,0.00227
1501.86548,0.00210
1499.80530,0.00216
1497.74513,0.00228
1495.68496,0.00225
1493.62479,0.00217
1491.56462,0.00207
1489.50444,0.00185
1487.44427,0.00162
1485.38410,0.00153
1483.32393,0.00156
1481.26376,0.00167
1479.20358,0.00178
1477.14341,0.00179
1475.08324,0.00167
1473.02307,0.00151
1470.96290,0.00153
1468.90272,0.00173
1466.84255,0.00191
1464.78238,0.00200
1462.72221,0.00208
1460.66203,0.00223
1458.60186,0.00233
1456.54169,0.00223
1454.48152,0.00213
1452.42135,0.00217
1450.36117,0.00229
1448.30100,0.00239
1446.24083,0.00244
1444.18066,0.00245
1442.12049,0.00248
1440.06031,0.00260
1438.00014,0.00270
1435.93997,0.00262
1433.87980,0.00252
1431.81963,0.00260
1429.75945,0.00281
1427.69928,0.00302
1425.63911,0.00316
1423.57894,0.00319
1421.51876,0.00315
1419.45859,0.00319
1417.39842,0.00338
1415.33825,0.00364
1413.27808,0.00386
1411.21790,0.00400
1409.15773,0.00403
1407.09756,0.00394
1405.03739,0.00378
1402.97722,0.00366
1400.91704,0.00360
1398.85687,0.00341
1396.79670,0.00315
1394.73653,0.00307
1392.67635,0.00320
1390.61618,0.00329
1388.55601,0.00320
1386.49584,0.00308
1384.43567,0.00312
1382.37549,0.00324
1380.31532,0.00326
1378.25515,0.00327
1376.19498,0.00329
1374.13481,0.00326
1372.07463,0.00316
1370.01446,0.00309
1367.95429,0.00309
1365.89412,0.00316
1363.83395,0.00322
1361.77377,0.00314
1359.71360,0.00303
1357.65343,0.00299
1355.59326,0.00297
1353.53308,0.00289
1351.47291,0.00277
1349.41274,0.00270
1347.35257,0.00272
1345.29240,0.00279
1343.23222,0.00274
1341.17205,0.00241
1339.11188,0.00201
1337.05171,0.00191
1334.99154,0.00210
1332.93136,0.00226
1330.87119,0.00224
1328.81102,0.00214
1326.75085,0.00205
1324.69067,0.00196
1322.63050,0.00193
1320.57033,0.00193
1318.51016,0.00194
1316.44999,0.00198
1314.38981,0.00207
1312.32964,0.00219
1310.26947,0.00229
1308.20930,0.00232
1306.14913,0.00231
1304.08895,0.00234
1302.02878,0.00237
1299.96861,0.00231
1297.90844,0.00214
1295.84827,0.00201
1293.78809,0.00207
1291.72792,0.00224
1289.66775,0.00236
1287.60758,0.00239
1285.54740,0.00235
1283.48723,0.00229
1281.42706,0.00226
1279.36689,0.00233
1277.30672,0.00240
1275.24654,0.00237
1273.18637,0.00234
1271.12620,0.00234
1269.06603,0.00231
1267.00586,0.00223
1264.94568,0.00217
1262.88551,0.00217
1260.82534,0.00226
1258.76517,0.00230
1256.70500,0.00225
1254.64482,0.00220
1252.58465,0.00219
1250.52448,0.00220
1248.46431,0.00225
1246.40413,0.00225
1244.34396,0.00215
1242.28379,0.00202
1240.22362,0.00192
1238.16345,0.00191
1236.10327,0.00199
1234.04310,0.00197
1231.98293,0.00175
1229.92276,0.00145
1227.86259,0.00128
1225.80241,0.00118
1223.74224,0.00102
1221.68207,0.00088
1219.62190,0.00082
1217.56172,0.00073
1215.50155,0.00049
1213.44138,0.00025
1211.38121,0.00018
1209.32104,0.00021
1207.26086,0.00016
1205.20069,0.00007
1203.14052,0.00005
1201.08035,0.00008
1199.02018,0.00014
1196.96000,0.00028
1194.89983,0.00044
1192.83966,0.00061
1190.77949,0.00088
1188.71932,0.00127
1186.65914,0.00165
1184.59897,0.00196
1182.53880,0.00225
1180.47863,0.00262
1178.41845,0.00312
1176.35828,0.00363
1174.29811,0.00418
1172.23794,0.00479
1170.17777,0.00545
1168.11759,0.00610
1166.05742,0.00663
1163.99725,0.00705
1161.93708,0.00765
1159.87691,0.00853
1157.81673,0.00938
1155.75656,0.00994
1153.69639,0.01045
1151.63622,0.01115
1149.57605,0.01205
1147.51587,0.01292
1145.45570,0.01371
1143.39553,0.01458
1141.33536,0.01544
1139.27518,0.01616
1137.21501,0.01693
1135.15484,0.01785
1133.09467,0.01877
1131.03450,0.01959
1128.97432,0.02042
1126.91415,0.02128
1124.85398,0.02212
1122.79381,0.02295
1120.73364,0.02376
1118.67346,0.02468
1116.61329,0.02568
1114.55312,0.02668
1112.49295,0.02767
1110.43277,0.02860
1108.37260,0.02952
1106.31243,0.03045
1104.25226,0.03131
1102.19209,0.03206
1100.13191,0.03279
1098.07174,0.03365
1096.01157,0.03460
1093.95140,0.03543
1091.89123,0.03613
1089.83105,0.03678
1087.77088,0.03752
1085.71071,0.03829
1083.65054,0.03906
1081.59037,0.03983
1079.53019,0.04057
1077.47002,0.04120
1075.40985,0.04162
1073.34968,0.04192
1071.28950,0.04230
1069.22933,0.04265
1067.16916,0.04274
1065.10899,0.04252
1063.04882,0.04210
1060.98864,0.04159
1058.92847,0.04104
1056.86830,0.04041
1054.80813,0.03951
1052.74796,0.03828
1050.68778,0.03694
1048.62761,0.03551
1046.56744,0.03404
1044.50727,0.03279
1042.44710,0.03158
1040.38692,0.03013
1038.32675,0.02857
1036.26658,0.02705
1034.20641,0.02563
1032.14623,0.02441
1030.08606,0.02330
1028.02589,0.02217
1025.96572,0.02116
1023.90555,0.02033
1021.84537,0.01956
1019.78520,0.01881
1017.72503,0.01822
1015.66486,0.01790
1013.60469,0.01778
1011.54451,0.01779
1009.48434,0.01788
1007.42417,0.01810
1005.36400,0.01861
1003.30382,0.01932
1001.24365,0.02001
999.18348,0.02065
997.12331,0.02136
995.06314,0.02230
993.00296,0.02332
990.94279,0.02433
988.88262,0.02517
986.82245,0.02578
984.76228,0.02634
982.70210,0.02673
980.64193,0.02682
978.58176,0.02685
976.52159,0.02683
974.46142,0.02670
972.40124,0.02649
970.34107,0.02603
968.28090,0.02517
966.22073,0.02426
964.16055,0.02356
962.10038,0.02286
960.04021,0.02201
957.98004,0.02104
955.91987,0.02015
953.85969,0.01942
951.79952,0.01865
949.73935,0.01782
947.67918,0.01708
945.61901,0.01638
943.55883,0.01569
941.49866,0.01502
939.43849,0.01438
937.37832,0.01386
935.31814,0.01353
933.25797,0.01314
931.19780,0.01256
929.13763,0.01202
927.07746,0.01175
925.01728,0.01166
922.95711,0.01136
920.89694,0.01089
918.83677,0.01042
916.77660,0.00986
914.71642,0.00923
912.65625,0.00855
910.59608,0.00801
908.53591,0.00781
906.47574,0.00780
904.41556,0.00786
902.35539,0.00793
900.29522,0.00792
898.23505,0.00792
896.17487,0.00819
894.11470,0.00871
892.05453,0.00911
889.99436,0.00916
887.93419,0.00918
885.87401,0.00941
883.81384,0.00989
881.75367,0.01057
879.69350,0.01119
877.63333,0.01166
875.57315,0.01229
873.51298,0.01338
871.45281,0.01453
869.39264,0.01517
867.33247,0.01550
865.27229,0.01584
863.21212,0.01623
861.15195,0.01656
859.09178,0.01685
857.03160,0.01732
854.97143,0.01784
852.91126,0.01810
850.85109,0.01806
848.79092,0.01777
846.73074,0.01749
844.67057,0.01719
842.61040,0.01638
840.55023,0.01537
838.49006,0.01482
836.42988,0.01452
834.36971,0.01387
832.30954,0.01301
830.24937,0.01240
828.18919,0.01205
826.12902,0.01167
824.06885,0.01125
822.00868,0.01092
819.94851,0.01043
817.88833,0.00973
815.82816,0.00922
813.76799,0.00885
811.70782,0.00848
809.64765,0.00824
807.58747,0.00799
805.52730,0.00750
803.46713,0.00700
801.40696,0.00676
799.34679,0.00660
797.28661,0.00626
795.22644,0.00590
793.16627,0.00554
791.10610,0.00523
789.04592,0.00545
786.98575,0.00605
784.92558,0.00624
782.86541,0.00588
780.80524,0.00564
778.74506,0.00554
776.68489,0.00508
774.62472,0.00459
772.56455,0.00461
770.50438,0.00483
768.44420,0.00460
766.38403,0.00394
764.32386,0.00328
762.26369,0.00313
760.20352,0.00369
758.14334,0.00413
756.08317,0.00397
754.02300,0.00375
751.96283,0.00379
749.90265,0.00363
747.84248,0.00318
745.78231,0.00310
743.72214,0.00340
741.66197,0.00354
739.60179,0.00356
737.54162,0.00341
735.48145,0.00287
733.42128,0.00252
731.36111,0.00275
729.30093,0.00300
727.24076,0.00314
725.18059,0.00317
723.12042,0.00279
721.06024,0.00241
719.00007,0.00248
716.93990,0.00259
714.87973,0.00249
712.81956,0.00259
710.75938,0.00294
708.69921,0.00311
706.63904,0.00305
704.57887,0.00297
702.51870,0.00289
700.45852,0.00291
698.39835,0.00300
696.33818,0.00287
694.27801,0.00249
692.21784,0.00210
690.15766,0.00202
688.09749,0.00237
686.03732,0.00293
683.97715,0.00333
681.91697,0.00339
679.85680,0.00365
677.79663,0.00441
675.73646,0.00473
673.67629,0.00393
671.61611,0.00275
669.55594,0.00256
667.49577,0.00319
665.43560,0.00287
663.37543,0.00206
661.31525,0.00187
659.25508,0.00252
657.19491,0.00359
655.13474,0.00448
653.07457,0.00490
651.01439,0.00501
648.95422,0.00470
646.89405,0.00407
644.83388,0.00341
642.77370,0.00313
640.71353,0.00344
638.65336,0.00347
636.59319,0.00265
634.53302,0.00174
632.47284,0.00096
630.41267,0.00025
628.35250,0.00020
626.29233,0.00071
624.23216,0.00151
622.17198,0.00233
620.11181,0.00183
618.05164,0.00160
615.99147,0.00357
613.93129,0.00450
611.87112,0.00259
609.81095,0.00065
607.75078,0.00000
605.69061,-0.00000
603.63043,0.00089
601.57026,0.00142
599.51009,0.00000
