3996.73391,0.00075
3994.67374,0.00074
3992.61357,0.00069
3990.55339,0.00058
3988.49322,0.00028
3986.43305,0.00000
3984.37288,0.00006
3982.31271,0.00034
3980.25253,0.00053
3978.19236,0.00060
3976.13219,0.00066
3974.07202,0.00075
3972.01184,0.00084
3969.95167,0.00091
3967.89150,0.00095
3965.83133,0.00094
3963.77116,0.00088
3961.71098,0.00079
3959.65081,0.00060
3957.59064,0.00037
3955.53047,0.00028
3953.47030,0.00026
3951.41012,0.00019
3949.34995,0.00015
3947.28978,0.00025
3945.22961,0.00050
3943.16943,0.00082
3941.10926,0.00097
3939.04909,0.00082
3936.98892,0.00057
3934.92875,0.00045
3932.86857,0.00042
3930.80840,0.00033
3928.74823,0.00025
3926.68806,0.00037
3924.62789,0.00071
3922.56771,0.00097
3920.50754,0.00093
3918.44737,0.00073
3916.38720,0.00065
3914.32703,0.00075
3912.26685,0.00088
3910.20668,0.00090
3908.14651,0.00075
3906.08634,0.00063
3904.02616,0.00076
3901.96599,0.00080
3899.90582,0.00052
3897.84565,0.00051
3895.78548,0.00094
3893.72530,0.00120
3891.66513,0.00098
3889.60496,0.00061
3887.54479,0.00042
3885.48462,0.00041
3883.42444,0.00040
3881.36427,0.00036
3879.30410,0.00032
3877.24393,0.00025
3875.18376,0.00032
3873.12358,0.00060
3871.06341,0.00070
3869.00324,0.00055
3866.94307,0.00044
3864.88289,0.00041
3862.82272,0.00046
3860.76255,0.00068
3858.70238,0.00102
3856.64221,0.00153
3854.58203,0.00206
3852.52186,0.00187
3850.46169,0.00116
3848.40152,0.00083
3846.34135,0.00086
3844.28117,0.00096
3842.22100,0.00100
3840.16083,0.00100
3838.10066,0.00090
3836.04048,0.00087
3833.98031,0.00106
3831.92014,0.00123
3829.85997,0.00121
3827.79980,0.00106
3825.73962,0.00099
3823.67945,0.00118
3821.61928,0.00143
3819.55911,0.00140
3817.49894,0.00105
3815.43876,0.00056
3813.37859,0.00024
3811.31842,0.00025
3809.25825,0.00047
3807.19808,0.00055
3805.13790,0.00049
3803.07773,0.00061
3801.01756,0.00083
3798.95739,0.00085
3796.89721,0.00073
3794.83704,0.00051
3792.77687,0.00024
3790.71670,0.00013
3788.65653,0.00031
3786.59635,0.00063
3784.53618,0.00078
3782.47601,0.00070
3780.41584,0.00077
3778.35567,0.00102
3776.29549,0.00113
3774.23532,0.00110
3772.17515,0.00117
3770.11498,0.00137
3768.05481,0.00148
3765.99463,0.00143
3763.93446,0.00128
3761.87429,0.00101
3759.81412,0.00067
3757.75394,0.00044
3755.69377,0.00053
3753.63360,0.00086
3751.57343,0.00101
3749.51326,0.00064
3747.45308,0.00054
3745.39291,0.00097
3743.33274,0.00106
3741.27257,0.00059
3739.21240,0.00020
3737.15222,0.00012
3735.09205,0.00015
3733.03188,0.00024
3730.97171,0.00025
3728.91153,0.00035
3726.85136,0.00083
3724.79119,0.00138
3722.73102,0.00160
3720.67085,0.00166
3718.61067,0.00157
3716.55050,0.00129
3714.49033,0.00122
3712.43016,0.00142
3710.36999,0.00125
3708.30981,0.00072
3706.24964,0.00040
3704.18947,0.00044
3702.12930,0.00071
3700.06913,0.00098
3698.00895,0.00120
3695.94878,0.00144
3693.88861,0.00183
3691.82844,0.00221
3689.76826,0.00198
3687.70809,0.00123
3685.64792,0.00094
3683.58775,0.00120
3681.52758,0.00161
3679.46740,0.00176
3677.40723,0.00152
3675.34706,0.00131
3673.28689,0.00146
3671.22672,0.00160
3669.16654,0.00155
3667.10637,0.00156
3665.04620,0.00165
3662.98603,0.00173
3660.92586,0.00196
3658.86568,0.00230
3656.80551,0.00247
3654.74534,0.00251
3652.68517,0.00277
3650.62499,0.00332
3648.56482,0.00365
3646.50465,0.00348
3644.44448,0.00327
3642.38431,0.00324
3640.32413,0.00336
3638.26396,0.00362
3636.20379,0.00389
3634.14362,0.00399
3632.08345,0.00402
3630.02327,0.00417
3627.96310,0.00433
3625.90293,0.00450
3623.84276,0.00487
3621.78258,0.00543
3619.72241,0.00588
3617.66224,0.00605
3615.60207,0.00615
3613.54190,0.00609
3611.48172,0.00580
3609.42155,0.00578
3607.36138,0.00641
3605.30121,0.00724
3603.24104,0.00769
3601.18086,0.00791
3599.12069,0.00837
3597.06052,0.00905
3595.00035,0.00949
3592.94018,0.00952
3590.88000,0.00933
3588.81983,0.00899
3586.75966,0.00879
3584.69949,0.00918
3582.63931,0.00987
3580.57914,0.01040
3578.51897,0.01070
3576.45880,0.01087
3574.39863,0.01099
3572.33845,0.01118
3570.27828,0.01153
3568.21811,0.01189
3566.15794,0.01196
3564.09777,0.01195
3562.03759,0.01214
3559.97742,0.01246
3557.91725,0.01283
3555.85708,0.01318
3553.79690,0.01347
3551.73673,0.01377
3549.67656,0.01407
3547.61639,0.01424
3545.55622,0.01424
3543.49604,0.01420
3541.43587,0.01433
3539.37570,0.01468
3537.31553,0.01509
3535.25536,0.01526
3533.19518,0.01523
3531.13501,0.01532
3529.07484,0.01563
3527.01467,0.01595
3524.95450,0.01627
3522.89432,0.01663
3520.83415,0.01697
3518.77398,0.01731
3516.71381,0.01763
3514.65363,0.01777
3512.59346,0.01780
3510.53329,0.01796
3508.47312,0.01827
3506.41295,0.01855
3504.35277,0.01868
3502.29260,0.01865
3500.23243,0.01882
3498.17226,0.01930
3496.11209,0.01972
3494.05191,0.01983
3491.99174,0.01980
3489.93157,0.01990
3487.87140,0.02019
3485.81123,0.02056
3483.75105,0.02086
3481.69088,0.02095
3479.63071,0.02106
3477.57054,0.02152
3475.51036,0.02205
3473.45019,0.02227
3471.39002,0.02223
3469.32985,0.02215
3467.26968,0.02220
3465.20950,0.02238
3463.14933,0.02269
3461.08916,0.02305
3459.02899,0.02337
3456.96882,0.02355
3454.90864,0.02363
3452.84847,0.02378
3450.78830,0.02397
3448.72813,0.02413
3446.66795,0.02427
3444.60778,0.02440
3442.54761,0.02458
3440.48744,0.02480
3438.42727,0.02497
3436.36709,0.02519
3434.30692,0.02538
3432.24675,0.02551
3430.18658,0.02568
3428.12641,0.02575
3426.06623,0.02572
3424.00606,0.02574
3421.94589,0.02570
3419.88572,0.02563
3417.82555,0.02592
3415.76537,0.02651
3413.70520,0.02690
3411.64503,0.02695
3409.58486,0.02700
3407.52468,0.02722
3405.46451,0.02741
3403.40434,0.02736
3401.34417,0.02730
3399.28400,0.02744
3397.22382,0.02774
3395.16365,0.02801
3393.10348,0.02817
3391.04331,0.02825
3388.98314,0.02833
3386.92296,0.02841
3384.86279,0.02857
3382.80262,0.02872
3380.74245,0.02874
3378.68228,0.02869
3376.62210,0.02862
3374.56193,0.02868
3372.50176,0.02899
3370.44159,0.02935
3368.38141,0.02957
3366.32124,0.02964
3364.26107,0.02944
3362.20090,0.02915
3360.14073,0.02922
3358.08055,0.02960
3356.02038,0.02980
3353.96021,0.02979
3351.90004,0.02991
3349.83987,0.03000
3347.77969,0.02989
3345.71952,0.02998
3343.65935,0.03043
3341.59918,0.03082
3339.53900,0.03089
3337.47883,0.03077
3335.41866,0.03063
3333.35849,0.03052
3331.29832,0.03042
3329.23814,0.03038
3327.17797,0.03049
3325.11780,0.03081
3323.05763,0.03105
3320.99746,0.03107
3318.93728,0.03115
3316.87711,0.03125
3314.81694,0.03129
3312.75677,0.03129
3310.69660,0.03138
3308.63642,0.03147
3306.57625,0.03140
3304.51608,0.03137
3302.45591,0.03149
3300.39573,0.03152
3298.33556,0.03142
3296.27539,0.03132
3294.21522,0.03136
3292.15505,0.03159
3290.09487,0.03189
3288.03470,0.03204
3285.97453,0.03193
3283.91436,0.03181
3281.85419,0.03191
3279.79401,0.03208
3277.73384,0.03211
3275.67367,0.03208
3273.61350,0.03221
3271.55333,0.03236
3269.49315,0.03230
3267.43298,0.03220
3265.37281,0.03227
3263.31264,0.03246
3261.25246,0.03259
3259.19229,0.03256
3257.13212,0.03251
3255.07195,0.03253
3253.01178,0.03257
3250.95160,0.03266
3248.89143,0.03281
3246.83126,0.03289
3244.77109,0.03290
3242.71092,0.03290
3240.65074,0.03280
3238.59057,0.03268
3236.53040,0.03267
3234.47023,0.03268
3232.41005,0.03270
3230.34988,0.03272
3228.28971,0.03266
3226.22954,0.03257
3224.16937,0.03245
3222.10919,0.03247
3220.04902,0.03257
3217.98885,0.03238
3215.92868,0.03215
3213.86851,0.03226
3211.80833,0.03252
3209.74816,0.03260
3207.68799,0.03257
3205.62782,0.03259
3203.56765,0.03259
3201.50747,0.03254
3199.44730,0.03256
3197.38713,0.03262
3195.32696,0.03252
3193.26678,0.03227
3191.20661,0.03214
3189.14644,0.03217
3187.08627,0.03227
3185.02610,0.03238
3182.96592,0.03237
3180.90575,0.03211
3178.84558,0.03180
3176.78541,0.03175
3174.72524,0.03180
3172.66506,0.03180
3170.60489,0.03190
3168.54472,0.03206
3166.48455,0.03206
3164.42437,0.03186
3162.36420,0.03167
3160.30403,0.03161
3158.24386,0.03157
3156.18369,0.03153
3154.12351,0.03157
3152.06334,0.03163
3150.00317,0.03160
3147.94300,0.03153
3145.88283,0.03136
3143.82265,0.03106
3141.76248,0.03077
3139.70231,0.03061
3137.64214,0.03067
3135.58197,0.03084
3133.52179,0.03090
3131.46162,0.03084
3129.40145,0.03076
3127.34128,0.03075
3125.28110,0.03068
3123.22093,0.03051
3121.16076,0.03042
3119.10059,0.03042
3117.04042,0.03027
3114.98024,0.02988
3112.92007,0.02955
3110.85990,0.02954
3108.79973,0.02975
3106.73956,0.02987
3104.67938,0.02979
3102.61921,0.02963
3100.55904,0.02948
3098.49887,0.02940
3096.43870,0.02928
3094.37852,0.02905
3092.31835,0.02889
3090.25818,0.02890
3088.19801,0.02895
3086.13783,0.02884
3084.07766,0.02856
3082.01749,0.02832
3079.95732,0.02829
3077.89715,0.02836
3075.83697,0.02834
3073.77680,0.02813
3071.71663,0.02793
3069.65646,0.02778
3067.59629,0.02761
3065.53611,0.02745
3063.47594,0.02738
3061.41577,0.02735
3059.35560,0.02728
3057.29542,0.02718
3055.23525,0.02700
3053.17508,0.02681
3051.11491,0.02680
3049.05474,0.02684
3046.99456,0.02669
3044.93439,0.02639
3042.87422,0.02613
3040.81405,0.02603
3038.75388,0.02602
3036.69370,0.02595
3034.63353,0.02582
3032.57336,0.02563
3030.51319,0.02541
3028.45302,0.02526
3026.39284,0.02509
3024.33267,0.02494
3022.27250,0.02495
3020.21233,0.02495
3018.15215,0.02484
3016.09198,0.02469
3014.03181,0.02452
3011.97164,0.02432
3009.91147,0.02421
3007.85129,0.02410
3005.79112,0.02379
3003.73095,0.02351
3001.67078,0.02350
2999.61061,0.02362
2997.55043,0.02366
2995.49026,0.02368
2993.43009,0.02356
2991.36992,0.02331
2989.30975,0.02309
2987.24957,0.02289
2985.18940,0.02277
2983.12923,0.02282
2981.06906,0.02295
2979.00888,0.02304
2976.94871,0.02306
2974.88854,0.02297
2972.82837,0.02267
2970.76820,0.02251
2968.70802,0.02259
2966.64785,0.02250
2964.58768,0.02227
2962.52751,0.02208
2960.46734,0.02180
2958.40716,0.02156
2956.34699,0.02160
2954.28682,0.02175
2952.22665,0.02184
2950.16647,0.02187
2948.10630,0.02181
2946.04613,0.02167
2943.98596,0.02156
2941.92579,0.02151
2939.86561,0.02141
2937.80544,0.02125
2935.74527,0.02118
2933.68510,0.02114
2931.62493,0.02105
2929.56475,0.02084
2927.50458,0.02066
2925.44441,0.02067
2923.38424,0.02072
2921.32407,0.02063
2919.26389,0.02059
2917.20372,0.02057
2915.14355,0.02034
2913.08338,0.02007
2911.02320,0.02001
2908.96303,0.01997
2906.90286,0.01975
2904.84269,0.01954
2902.78252,0.01945
2900.72234,0.01939
2898.66217,0.01934
2896.60200,0.01934
2894.54183,0.01929
2892.48166,0.01915
2890.42148,0.01904
2888.36131,0.01898
2886.30114,0.01897
2884.24097,0.01892
2882.18080,0.01866
2880.12062,0.01840
2878.06045,0.01843
2876.00028,0.01857
2873.94011,0.01864
2871.87993,0.01859
2869.81976,0.01839
2867.75959,0.01810
2865.69942,0.01796
2863.63925,0.01795
2861.57907,0.01783
2859.51890,0.01765
2857.45873,0.01752
2855.39856,0.01738
2853.33839,0.01726
2851.27821,0.01719
2849.21804,0.01704
2847.15787,0.01689
2845.09770,0.01682
2843.03752,0.01669
2840.97735,0.01645
2838.91718,0.01628
2836.85701,0.01628
2834.79684,0.01635
2832.73666,0.01637
2830.67649,0.01622
2828.61632,0.01594
2826.55615,0.01576
2824.49598,0.01569
2822.43580,0.01553
2820.37563,0.01529
2818.31546,0.01516
2816.25529,0.01517
2814.19512,0.01514
2812.13494,0.01508
2810.07477,0.01508
2808.01460,0.01505
2805.95443,0.01501
2803.89425,0.01494
2801.83408,0.01483
2799.77391,0.01474
2797.71374,0.01474
2795.65357,0.01477
2793.59339,0.01471
2791.53322,0.01452
2789.47305,0.01429
2787.41288,0.01415
2785.35271,0.01418
2783.29253,0.01432
2781.23236,0.01438
2779.17219,0.01427
2777.11202,0.01407
2775.05184,0.01387
2772.99167,0.01370
2770.93150,0.01365
2768.87133,0.01368
2766.81116,0.01365
2764.75098,0.01348
2762.69081,0.01332
2760.63064,0.01330
2758.57047,0.01333
2756.51030,0.01321
2754.45012,0.01297
2752.38995,0.01282
2750.32978,0.01272
2748.26961,0.01260
2746.20944,0.01262
2744.14926,0.01267
2742.08909,0.01260
2740.02892,0.01246
2737.96875,0.01235
2735.90857,0.01235
2733.84840,0.01240
2731.78823,0.01231
2729.72806,0.01209
2727.66789,0.01198
2725.60771,0.01198
2723.54754,0.01182
2721.48737,0.01160
2719.42720,0.01154
2717.36703,0.01159
2715.30685,0.01159
2713.24668,0.01148
2711.18651,0.01139
2709.12634,0.01134
2707.06617,0.01119
2705.00599,0.01111
2702.94582,0.01116
2700.88565,0.01108
2698.82548,0.01093
2696.76530,0.01080
2694.70513,0.01071
2692.64496,0.01069
2690.58479,0.01068
2688.52462,0.01060
2686.46444,0.01046
2684.40427,0.01032
2682.34410,0.01031
2680.28393,0.01041
2678.22376,0.01043
2676.16358,0.01030
2674.10341,0.01010
2672.04324,0.00999
2669.98307,0.00994
2667.92289,0.00981
2665.86272,0.00970
2663.80255,0.00965
2661.74238,0.00958
2659.68221,0.00958
2657.62203,0.00967
2655.56186,0.00966
2653.50169,0.00950
2651.44152,0.00931
2649.38135,0.00925
2647.32117,0.00929
2645.26100,0.00931
2643.20083,0.00932
2641.14066,0.00927
2639.08049,0.00907
2637.02031,0.00887
2634.96014,0.00885
2632.89997,0.00878
2630.83980,0.00858
2628.77962,0.00838
2626.71945,0.00830
2624.65928,0.00835
2622.59911,0.00843
2620.53894,0.00841
2618.47876,0.00831
2616.41859,0.00816
2614.35842,0.00794
2612.29825,0.00776
2610.23808,0.00777
2608.17790,0.00792
2606.11773,0.00798
2604.05756,0.00784
2601.99739,0.00782
2599.93722,0.00792
2597.87704,0.00790
2595.81687,0.00774
2593.75670,0.00763
2591.69653,0.00765
2589.63635,0.00763
2587.57618,0.00746
2585.51601,0.00740
2583.45584,0.00752
2581.39567,0.00752
2579.33549,0.00738
2577.27532,0.00736
2575.21515,0.00728
2573.15498,0.00721
2571.09481,0.00746
2569.03463,0.00781
2566.97446,0.00786
2564.91429,0.00755
2562.85412,0.00727
2560.79394,0.00731
2558.73377,0.00750
2556.67360,0.00757
2554.61343,0.00752
2552.55326,0.00754
2550.49308,0.00752
2548.43291,0.00738
2546.37274,0.00731
2544.31257,0.00734
2542.25240,0.00728
2540.19222,0.00714
2538.13205,0.00721
2536.07188,0.00737
2534.01171,0.00734
2531.95154,0.00744
2529.89136,0.00773
2527.83119,0.00773
2525.77102,0.00745
2523.71085,0.00732
2521.65067,0.00737
2519.59050,0.00737
2517.53033,0.00733
2515.47016,0.00746
2513.40999,0.00764
2511.34981,0.00762
2509.28964,0.00749
2507.22947,0.00740
2505.16930,0.00744
2503.10913,0.00763
2501.04895,0.00768
2498.98878,0.00759
2496.92861,0.00765
2494.86844,0.00779
2492.80827,0.00786
2490.74809,0.00781
2488.68792,0.00768
2486.62775,0.00761
2484.56758,0.00767
2482.50740,0.00764
2480.44723,0.00751
2478.38706,0.00771
2476.32689,0.00807
2474.26672,0.00813
2472.20654,0.00792
2470.14637,0.00777
2468.08620,0.00791
2466.02603,0.00828
2463.96586,0.00836
2461.90568,0.00805
2459.84551,0.00791
2457.78534,0.00814
2455.72517,0.00841
2453.66499,0.00848
2451.60482,0.00833
2449.54465,0.00811
2447.48448,0.00781
2445.42431,0.00766
2443.36413,0.00800
2441.30396,0.00834
2439.24379,0.00828
2437.18362,0.00819
2435.12345,0.00821
2433.06327,0.00810
2431.00310,0.00781
2428.94293,0.00758
2426.88276,0.00758
2424.82259,0.00782
2422.76241,0.00805
2420.70224,0.00808
2418.64207,0.00817
2416.58190,0.00843
2414.52172,0.00847
2412.46155,0.00825
2410.40138,0.00810
2408.34121,0.00793
2406.28104,0.00770
2404.22086,0.00772
2402.16069,0.00796
2400.10052,0.00789
2398.04035,0.00747
2395.98018,0.00738
2393.92000,0.00769
2391.85983,0.00785
2389.79966,0.00765
2387.73949,0.00739
2385.67931,0.00737
2383.61914,0.00751
2381.55897,0.00763
2379.49880,0.00758
2377.43863,0.00731
2375.37845,0.00711
2373.31828,0.00739
2371.25811,0.00796
2369.19794,0.00812
2367.13777,0.00789
2365.07759,0.00819
2363.01742,0.00913
2360.95725,0.00941
2358.89708,0.00840
2356.83691,0.00744
2354.77673,0.00743
2352.71656,0.00770
2350.65639,0.00765
2348.59622,0.00734
2346.53604,0.00707
2344.47587,0.00714
2342.41570,0.00761
2340.35553,0.00811
2338.29536,0.00832
2336.23518,0.00827
2334.17501,0.00818
2332.11484,0.00817
2330.05467,0.00816
2327.99450,0.00818
2325.93432,0.00816
2323.87415,0.00791
2321.81398,0.00761
2319.75381,0.00734
2317.69364,0.00703
2315.63346,0.00676
2313.57329,0.00673
2311.51312,0.00684
2309.45295,0.00684
2307.39277,0.00687
2305.33260,0.00715
2303.27243,0.00749
2301.21226,0.00757
2299.15209,0.00750
2297.09191,0.00767
2295.03174,0.00797
2292.97157,0.00809
2290.91140,0.00800
2288.85123,0.00778
2286.79105,0.00731
2284.73088,0.00672
2282.67071,0.00635
2280.61054,0.00639
2278.55036,0.00679
2276.49019,0.00738
2274.43002,0.00774
2272.36985,0.00768
2270.30968,0.00756
2268.24950,0.00778
2266.18933,0.00800
2264.12916,0.00766
2262.06899,0.00686
2260.00882,0.00640
2257.94864,0.00687
2255.88847,0.00744
2253.82830,0.00718
2251.76813,0.00670
2249.70796,0.00667
2247.64778,0.00676
2245.58761,0.00665
2243.52744,0.00617
2241.46727,0.00587
2239.40709,0.00654
2237.34692,0.00746
2235.28675,0.00764
2233.22658,0.00725
2231.16641,0.00676
2229.10623,0.00626
2227.04606,0.00564
2224.98589,0.00562
2222.92572,0.00617
2220.86555,0.00604
2218.80537,0.00529
2216.74520,0.00459
2214.68503,0.00434
2212.62486,0.00490
2210.56469,0.00569
2208.50451,0.00621
2206.44434,0.00618
2204.38417,0.00562
2202.32400,0.00520
2200.26382,0.00528
2198.20365,0.00581
2196.14348,0.00635
2194.08331,0.00595
2192.02314,0.00504
2189.96296,0.00506
2187.90279,0.00552
2185.84262,0.00520
2183.78245,0.00440
2181.72228,0.00414
2179.66210,0.00449
2177.60193,0.00465
2175.54176,0.00443
2173.48159,0.00387
2171.42141,0.00370
2169.36124,0.00502
2167.30107,0.00661
2165.24090,0.00666
2163.18073,0.00491
2161.12055,0.00235
2159.06038,0.00111
2157.00021,0.00152
2154.94004,0.00208
2152.87987,0.00245
2150.81969,0.00271
2148.75952,0.00310
2146.69935,0.00343
2144.63918,0.00336
2142.57901,0.00344
2140.51883,0.00385
2138.45866,0.00381
2136.39849,0.00306
2134.33832,0.00238
2132.27814,0.00216
2130.21797,0.00217
2128.15780,0.00236
2126.09763,0.00258
2124.03746,0.00294
2121.97728,0.00357
2119.91711,0.00387
2117.85694,0.00358
2115.79677,0.00325
2113.73660,0.00340
2111.67642,0.00386
2109.61625,0.00389
2107.55608,0.00382
2105.49591,0.00418
2103.43573,0.00445
2101.37556,0.00410
2099.31539,0.00359
2097.25522,0.00362
2095.19505,0.00383
2093.13487,0.00389
2091.07470,0.00407
2089.01453,0.00427
2086.95436,0.00427
2084.89419,0.00394
2082.83401,0.00373
2080.77384,0.00420
2078.71367,0.00457
2076.65350,0.00421
2074.59333,0.00360
2072.53315,0.00328
2070.47298,0.00343
2068.41281,0.00382
2066.35264,0.00385
2064.29246,0.00318
2062.23229,0.00231
2060.17212,0.00234
2058.11195,0.00327
2056.05178,0.00391
2053.99160,0.00403
2051.93143,0.00420
2049.87126,0.00416
2047.81109,0.00389
2045.75092,0.00384
2043.69074,0.00391
2041.63057,0.00384
2039.57040,0.00356
2037.51023,0.00301
2035.45006,0.00259
2033.38988,0.00252
2031.32971,0.00234
2029.26954,0.00230
2027.20937,0.00316
2025.14919,0.00439
2023.08902,0.00506
2021.02885,0.00549
2018.96868,0.00522
2016.90851,0.00382
2014.84833,0.00261
2012.78816,0.00242
2010.72799,0.00309
2008.66782,0.00339
2006.60765,0.00254
2004.54747,0.00186
2002.48730,0.00184
2000.42713,0.00194
1998.36696,0.00240
1996.30678,0.00308
1994.24661,0.00349
1992.18644,0.00325
1990.12627,0.00283
1988.06610,0.00299
1986.00592,0.00302
1983.94575,0.00273
1981.88558,0.00322
1979.82541,0.00412
1977.76524,0.00374
1975.70506,0.00216
1973.64489,0.00124
1971.58472,0.00170
1969.52455,0.00247
1967.46438,0.00254
1965.40420,0.00218
1963.34403,0.00184
1961.28386,0.00178
1959.22369,0.00208
1957.16351,0.00221
1955.10334,0.00189
1953.04317,0.00147
1950.98300,0.00151
1948.92283,0.00215
1946.86265,0.00275
1944.80248,0.00242
1942.74231,0.00137
1940.68214,0.00097
1938.62197,0.00172
1936.56179,0.00261
1934.50162,0.00271
1932.44145,0.00252
1930.38128,0.00268
1928.32111,0.00268
1926.26093,0.00233
1924.20076,0.00205
1922.14059,0.00198
1920.08042,0.00199
1918.02024,0.00201
1915.96007,0.00192
1913.89990,0.00189
1911.83973,0.00226
1909.77956,0.00273
1907.71938,0.00299
1905.65921,0.00314
1903.59904,0.00323
1901.53887,0.00326
1899.47870,0.00322
1897.41852,0.00312
1895.35835,0.00283
1893.29818,0.00229
1891.23801,0.00204
1889.17783,0.00242
1887.11766,0.00293
1885.05749,0.00304
1882.99732,0.00288
1880.93715,0.00273
1878.87697,0.00273
1876.81680,0.00289
1874.75663,0.00317
1872.69646,0.00338
1870.63629,0.00330
1868.57611,0.00300
1866.51594,0.00270
1864.45577,0.00255
1862.39560,0.00262
1860.33543,0.00276
1858.27525,0.00283
1856.21508,0.00274
1854.15491,0.00242
1852.09474,0.00219
1850.03456,0.00237
1847.97439,0.00264
1845.91422,0.00260
1843.85405,0.00246
1841.79388,0.00261
1839.73370,0.00289
1837.67353,0.00305
1835.61336,0.00307
1833.55319,0.00312
1831.49302,0.00330
1829.43284,0.00333
1827.37267,0.00307
1825.31250,0.00277
1823.25233,0.00258
1821.19216,0.00254
1819.13198,0.00253
1817.07181,0.00253
1815.01164,0.00271
1812.95147,0.00305
1810.89129,0.00321
1808.83112,0.00316
1806.77095,0.00315
1804.71078,0.00322
1802.65061,0.00319
1800.59043,0.00308
1798.53026,0.00302
1796.47009,0.00313
1794.40992,0.00330
1792.34975,0.00318
1790.28957,0.00280
1788.22940,0.00269
1786.16923,0.00281
1784.10906,0.00288
1782.04888,0.00290
1779.98871,0.00297
1777.92854,0.00323
1775.86837,0.00367
1773.80820,0.00396
1771.74802,0.00380
1769.68785,0.00337
1767.62768,0.00316
1765.56751,0.00333
1763.50734,0.00350
1761.44716,0.00341
1759.38699,0.00335
1757.32682,0.00358
1755.26665,0.00396
1753.20648,0.00435
1751.14630,0.00455
1749.08613,0.00446
1747.02596,0.00450
1744.96579,0.00480
1742.90561,0.00501
1740.84544,0.00498
1738.78527,0.00490
1736.72510,0.00490
1734.66493,0.00489
1732.60475,0.00481
1730.54458,0.00485
1728.48441,0.00501
1726.42424,0.00514
1724.36407,0.00525
1722.30389,0.00550
1720.24372,0.00593
1718.18355,0.00622
1716.12338,0.00597
1714.06320,0.00558
1712.00303,0.00550
1709.94286,0.00573
1707.88269,0.00614
1705.82252,0.00646
1703.76234,0.00672
1701.70217,0.00709
1699.64200,0.00752
1697.58183,0.00786
1695.52166,0.00810
1693.46148,0.00838
1691.40131,0.00881
1689.34114,0.00939
1687.28097,0.01015
1685.22080,0.01086
1683.16062,0.01111
1681.10045,0.01126
1679.04028,0.01169
1676.98011,0.01212
1674.91993,0.01242
1672.85976,0.01283
1670.79959,0.01329
1668.73942,0.01357
1666.67925,0.01398
1664.61907,0.01466
1662.55890,0.01512
1660.49873,0.01520
1658.43856,0.01540
1656.37839,0.01588
1654.31821,0.01616
1652.25804,0.01598
1650.19787,0.01624
1648.13770,0.01674
1646.07753,0.01651
1644.01735,0.01592
1641.95718,0.01580
1639.89701,0.01614
1637.83684,0.01635
1635.77666,0.01576
1633.71649,0.01484
1631.65632,0.01461
1629.59615,0.01471
1627.53598,0.01458
1625.47580,0.01428
1623.41563,0.01398
1621.35546,0.01374
1619.29529,0.01377
1617.23512,0.01383
1615.17494,0.01356
1613.11477,0.01325
1611.05460,0.01312
1608.99443,0.01298
1606.93425,0.01275
1604.87408,0.01253
1602.81391,0.01229
1600.75374,0.01201
1598.69357,0.01183
1596.63339,0.01175
1594.57322,0.01162
1592.51305,0.01132
1590.45288,0.01093
1588.39271,0.01065
1586.33253,0.01053
1584.27236,0.01038
1582.21219,0.01015
1580.15202,0.01007
1578.09185,0.01010
1576.03167,0.00992
1573.97150,0.00959
1571.91133,0.00948
1569.85116,0.00931
1567.79098,0.00890
1565.73081,0.00864
1563.67064,0.00874
1561.61047,0.00905
1559.55030,0.00906
1557.49012,0.00841
1555.42995,0.00794
1553.36978,0.00777
1551.30961,0.00762
1549.24944,0.00748
1547.18926,0.00750
1545.12909,0.00782
1543.06892,0.00837
1541.00875,0.00858
1538.94858,0.00787
1536.88840,0.00718
1534.82823,0.00689
1532.76806,0.00662
1530.70789,0.00643
1528.64771,0.00645
1526.58754,0.00648
1524.52737,0.00637
1522.46720,0.00600
1520.40703,0.00553
1518.34685,0.00544
1516.28668,0.00547
1514.22651,0.00533
1512.16634,0.00528
1510.10617,0.00536
1508.04599,0.00513
1505.98582,0.00434
1503.92565,0.00388
1501.86548,0.00396
1499.80530,0.00424
1497.74513,0.00435
1495.68496,0.00424
1493.62479,0.00423
1491.56462,0.00429
1489.50444,0.00400
1487.44427,0.00347
1485.38410,0.00326
1483.32393,0.00339
1481.26376,0.00360
1479.20358,0.00379
1477.14341,0.00399
1475.08324,0.00409
1473.02307,0.00391
1470.96290,0.00359
1468.90272,0.00353
1466.84255,0.00371
1464.78238,0.00387
1462.72221,0.00401
1460.66203,0.00423
1458.60186,0.00437
1456.54169,0.00424
1454.48152,0.00410
1452.42135,0.00412
1450.36117,0.00420
1448.30100,0.00425
1446.24083,0.00428
1444.18066,0.00434
1442.12049,0.00442
1440.06031,0.00452
1438.00014,0.00449
1435.93997,0.00422
1433.87980,0.00402
1431.81963,0.00414
1429.75945,0.00440
1427.69928,0.00471
1425.63911,0.00493
1423.57894,0.00499
1421.51876,0.00497
1419.45859,0.00495
1417.39842,0.00492
1415.33825,0.00498
1413.27808,0.00509
1411.21790,0.00511
1409.15773,0.00506
1407.09756,0.00504
1405.03739,0.00500
1402.97722,0.00494
1400.91704,0.00490
1398.85687,0.00478
1396.79670,0.00454
1394.73653,0.00430
1392.67635,0.00422
1390.61618,0.00430
1388.55601,0.00427
1386.49584,0.00408
1384.43567,0.00402
1382.37549,0.00412
1380.31532,0.00417
1378.25515,0.00418
1376.19498,0.00417
1374.13481,0.00405
1372.07463,0.00389
1370.01446,0.00387
1367.95429,0.00390
1365.89412,0.00389
1363.83395,0.00379
1361.77377,0.00362
1359.71360,0.00358
1357.65343,0.00369
1355.59326,0.00376
1353.53308,0.00369
1351.47291,0.00354
1349.41274,0.00337
1347.35257,0.00326
1345.29240,0.00326
1343.23222,0.00334
1341.17205,0.00328
1339.11188,0.00306
1337.05171,0.00297
1334.99154,0.00311
1332.93136,0.00327
1330.87119,0.00331
1328.81102,0.00330
1326.75085,0.00332
1324.69067,0.00336
1322.63050,0.00339
1320.57033,0.00338
1318.51016,0.00331
1316.44999,0.00325
1314.38981,0.00328
1312.32964,0.00338
1310.26947,0.00346
1308.20930,0.00346
1306.14913,0.00345
1304.08895,0.00351
1302.02878,0.00358
1299.96861,0.00364
1297.90844,0.00366
1295.84827,0.00366
1293.78809,0.00376
1291.72792,0.00393
1289.66775,0.00405
1287.60758,0.00412
1285.54740,0.00413
1283.48723,0.00411
1281.42706,0.00406
1279.36689,0.00403
1277.30672,0.00406
1275.24654,0.00415
1273.18637,0.00416
1271.12620,0.00409
1269.06603,0.00403
1267.00586,0.00400
1264.94568,0.00403
1262.88551,0.00419
1260.82534,0.00434
1258.76517,0.00432
1256.70500,0.00422
1254.64482,0.00416
1252.58465,0.00413
1250.52448,0.00414
1248.46431,0.00422
1246.40413,0.00427
1244.34396,0.00418
1242.28379,0.00400
1240.22362,0.00385
1238.16345,0.00382
1236.10327,0.00392
1234.04310,0.00391
1231.98293,0.00365
1229.92276,0.00340
1227.86259,0.00331
1225.80241,0.00322
1223.74224,0.00297
1221.68207,0.00267
1219.62190,0.00241
1217.56172,0.00219
1215.50155,0.00192
1213.44138,0.00173
1211.38121,0.00171
1209.32104,0.00172
1207.26086,0.00159
1205.20069,0.00140
1203.14052,0.00131
1201.08035,0.00127
1199.02018,0.00128
1196.96000,0.00132
1194.89983,0.00132
1192.83966,0.00126
1190.77949,0.00123
1188.71932,0.00136
1186.65914,0.00153
1184.59897,0.00158
1182.53880,0.00158
1180.47863,0.00171
1178.41845,0.00198
1176.35828,0.00227
1174.29811,0.00258
1172.23794,0.00295
1170.17777,0.00340
1168.11759,0.00393
1166.05742,0.00437
1163.99725,0.00467
1161.93708,0.00495
1159.87691,0.00544
1157.81673,0.00612
1155.75656,0.00675
1153.69639,0.00732
1151.63622,0.00793
1149.57605,0.00860
1147.51587,0.00921
1145.45570,0.00979
1143.39553,0.01061
1141.33536,0.01169
1139.27518,0.01277
1137.21501,0.01369
1135.15484,0.01450
1133.09467,0.01522
1131.03450,0.01603
1128.97432,0.01711
1126.91415,0.01835
1124.85398,0.01954
1122.79381,0.02064
1120.73364,0.02179
1118.67346,0.02296
1116.61329,0.02398
1114.55312,0.02501
1112.49295,0.02623
1110.43277,0.02755
1108.37260,0.02875
1106.31243,0.02967
1104.25226,0.03047
1102.19209,0.03136
1100.13191,0.03228
1098.07174,0.03319
1096.01157,0.03410
1093.95140,0.03496
1091.89123,0.03573
1089.83105,0.03643
1087.77088,0.03719
1085.71071,0.03794
1083.65054,0.03850
1081.59037,0.03900
1079.53019,0.03967
1077.47002,0.04049
1075.40985,0.04121
1073.34968,0.04165
1071.28950,0.04192
1069.22933,0.04224
1067.16916,0.04249
1065.10899,0.04239
1063.04882,0.04203
1060.98864,0.04158
1058.92847,0.04111
1056.86830,0.04056
1054.80813,0.03974
1052.74796,0.03858
1050.68778,0.03718
1048.62761,0.03575
1046.56744,0.03445
1044.50727,0.03307
1042.44710,0.03145
1040.38692,0.02982
1038.32675,0.02835
1036.26658,0.02696
1034.20641,0.02559
1032.14623,0.02427
1030.08606,0.02290
1028.02589,0.02152
1025.96572,0.02034
1023.90555,0.01939
1021.84537,0.01856
1019.78520,0.01780
1017.72503,0.01716
1015.66486,0.01683
1013.60469,0.01672
1011.54451,0.01672
1009.48434,0.01695
1007.42417,0.01733
1005.36400,0.01785
1003.30382,0.01858
1001.24365,0.01940
999.18348,0.02005
997.12331,0.02069
995.06314,0.02161
993.00296,0.02267
990.94279,0.02377
988.88262,0.02488
986.82245,0.02578
984.76228,0.02640
982.70210,0.02673
980.64193,0.02687
978.58176,0.02700
976.52159,0.02699
974.46142,0.02673
972.40124,0.02630
970.34107,0.02562
968.28090,0.02468
966.22073,0.02364
964.16055,0.02251
962.10038,0.02138
960.04021,0.02030
957.98004,0.01920
955.91987,0.01807
953.85969,0.01705
951.79952,0.01604
949.73935,0.01495
947.67918,0.01402
945.61901,0.01324
943.55883,0.01242
941.49866,0.01163
939.43849,0.01097
937.37832,0.01045
935.31814,0.00986
933.25797,0.00906
931.19780,0.00834
929.13763,0.00793
927.07746,0.00771
925.01728,0.00755
922.95711,0.00735
920.89694,0.00710
918.83677,0.00680
916.77660,0.00635
914.71642,0.00579
912.65625,0.00525
910.59608,0.00496
908.53591,0.00492
906.47574,0.00494
904.41556,0.00502
902.35539,0.00519
900.29522,0.00536
898.23505,0.00550
896.17487,0.00567
894.11470,0.00589
892.05453,0.00622
889.99436,0.00685
887.93419,0.00760
885.87401,0.00791
883.81384,0.00792
881.75367,0.00823
879.69350,0.00884
877.63333,0.00941
875.57315,0.00993
873.51298,0.01048
871.45281,0.01098
869.39264,0.01144
867.33247,0.01188
865.27229,0.01211
863.21212,0.01222
861.15195,0.01239
859.09178,0.01255
857.03160,0.01276
854.97143,0.01313
852.91126,0.01335
850.85109,0.01299
848.79092,0.01236
846.73074,0.01208
844.67057,0.01205
842.61040,0.01175
840.55023,0.01117
838.49006,0.01076
836.42988,0.01054
834.36971,0.01014
832.30954,0.00939
830.24937,0.00872
828.18919,0.00839
826.12902,0.00797
824.06885,0.00733
822.00868,0.00680
819.94851,0.00651
817.88833,0.00639
815.82816,0.00610
813.76799,0.00572
811.70782,0.00547
809.64765,0.00530
807.58747,0.00505
805.52730,0.00469
803.46713,0.00436
801.40696,0.00413
799.34679,0.00384
797.28661,0.00352
795.22644,0.00339
793.16627,0.00319
791.10610,0.00291
789.04592,0.00325
786.98575,0.00383
784.92558,0.00383
782.86541,0.00355
780.80524,0.00340
778.74506,0.00326
776.68489,0.00306
774.62472,0.00298
772.56455,0.00293
770.50438,0.00288
768.44420,0.00293
766.38403,0.00287
764.32386,0.00253
762.26369,0.00213
760.20352,0.00218
758.14334,0.00239
756.08317,0.00221
754.02300,0.00205
751.96283,0.00232
749.90265,0.00275
747.84248,0.00284
745.78231,0.00288
743.72214,0.00313
741.66197,0.00294
739.60179,0.00250
737.54162,0.00256
735.48145,0.00249
733.42128,0.00197
731.36111,0.00163
729.30093,0.00154
727.24076,0.00166
725.18059,0.00198
723.12042,0.00219
721.06024,0.00219
719.00007,0.00196
716.93990,0.00156
714.87973,0.00144
712.81956,0.00169
710.75938,0.00192
708.69921,0.00213
706.63904,0.00229
704.57887,0.00215
702.51870,0.00186
700.45852,0.00181
698.39835,0.00208
696.33818,0.00246
694.27801,0.00264
692.21784,0.00241
690.15766,0.00190
688.09749,0.00160
686.03732,0.00177
683.97715,0.00214
681.91697,0.00248
679.85680,0.00316
677.79663,0.00421
675.73646,0.00491
673.67629,0.00482
671.61611,0.00431
669.55594,0.00388
667.49577,0.00355
665.43560,0.00314
663.37543,0.00286
661.31525,0.00296
659.25508,0.00340
657.19491,0.00363
655.13474,0.00327
653.07457,0.00250
651.01439,0.00184
648.95422,0.00158
646.89405,0.00153
644.83388,0.00176
642.77370,0.00232
640.71353,0.00276
638.65336,0.00263
636.59319,0.00252
634.53302,0.00285
632.47284,0.00263
630.41267,0.00168
628.35250,0.00117
626.29233,0.00141
624.23216,0.00168
622.17198,0.00136
620.11181,0.00026
618.05164,0.00000
615.99147,0.00130
613.93129,0.00213
611.87112,0.00146
609.81095,0.00102
607.75078,0.00133
605.69061,0.00199
603.63043,0.00253
601.57026,0.00171
599.51009,0.00000
