3996.73391,0.00052
3994.67374,0.00052
3992.61357,0.00061
3990.55339,0.00063
3988.49322,0.00032
3986.43305,0.00000
3984.37288,0.00008
3982.31271,0.00038
3980.25253,0.00054
3978.19236,0.00058
3976.13219,0.00063
3974.07202,0.00064
3972.01184,0.00067
3969.95167,0.00070
3967.89150,0.00057
3965.83133,0.00033
3963.77116,0.00023
3961.71098,0.00031
3959.65081,0.00037
3957.59064,0.00034
3955.53047,0.00034
3953.47030,0.00034
3951.41012,0.00020
3949.34995,0.00001
3947.28978,0.00001
3945.22961,0.00020
3943.16943,0.00040
3941.10926,0.00043
3939.04909,0.00030
3936.98892,0.00016
3934.92875,0.00020
3932.86857,0.00031
3930.80840,0.00040
3928.74823,0.00059
3926.68806,0.00080
3924.62789,0.00083
3922.56771,0.00076
3920.50754,0.00061
3918.44737,0.00039
3916.38720,0.00034
3914.32703,0.00048
3912.26685,0.00065
3910.20668,0.00079
3908.14651,0.00083
3906.08634,0.00085
3904.02616,0.00097
3901.96599,0.00097
3899.90582,0.00074
3897.84565,0.00071
3895.78548,0.00091
3893.72530,0.00092
3891.66513,0.00071
3889.60496,0.00062
3887.54479,0.00071
3885.48462,0.00070
3883.42444,0.00052
3881.36427,0.00029
3879.30410,0.00009
3877.24393,0.00002
3875.18376,0.00008
3873.12358,0.00018
3871.06341,0.00022
3869.00324,0.00034
3866.94307,0.00071
3864.88289,0.00093
3862.82272,0.00068
3860.76255,0.00036
3858.70238,0.00051
3856.64221,0.00112
3854.58203,0.00159
3852.52186,0.00104
3850.46169,0.00030
3848.40152,0.00042
3846.34135,0.00094
3844.28117,0.00129
3842.22100,0.00136
3840.16083,0.00115
3838.10066,0.00067
3836.04048,0.00040
3833.98031,0.00055
3831.92014,0.00066
3829.85997,0.00049
3827.79980,0.00034
3825.73962,0.00052
3823.67945,0.00106
3821.61928,0.00149
3819.55911,0.00138
3817.49894,0.00101
3815.43876,0.00064
3813.37859,0.00044
3811.31842,0.00060
3809.25825,0.00092
3807.19808,0.00093
3805.13790,0.00069
3803.07773,0.00072
3801.01756,0.00094
3798.95739,0.00103
3796.89721,0.00105
3794.83704,0.00096
3792.77687,0.00087
3790.71670,0.00082
3788.65653,0.00076
3786.59635,0.00065
3784.53618,0.00040
3782.47601,0.00022
3780.41584,0.00045
3778.35567,0.00089
3776.29549,0.00111
3774.23532,0.00121
3772.17515,0.00141
3770.11498,0.00165
3768.05481,0.00165
3765.99463,0.00135
3763.93446,0.00096
3761.87429,0.00076
3759.81412,0.00075
3757.75394,0.00075
3755.69377,0.00078
3753.63360,0.00103
3751.57343,0.00139
3749.51326,0.00140
3747.45308,0.00137
3745.39291,0.00138
3743.33274,0.00081
3741.27257,0.00013
3739.21240,0.00017
3737.15222,0.00052
3735.09205,0.00032
3733.03188,0.00004
3730.97171,0.00032
3728.91153,0.00088
3726.85136,0.00134
3724.79119,0.00154
3722.73102,0.00162
3720.67085,0.00174
3718.61067,0.00171
3716.55050,0.00152
3714.49033,0.00139
3712.43016,0.00118
3710.36999,0.00058
3708.30981,0.00013
3706.24964,0.00023
3704.18947,0.00057
3702.12930,0.00086
3700.06913,0.00107
3698.00895,0.00124
3695.94878,0.00140
3693.88861,0.00165
3691.82844,0.00188
3689.76826,0.00153
3687.70809,0.00066
3685.64792,0.00038
3683.58775,0.00080
3681.52758,0.00139
3679.46740,0.00181
3677.40723,0.00190
3675.34706,0.00167
3673.28689,0.00157
3671.22672,0.00159
3669.16654,0.00156
3667.10637,0.00160
3665.04620,0.00165
3662.98603,0.00162
3660.92586,0.00161
3658.86568,0.00169
3656.80551,0.00183
3654.74534,0.00198
3652.68517,0.00217
3650.62499,0.00246
3648.56482,0.00275
3646.50465,0.00288
3644.44448,0.00299
3642.38431,0.00329
3640.32413,0.00375
3638.26396,0.00413
3636.20379,0.00426
3634.14362,0.00423
3632.08345,0.00424
3630.02327,0.00435
3627.96310,0.00449
3625.90293,0.00475
3623.84276,0.00509
3621.78258,0.00548
3619.72241,0.00583
3617.66224,0.00601
3615.60207,0.00604
3613.54190,0.00598
3611.48172,0.00602
3609.42155,0.00637
3607.36138,0.00691
3605.30121,0.00737
3603.24104,0.00770
3601.18086,0.00806
3599.12069,0.00842
3597.06052,0.00859
3595.00035,0.00858
3592.94018,0.00866
3590.88000,0.00890
3588.81983,0.00894
3586.75966,0.00878
3584.69949,0.00918
3582.63931,0.01013
3580.57914,0.01077
3578.51897,0.01081
3576.45880,0.01074
3574.39863,0.01094
3572.33845,0.01127
3570.27828,0.01148
3568.21811,0.01141
3566.15794,0.01111
3564.09777,0.01120
3562.03759,0.01194
3559.97742,0.01275
3557.91725,0.01314
3555.85708,0.01319
3553.79690,0.01325
3551.73673,0.01340
3549.67656,0.01362
3547.61639,0.01381
3545.55622,0.01387
3543.49604,0.01397
3541.43587,0.01430
3539.37570,0.01473
3537.31553,0.01505
3535.25536,0.01522
3533.19518,0.01542
3531.13501,0.01564
3529.07484,0.01570
3527.01467,0.01570
3524.95450,0.01601
3522.89432,0.01651
3520.83415,0.01687
3518.77398,0.01714
3516.71381,0.01752
3514.65363,0.01783
3512.59346,0.01794
3510.53329,0.01798
3508.47312,0.01810
3506.41295,0.01841
3504.35277,0.01870
3502.29260,0.01882
3500.23243,0.01914
3498.17226,0.01981
3496.11209,0.02033
3494.05191,0.02043
3491.99174,0.02039
3489.93157,0.02056
3487.87140,0.02084
3485.81123,0.02101
3483.75105,0.02110
3481.69088,0.02118
3479.63071,0.02129
3477.57054,0.02160
3475.51036,0.02203
3473.45019,0.02236
3471.39002,0.02250
3469.32985,0.02241
3467.26968,0.02218
3465.20950,0.02213
3463.14933,0.02255
3461.08916,0.02324
3459.02899,0.02373
3456.96882,0.02377
3454.90864,0.02369
3452.84847,0.02386
3450.78830,0.02406
3448.72813,0.02408
3446.66795,0.02416
3444.60778,0.02454
3442.54761,0.02512
3440.48744,0.02553
3438.42727,0.02569
3436.36709,0.02583
3434.30692,0.02602
3432.24675,0.02614
3430.18658,0.02610
3428.12641,0.02614
3426.06623,0.02653
3424.00606,0.02689
3421.94589,0.02680
3419.88572,0.02664
3417.82555,0.02683
3415.76537,0.02711
3413.70520,0.02730
3411.64503,0.02733
3409.58486,0.02714
3407.52468,0.02714
3405.46451,0.02750
3403.40434,0.02771
3401.34417,0.02779
3399.28400,0.02810
3397.22382,0.02851
3395.16365,0.02863
3393.10348,0.02863
3391.04331,0.02864
3388.98314,0.02864
3386.92296,0.02874
3384.86279,0.02901
3382.80262,0.02926
3380.74245,0.02943
3378.68228,0.02952
3376.62210,0.02939
3374.56193,0.02915
3372.50176,0.02915
3370.44159,0.02948
3368.38141,0.02991
3366.32124,0.03011
3364.26107,0.02993
3362.20090,0.02962
3360.14073,0.02968
3358.08055,0.03011
3356.02038,0.03032
3353.96021,0.03019
3351.90004,0.03020
3349.83987,0.03038
3347.77969,0.03059
3345.71952,0.03094
3343.65935,0.03136
3341.59918,0.03153
3339.53900,0.03135
3337.47883,0.03105
3335.41866,0.03086
3333.35849,0.03086
3331.29832,0.03095
3329.23814,0.03101
3327.17797,0.03109
3325.11780,0.03134
3323.05763,0.03167
3320.99746,0.03181
3318.93728,0.03185
3316.87711,0.03191
3314.81694,0.03191
3312.75677,0.03194
3310.69660,0.03214
3308.63642,0.03227
3306.57625,0.03213
3304.51608,0.03204
3302.45591,0.03221
3300.39573,0.03241
3298.33556,0.03245
3296.27539,0.03247
3294.21522,0.03258
3292.15505,0.03260
3290.09487,0.03249
3288.03470,0.03254
3285.97453,0.03273
3283.91436,0.03286
3281.85419,0.03300
3279.79401,0.03309
3277.73384,0.03297
3275.67367,0.03282
3273.61350,0.03290
3271.55333,0.03299
3269.49315,0.03296
3267.43298,0.03302
3265.37281,0.03319
3263.31264,0.03340
3261.25246,0.03348
3259.19229,0.03332
3257.13212,0.03312
3255.07195,0.03301
3253.01178,0.03301
3250.95160,0.03318
3248.89143,0.03345
3246.83126,0.03354
3244.77109,0.03338
3242.71092,0.03326
3240.65074,0.03319
3238.59057,0.03304
3236.53040,0.03302
3234.47023,0.03314
3232.41005,0.03317
3230.34988,0.03320
3228.28971,0.03334
3226.22954,0.03352
3224.16937,0.03347
3222.10919,0.03328
3220.04902,0.03323
3217.98885,0.03326
3215.92868,0.03321
3213.86851,0.03312
3211.80833,0.03312
3209.74816,0.03312
3207.68799,0.03301
3205.62782,0.03302
3203.56765,0.03316
3201.50747,0.03323
3199.44730,0.03324
3197.38713,0.03323
3195.32696,0.03317
3193.26678,0.03307
3191.20661,0.03301
3189.14644,0.03297
3187.08627,0.03287
3185.02610,0.03282
3182.96592,0.03282
3180.90575,0.03262
3178.84558,0.03225
3176.78541,0.03194
3174.72524,0.03183
3172.66506,0.03189
3170.60489,0.03216
3168.54472,0.03245
3166.48455,0.03247
3164.42437,0.03223
3162.36420,0.03213
3160.30403,0.03224
3158.24386,0.03225
3156.18369,0.03208
3154.12351,0.03189
3152.06334,0.03180
3150.00317,0.03188
3147.94300,0.03204
3145.88283,0.03205
3143.82265,0.03183
3141.76248,0.03153
3139.70231,0.03127
3137.64214,0.03114
3135.58197,0.03120
3133.52179,0.03130
3131.46162,0.03133
3129.40145,0.03129
3127.34128,0.03122
3125.28110,0.03109
3123.22093,0.03091
3121.16076,0.03077
3119.10059,0.03069
3117.04042,0.03057
3114.98024,0.03029
3112.92007,0.02990
3110.85990,0.02973
3108.79973,0.02992
3106.73956,0.03009
3104.67938,0.03004
3102.61921,0.02991
3100.55904,0.02981
3098.49887,0.02983
3096.43870,0.02981
3094.37852,0.02950
3092.31835,0.02908
3090.25818,0.02894
3088.19801,0.02899
3086.13783,0.02890
3084.07766,0.02872
3082.01749,0.02873
3079.95732,0.02885
3077.89715,0.02881
3075.83697,0.02865
3073.77680,0.02857
3071.71663,0.02846
3069.65646,0.02820
3067.59629,0.02791
3065.53611,0.02785
3063.47594,0.02786
3061.41577,0.02773
3059.35560,0.02747
3057.29542,0.02719
3055.23525,0.02706
3053.17508,0.02706
3051.11491,0.02709
3049.05474,0.02712
3046.99456,0.02706
3044.93439,0.02685
3042.87422,0.02656
3040.81405,0.02630
3038.75388,0.02611
3036.69370,0.02594
3034.63353,0.02572
3032.57336,0.02544
3030.51319,0.02525
3028.45302,0.02520
3026.39284,0.02508
3024.33267,0.02499
3022.27250,0.02511
3020.21233,0.02525
3018.15215,0.02523
3016.09198,0.02499
3014.03181,0.02469
3011.97164,0.02448
3009.91147,0.02440
3007.85129,0.02434
3005.79112,0.02404
3003.73095,0.02362
3001.67078,0.02352
2999.61061,0.02380
2997.55043,0.02395
2995.49026,0.02371
2993.43009,0.02336
2991.36992,0.02325
2989.30975,0.02324
2987.24957,0.02309
2985.18940,0.02302
2983.12923,0.02315
2981.06906,0.02321
2979.00888,0.02319
2976.94871,0.02323
2974.88854,0.02312
2972.82837,0.02286
2970.76820,0.02266
2968.70802,0.02254
2966.64785,0.02250
2964.58768,0.02268
2962.52751,0.02281
2960.46734,0.02256
2958.40716,0.02224
2956.34699,0.02209
2954.28682,0.02197
2952.22665,0.02190
2950.16647,0.02196
2948.10630,0.02199
2946.04613,0.02188
2943.98596,0.02181
2941.92579,0.02190
2939.86561,0.02198
2937.80544,0.02191
2935.74527,0.02180
2933.68510,0.02175
2931.62493,0.02160
2929.56475,0.02128
2927.50458,0.02100
2925.44441,0.02097
2923.38424,0.02100
2921.32407,0.02089
2919.26389,0.02079
2917.20372,0.02079
2915.14355,0.02066
2913.08338,0.02050
2911.02320,0.02049
2908.96303,0.02036
2906.90286,0.02011
2904.84269,0.02003
2902.78252,0.02005
2900.72234,0.01994
2898.66217,0.01978
2896.60200,0.01969
2894.54183,0.01965
2892.48166,0.01953
2890.42148,0.01940
2888.36131,0.01941
2886.30114,0.01942
2884.24097,0.01924
2882.18080,0.01894
2880.12062,0.01877
2878.06045,0.01877
2876.00028,0.01882
2873.94011,0.01887
2871.87993,0.01886
2869.81976,0.01867
2867.75959,0.01841
2865.69942,0.01829
2863.63925,0.01830
2861.57907,0.01825
2859.51890,0.01811
2857.45873,0.01785
2855.39856,0.01759
2853.33839,0.01756
2851.27821,0.01763
2849.21804,0.01752
2847.15787,0.01729
2845.09770,0.01714
2843.03752,0.01701
2840.97735,0.01686
2838.91718,0.01675
2836.85701,0.01671
2834.79684,0.01665
2832.73666,0.01662
2830.67649,0.01658
2828.61632,0.01640
2826.55615,0.01622
2824.49598,0.01621
2822.43580,0.01617
2820.37563,0.01592
2818.31546,0.01577
2816.25529,0.01583
2814.19512,0.01573
2812.13494,0.01546
2810.07477,0.01534
2808.01460,0.01538
2805.95443,0.01538
2803.89425,0.01529
2801.83408,0.01520
2799.77391,0.01513
2797.71374,0.01503
2795.65357,0.01501
2793.59339,0.01509
2791.53322,0.01515
2789.47305,0.01500
2787.41288,0.01471
2785.35271,0.01456
2783.29253,0.01451
2781.23236,0.01444
2779.17219,0.01440
2777.11202,0.01434
2775.05184,0.01415
2772.99167,0.01399
2770.93150,0.01399
2768.87133,0.01395
2766.81116,0.01382
2764.75098,0.01366
2762.69081,0.01347
2760.63064,0.01335
2758.57047,0.01333
2756.51030,0.01324
2754.45012,0.01309
2752.38995,0.01300
2750.32978,0.01286
2748.26961,0.01272
2746.20944,0.01282
2744.14926,0.01294
2742.08909,0.01282
2740.02892,0.01256
2737.96875,0.01232
2735.90857,0.01219
2733.84840,0.01215
2731.78823,0.01214
2729.72806,0.01210
2727.66789,0.01212
2725.60771,0.01223
2723.54754,0.01219
2721.48737,0.01197
2719.42720,0.01175
2717.36703,0.01158
2715.30685,0.01143
2713.24668,0.01137
2711.18651,0.01140
2709.12634,0.01141
2707.06617,0.01127
2705.00599,0.01114
2702.94582,0.01115
2700.88565,0.01119
2698.82548,0.01115
2696.76530,0.01104
2694.70513,0.01088
2692.64496,0.01076
2690.58479,0.01078
2688.52462,0.01079
2686.46444,0.01056
2684.40427,0.01018
2682.34410,0.00997
2680.28393,0.01000
2678.22376,0.01009
2676.16358,0.01010
2674.10341,0.01005
2672.04324,0.00999
2669.98307,0.00992
2667.92289,0.00990
2665.86272,0.00991
2663.80255,0.00997
2661.74238,0.01010
2659.68221,0.01017
2657.62203,0.01009
2655.56186,0.00994
2653.50169,0.00974
2651.44152,0.00953
2649.38135,0.00940
2647.32117,0.00936
2645.26100,0.00931
2643.20083,0.00930
2641.14066,0.00935
2639.08049,0.00928
2637.02031,0.00913
2634.96014,0.00916
2632.89997,0.00924
2630.83980,0.00909
2628.77962,0.00873
2626.71945,0.00836
2624.65928,0.00826
2622.59911,0.00833
2620.53894,0.00833
2618.47876,0.00822
2616.41859,0.00807
2614.35842,0.00797
2612.29825,0.00790
2610.23808,0.00788
2608.17790,0.00802
2606.11773,0.00817
2604.05756,0.00811
2601.99739,0.00805
2599.93722,0.00808
2597.87704,0.00793
2595.81687,0.00762
2593.75670,0.00747
2591.69653,0.00757
2589.63635,0.00772
2587.57618,0.00778
2585.51601,0.00783
2583.45584,0.00781
2581.39567,0.00751
2579.33549,0.00730
2577.27532,0.00745
2575.21515,0.00760
2573.15498,0.00754
2571.09481,0.00754
2569.03463,0.00764
2566.97446,0.00755
2564.91429,0.00726
2562.85412,0.00707
2560.79394,0.00720
2558.73377,0.00747
2556.67360,0.00760
2554.61343,0.00754
2552.55326,0.00740
2550.49308,0.00729
2548.43291,0.00714
2546.37274,0.00701
2544.31257,0.00707
2542.25240,0.00715
2540.19222,0.00721
2538.13205,0.00734
2536.07188,0.00730
2534.01171,0.00710
2531.95154,0.00710
2529.89136,0.00723
2527.83119,0.00722
2525.77102,0.00707
2523.71085,0.00703
2521.65067,0.00713
2519.59050,0.00716
2517.53033,0.00725
2515.47016,0.00739
2513.40999,0.00738
2511.34981,0.00742
2509.28964,0.00771
2507.22947,0.00774
2505.16930,0.00741
2503.10913,0.00744
2501.04895,0.00771
2498.98878,0.00784
2496.92861,0.00796
2494.86844,0.00790
2492.80827,0.00772
2490.74809,0.00767
2488.68792,0.00751
2486.62775,0.00721
2484.56758,0.00716
2482.50740,0.00741
2480.44723,0.00769
2478.38706,0.00786
2476.32689,0.00791
2474.26672,0.00785
2472.20654,0.00760
2470.14637,0.00738
2468.08620,0.00762
2466.02603,0.00829
2463.96586,0.00866
2461.90568,0.00842
2459.84551,0.00825
2457.78534,0.00853
2455.72517,0.00869
2453.66499,0.00851
2451.60482,0.00834
2449.54465,0.00837
2447.48448,0.00829
2445.42431,0.00815
2443.36413,0.00839
2441.30396,0.00869
2439.24379,0.00855
2437.18362,0.00835
2435.12345,0.00842
2433.06327,0.00843
2431.00310,0.00821
2428.94293,0.00791
2426.88276,0.00777
2424.82259,0.00792
2422.76241,0.00815
2420.70224,0.00823
2418.64207,0.00833
2416.58190,0.00838
2414.52172,0.00821
2412.46155,0.00807
2410.40138,0.00812
2408.34121,0.00816
2406.28104,0.00801
2404.22086,0.00778
2402.16069,0.00769
2400.10052,0.00763
2398.04035,0.00742
2395.98018,0.00739
2393.92000,0.00761
2391.85983,0.00785
2389.79966,0.00794
2387.73949,0.00794
2385.67931,0.00791
2383.61914,0.00780
2381.55897,0.00762
2379.49880,0.00746
2377.43863,0.00749
2375.37845,0.00777
2373.31828,0.00812
2371.25811,0.00834
2369.19794,0.00834
2367.13777,0.00814
2365.07759,0.00836
2363.01742,0.00919
2360.95725,0.00949
2358.89708,0.00886
2356.83691,0.00806
2354.77673,0.00776
2352.71656,0.00789
2350.65639,0.00794
2348.59622,0.00777
2346.53604,0.00759
2344.47587,0.00765
2342.41570,0.00802
2340.35553,0.00855
2338.29536,0.00888
2336.23518,0.00895
2334.17501,0.00901
2332.11484,0.00875
2330.05467,0.00809
2327.99450,0.00796
2325.93432,0.00850
2323.87415,0.00869
2321.81398,0.00836
2319.75381,0.00817
2317.69364,0.00817
2315.63346,0.00808
2313.57329,0.00784
2311.51312,0.00745
2309.45295,0.00707
2307.39277,0.00690
2305.33260,0.00694
2303.27243,0.00712
2301.21226,0.00731
2299.15209,0.00733
2297.09191,0.00715
2295.03174,0.00701
2292.97157,0.00711
2290.91140,0.00737
2288.85123,0.00749
2286.79105,0.00744
2284.73088,0.00736
2282.67071,0.00718
2280.61054,0.00701
2278.55036,0.00718
2276.49019,0.00760
2274.43002,0.00784
2272.36985,0.00760
2270.30968,0.00706
2268.24950,0.00668
2266.18933,0.00669
2264.12916,0.00680
2262.06899,0.00657
2260.00882,0.00623
2257.94864,0.00616
2255.88847,0.00630
2253.82830,0.00657
2251.76813,0.00695
2249.70796,0.00702
2247.64778,0.00663
2245.58761,0.00643
2243.52744,0.00649
2241.46727,0.00639
2239.40709,0.00660
2237.34692,0.00714
2235.28675,0.00755
2233.22658,0.00762
2231.16641,0.00702
2229.10623,0.00595
2227.04606,0.00497
2224.98589,0.00441
2222.92572,0.00431
2220.86555,0.00440
2218.80537,0.00448
2216.74520,0.00437
2214.68503,0.00443
2212.62486,0.00505
2210.56469,0.00576
2208.50451,0.00589
2206.44434,0.00576
2204.38417,0.00591
2202.32400,0.00590
2200.26382,0.00556
2198.20365,0.00556
2196.14348,0.00604
2194.08331,0.00648
2192.02314,0.00660
2189.96296,0.00660
2187.90279,0.00656
2185.84262,0.00618
2183.78245,0.00527
2181.72228,0.00465
2179.66210,0.00474
2177.60193,0.00439
2175.54176,0.00350
2173.48159,0.00316
2171.42141,0.00375
2169.36124,0.00503
2167.30107,0.00581
2165.24090,0.00537
2163.18073,0.00451
2161.12055,0.00317
2159.06038,0.00128
2157.00021,0.00023
2154.94004,0.00084
2152.87987,0.00254
2150.81969,0.00388
2148.75952,0.00401
2146.69935,0.00301
2144.63918,0.00201
2142.57901,0.00171
2140.51883,0.00159
2138.45866,0.00173
2136.39849,0.00216
2134.33832,0.00219
2132.27814,0.00173
2130.21797,0.00152
2128.15780,0.00188
2126.09763,0.00226
2124.03746,0.00276
2121.97728,0.00344
2119.91711,0.00378
2117.85694,0.00381
2115.79677,0.00393
2113.73660,0.00408
2111.67642,0.00390
2109.61625,0.00341
2107.55608,0.00312
2105.49591,0.00327
2103.43573,0.00359
2101.37556,0.00346
2099.31539,0.00297
2097.25522,0.00290
2095.19505,0.00336
2093.13487,0.00388
2091.07470,0.00406
2089.01453,0.00393
2086.95436,0.00396
2084.89419,0.00428
2082.83401,0.00474
2080.77384,0.00502
2078.71367,0.00479
2076.65350,0.00412
2074.59333,0.00338
2072.53315,0.00279
2070.47298,0.00237
2068.41281,0.00241
2066.35264,0.00300
2064.29246,0.00326
2062.23229,0.00275
2060.17212,0.00268
2058.11195,0.00337
2056.05178,0.00355
2053.99160,0.00348
2051.93143,0.00375
2049.87126,0.00348
2047.81109,0.00291
2045.75092,0.00341
2043.69074,0.00475
2041.63057,0.00558
2039.57040,0.00541
2037.51023,0.00463
2035.45006,0.00331
2033.38988,0.00188
2031.32971,0.00135
2029.26954,0.00198
2027.20937,0.00300
2025.14919,0.00327
2023.08902,0.00288
2021.02885,0.00324
2018.96868,0.00392
2016.90851,0.00341
2014.84833,0.00248
2012.78816,0.00212
2010.72799,0.00219
2008.66782,0.00224
2006.60765,0.00212
2004.54747,0.00205
2002.48730,0.00189
2000.42713,0.00167
1998.36696,0.00180
1996.30678,0.00216
1994.24661,0.00248
1992.18644,0.00257
1990.12627,0.00279
1988.06610,0.00326
1986.00592,0.00312
1983.94575,0.00258
1981.88558,0.00275
1979.82541,0.00303
1977.76524,0.00235
1975.70506,0.00125
1973.64489,0.00063
1971.58472,0.00093
1969.52455,0.00179
1967.46438,0.00181
1965.40420,0.00101
1963.34403,0.00050
1961.28386,0.00078
1959.22369,0.00160
1957.16351,0.00180
1955.10334,0.00101
1953.04317,0.00039
1950.98300,0.00058
1948.92283,0.00128
1946.86265,0.00206
1944.80248,0.00219
1942.74231,0.00126
1940.68214,0.00027
1938.62197,0.00025
1936.56179,0.00073
1934.50162,0.00105
1932.44145,0.00145
1930.38128,0.00193
1928.32111,0.00184
1926.26093,0.00139
1924.20076,0.00126
1922.14059,0.00153
1920.08042,0.00198
1918.02024,0.00209
1915.96007,0.00157
1913.89990,0.00120
1911.83973,0.00151
1909.77956,0.00195
1907.71938,0.00210
1905.65921,0.00228
1903.59904,0.00268
1901.53887,0.00294
1899.47870,0.00266
1897.41852,0.00210
1895.35835,0.00178
1893.29818,0.00172
1891.23801,0.00179
1889.17783,0.00195
1887.11766,0.00208
1885.05749,0.00214
1882.99732,0.00207
1880.93715,0.00187
1878.87697,0.00171
1876.81680,0.00181
1874.75663,0.00210
1872.69646,0.00237
1870.63629,0.00248
1868.57611,0.00239
1866.51594,0.00227
1864.45577,0.00234
1862.39560,0.00244
1860.33543,0.00231
1858.27525,0.00207
1856.21508,0.00191
1854.15491,0.00176
1852.09474,0.00168
1850.03456,0.00184
1847.97439,0.00205
1845.91422,0.00197
1843.85405,0.00167
1841.79388,0.00166
1839.73370,0.00187
1837.67353,0.00189
1835.61336,0.00179
1833.55319,0.00182
1831.49302,0.00194
1829.43284,0.00199
1827.37267,0.00203
1825.31250,0.00206
1823.25233,0.00202
1821.19216,0.00195
1819.13198,0.00183
1817.07181,0.00178
1815.01164,0.00199
1812.95147,0.00237
1810.89129,0.00255
1808.83112,0.00251
1806.77095,0.00249
1804.71078,0.00250
1802.65061,0.00236
1800.59043,0.00212
1798.53026,0.00206
1796.47009,0.00227
1794.40992,0.00251
1792.34975,0.00250
1790.28957,0.00233
1788.22940,0.00225
1786.16923,0.00216
1784.10906,0.00213
1782.04888,0.00226
1779.98871,0.00240
1777.92854,0.00252
1775.86837,0.00276
1773.80820,0.00300
1771.74802,0.00282
1769.68785,0.00235
1767.62768,0.00222
1765.56751,0.00260
1763.50734,0.00301
1761.44716,0.00303
1759.38699,0.00283
1757.32682,0.00280
1755.26665,0.00309
1753.20648,0.00354
1751.14630,0.00377
1749.08613,0.00367
1747.02596,0.00362
1744.96579,0.00385
1742.90561,0.00423
1740.84544,0.00447
1738.78527,0.00449
1736.72510,0.00448
1734.66493,0.00448
1732.60475,0.00441
1730.54458,0.00439
1728.48441,0.00450
1726.42424,0.00466
1724.36407,0.00476
1722.30389,0.00490
1720.24372,0.00530
1718.18355,0.00566
1716.12338,0.00536
1714.06320,0.00482
1712.00303,0.00476
1709.94286,0.00515
1707.88269,0.00565
1705.82252,0.00601
1703.76234,0.00622
1701.70217,0.00645
1699.64200,0.00664
1697.58183,0.00682
1695.52166,0.00716
1693.46148,0.00764
1691.40131,0.00815
1689.34114,0.00871
1687.28097,0.00950
1685.22080,0.01048
1683.16062,0.01097
1681.10045,0.01096
1679.04028,0.01111
1676.98011,0.01147
1674.91993,0.01192
1672.85976,0.01250
1670.79959,0.01303
1668.73942,0.01331
1666.67925,0.01369
1664.61907,0.01431
1662.55890,0.01475
1660.49873,0.01490
1658.43856,0.01520
1656.37839,0.01577
1654.31821,0.01619
1652.25804,0.01611
1650.19787,0.01621
1648.13770,0.01644
1646.07753,0.01616
1644.01735,0.01566
1641.95718,0.01555
1639.89701,0.01576
1637.83684,0.01585
1635.77666,0.01527
1633.71649,0.01452
1631.65632,0.01440
1629.59615,0.01453
1627.53598,0.01447
1625.47580,0.01428
1623.41563,0.01403
1621.35546,0.01376
1619.29529,0.01375
1617.23512,0.01381
1615.17494,0.01354
1613.11477,0.01322
1611.05460,0.01308
1608.99443,0.01290
1606.93425,0.01260
1604.87408,0.01237
1602.81391,0.01220
1600.75374,0.01201
1598.69357,0.01190
1596.63339,0.01186
1594.57322,0.01169
1592.51305,0.01132
1590.45288,0.01089
1588.39271,0.01054
1586.33253,0.01027
1584.27236,0.01003
1582.21219,0.00983
1580.15202,0.00977
1578.09185,0.00977
1576.03167,0.00953
1573.97150,0.00919
1571.91133,0.00903
1569.85116,0.00878
1567.79098,0.00833
1565.73081,0.00812
1563.67064,0.00831
1561.61047,0.00876
1559.55030,0.00888
1557.49012,0.00819
1555.42995,0.00766
1553.36978,0.00748
1551.30961,0.00735
1549.24944,0.00720
1547.18926,0.00720
1545.12909,0.00740
1543.06892,0.00765
1541.00875,0.00754
1538.94858,0.00685
1536.88840,0.00645
1534.82823,0.00640
1532.76806,0.00611
1530.70789,0.00575
1528.64771,0.00566
1526.58754,0.00565
1524.52737,0.00563
1522.46720,0.00548
1520.40703,0.00511
1518.34685,0.00481
1516.28668,0.00462
1514.22651,0.00444
1512.16634,0.00444
1510.10617,0.00459
1508.04599,0.00442
1505.98582,0.00370
1503.92565,0.00328
1501.86548,0.00335
1499.80530,0.00361
1497.74513,0.00367
1495.68496,0.00342
1493.62479,0.00329
1491.56462,0.00332
1489.50444,0.00314
1487.44427,0.00272
1485.38410,0.00248
1483.32393,0.00253
1481.26376,0.00267
1479.20358,0.00275
1477.14341,0.00285
1475.08324,0.00301
1473.02307,0.00308
1470.96290,0.00303
1468.90272,0.00304
1466.84255,0.00314
1464.78238,0.00319
1462.72221,0.00327
1460.66203,0.00349
1458.60186,0.00363
1456.54169,0.00341
1454.48152,0.00322
1452.42135,0.00331
1450.36117,0.00348
1448.30100,0.00358
1446.24083,0.00365
1444.18066,0.00372
1442.12049,0.00375
1440.06031,0.00383
1438.00014,0.00387
1435.93997,0.00371
1433.87980,0.00355
1431.81963,0.00356
1429.75945,0.00369
1427.69928,0.00396
1425.63911,0.00426
1423.57894,0.00442
1421.51876,0.00447
1419.45859,0.00448
1417.39842,0.00445
1415.33825,0.00453
1413.27808,0.00473
1411.21790,0.00491
1409.15773,0.00501
1407.09756,0.00497
1405.03739,0.00483
1402.97722,0.00472
1400.91704,0.00468
1398.85687,0.00459
1396.79670,0.00436
1394.73653,0.00413
1392.67635,0.00401
1390.61618,0.00399
1388.55601,0.00398
1386.49584,0.00392
1384.43567,0.00389
1382.37549,0.00386
1380.31532,0.00381
1378.25515,0.00380
1376.19498,0.00381
1374.13481,0.00372
1372.07463,0.00354
1370.01446,0.00343
1367.95429,0.00339
1365.89412,0.00338
1363.83395,0.00331
1361.77377,0.00318
1359.71360,0.00313
1357.65343,0.00319
1355.59326,0.00323
1353.53308,0.00318
1351.47291,0.00310
1349.41274,0.00301
1347.35257,0.00295
1345.29240,0.00293
1343.23222,0.00290
1341.17205,0.00269
1339.11188,0.00242
1337.05171,0.00240
1334.99154,0.00262
1332.93136,0.00277
1330.87119,0.00273
1328.81102,0.00265
1326.75085,0.00265
1324.69067,0.00276
1322.63050,0.00289
1320.57033,0.00287
1318.51016,0.00279
1316.44999,0.00286
1314.38981,0.00303
1312.32964,0.00313
1310.26947,0.00313
1308.20930,0.00306
1306.14913,0.00295
1304.08895,0.00291
1302.02878,0.00298
1299.96861,0.00308
1297.90844,0.00307
1295.84827,0.00303
1293.78809,0.00318
1291.72792,0.00342
1289.66775,0.00349
1287.60758,0.00344
1285.54740,0.00343
1283.48723,0.00345
1281.42706,0.00342
1279.36689,0.00342
1277.30672,0.00347
1275.24654,0.00351
1273.18637,0.00359
1271.12620,0.00370
1269.06603,0.00370
1267.00586,0.00359
1264.94568,0.00351
1262.88551,0.00356
1260.82534,0.00373
1258.76517,0.00382
1256.70500,0.00374
1254.64482,0.00366
1252.58465,0.00371
1250.52448,0.00379
1248.46431,0.00381
1246.40413,0.00380
1244.34396,0.00370
1242.28379,0.00352
1240.22362,0.00339
1238.16345,0.00329
1236.10327,0.00322
1234.04310,0.00312
1231.98293,0.00295
1229.92276,0.00279
1227.86259,0.00270
1225.80241,0.00256
1223.74224,0.00225
1221.68207,0.00191
1219.62190,0.00171
1217.56172,0.00157
1215.50155,0.00135
1213.44138,0.00114
1211.38121,0.00107
1209.32104,0.00104
1207.26086,0.00088
1205.20069,0.00062
1203.14052,0.00050
1201.08035,0.00054
1199.02018,0.00056
1196.96000,0.00044
1194.89983,0.00034
1192.83966,0.00042
1190.77949,0.00064
1188.71932,0.00084
1186.65914,0.00099
1184.59897,0.00119
1182.53880,0.00140
1180.47863,0.00160
1178.41845,0.00185
1176.35828,0.00213
1174.29811,0.00243
1172.23794,0.00287
1170.17777,0.00345
1168.11759,0.00404
1166.05742,0.00449
1163.99725,0.00481
1161.93708,0.00527
1159.87691,0.00597
1157.81673,0.00673
1155.75656,0.00743
1153.69639,0.00809
1151.63622,0.00883
1149.57605,0.00969
1147.51587,0.01050
1145.45570,0.01119
1143.39553,0.01192
1141.33536,0.01286
1139.27518,0.01396
1137.21501,0.01504
1135.15484,0.01609
1133.09467,0.01713
1131.03450,0.01811
1128.97432,0.01917
1126.91415,0.02036
1124.85398,0.02149
1122.79381,0.02250
1120.73364,0.02357
1118.67346,0.02478
1116.61329,0.02600
1114.55312,0.02714
1112.49295,0.02828
1110.43277,0.02947
1108.37260,0.03064
1106.31243,0.03164
1104.25226,0.03252
1102.19209,0.03349
1100.13191,0.03461
1098.07174,0.03563
1096.01157,0.03649
1093.95140,0.03732
1091.89123,0.03818
1089.83105,0.03902
1087.77088,0.03972
1085.71071,0.04029
1083.65054,0.04096
1081.59037,0.04172
1079.53019,0.04245
1077.47002,0.04321
1075.40985,0.04393
1073.34968,0.04445
1071.28950,0.04473
1069.22933,0.04484
1067.16916,0.04490
1065.10899,0.04484
1063.04882,0.04461
1060.98864,0.04423
1058.92847,0.04367
1056.86830,0.04290
1054.80813,0.04189
1052.74796,0.04065
1050.68778,0.03934
1048.62761,0.03806
1046.56744,0.03675
1044.50727,0.03524
1042.44710,0.03348
1040.38692,0.03163
1038.32675,0.02995
1036.26658,0.02849
1034.20641,0.02712
1032.14623,0.02588
1030.08606,0.02466
1028.02589,0.02330
1025.96572,0.02205
1023.90555,0.02103
1021.84537,0.02013
1019.78520,0.01935
1017.72503,0.01879
1015.66486,0.01844
1013.60469,0.01817
1011.54451,0.01805
1009.48434,0.01817
1007.42417,0.01851
1005.36400,0.01902
1003.30382,0.01975
1001.24365,0.02066
999.18348,0.02152
997.12331,0.02229
995.06314,0.02323
993.00296,0.02435
990.94279,0.02544
988.88262,0.02644
986.82245,0.02729
984.76228,0.02790
982.70210,0.02829
980.64193,0.02850
978.58176,0.02852
976.52159,0.02835
974.46142,0.02805
972.40124,0.02767
970.34107,0.02713
968.28090,0.02631
966.22073,0.02529
964.16055,0.02425
962.10038,0.02313
960.04021,0.02196
957.98004,0.02076
955.91987,0.01952
953.85969,0.01834
951.79952,0.01728
949.73935,0.01630
947.67918,0.01537
945.61901,0.01452
943.55883,0.01368
941.49866,0.01277
939.43849,0.01190
937.37832,0.01127
935.31814,0.01066
933.25797,0.00991
931.19780,0.00921
929.13763,0.00876
927.07746,0.00850
925.01728,0.00829
922.95711,0.00812
920.89694,0.00803
918.83677,0.00783
916.77660,0.00732
914.71642,0.00662
912.65625,0.00583
910.59608,0.00524
908.53591,0.00507
906.47574,0.00513
904.41556,0.00534
902.35539,0.00566
900.29522,0.00580
898.23505,0.00582
896.17487,0.00597
894.11470,0.00631
892.05453,0.00680
889.99436,0.00725
887.93419,0.00758
885.87401,0.00777
883.81384,0.00792
881.75367,0.00830
879.69350,0.00892
877.63333,0.00958
875.57315,0.01025
873.51298,0.01092
871.45281,0.01168
869.39264,0.01251
867.33247,0.01307
865.27229,0.01319
863.21212,0.01309
861.15195,0.01303
859.09178,0.01317
857.03160,0.01349
854.97143,0.01392
852.91126,0.01417
850.85109,0.01394
848.79092,0.01353
846.73074,0.01340
844.67057,0.01331
842.61040,0.01276
840.55023,0.01181
838.49006,0.01101
836.42988,0.01079
834.36971,0.01075
832.30954,0.01016
830.24937,0.00917
828.18919,0.00842
826.12902,0.00800
824.06885,0.00784
822.00868,0.00770
819.94851,0.00716
817.88833,0.00635
815.82816,0.00577
813.76799,0.00542
811.70782,0.00523
809.64765,0.00524
807.58747,0.00522
805.52730,0.00506
803.46713,0.00484
801.40696,0.00461
799.34679,0.00437
797.28661,0.00395
795.22644,0.00344
793.16627,0.00327
791.10610,0.00339
789.04592,0.00352
786.98575,0.00367
784.92558,0.00350
782.86541,0.00294
780.80524,0.00250
778.74506,0.00240
776.68489,0.00265
774.62472,0.00307
772.56455,0.00316
770.50438,0.00277
768.44420,0.00220
766.38403,0.00189
764.32386,0.00190
762.26369,0.00193
760.20352,0.00203
758.14334,0.00195
756.08317,0.00146
754.02300,0.00126
751.96283,0.00175
749.90265,0.00222
747.84248,0.00204
745.78231,0.00180
743.72214,0.00188
741.66197,0.00164
739.60179,0.00132
737.54162,0.00148
735.48145,0.00134
733.42128,0.00073
731.36111,0.00063
729.30093,0.00115
727.24076,0.00135
725.18059,0.00113
723.12042,0.00112
721.06024,0.00134
719.00007,0.00154
716.93990,0.00158
714.87973,0.00152
712.81956,0.00146
710.75938,0.00147
708.69921,0.00156
706.63904,0.00163
704.57887,0.00172
702.51870,0.00174
700.45852,0.00137
698.39835,0.00071
696.33818,0.00040
694.27801,0.00072
692.21784,0.00109
690.15766,0.00104
688.09749,0.00101
686.03732,0.00127
683.97715,0.00127
681.91697,0.00107
679.85680,0.00154
677.79663,0.00264
675.73646,0.00338
673.67629,0.00338
671.61611,0.00283
669.55594,0.00208
667.49577,0.00164
665.43560,0.00161
663.37543,0.00176
661.31525,0.00210
659.25508,0.00275
657.19491,0.00332
655.13474,0.00337
653.07457,0.00294
651.01439,0.00225
648.95422,0.00164
646.89405,0.00147
644.83388,0.00174
642.77370,0.00229
640.71353,0.00287
638.65336,0.00302
636.59319,0.00298
634.53302,0.00290
632.47284,0.00221
630.41267,0.00140
628.35250,0.00138
626.29233,0.00150
624.23216,0.00152
622.17198,0.00197
620.11181,0.00113
618.05164,0.00041
615.99147,0.00257
613.93129,0.00413
611.87112,0.00227
609.81095,0.00034
607.75078,0.00000
605.69061,0.00020
603.63043,0.00066
601.57026,0.00065
599.51009,0.00000
