3996.73391,0.00038
3994.67374,0.00025
3992.61357,0.00026
3990.55339,0.00040
3988.49322,0.00034
3986.43305,0.00008
3984.37288,0.00000
3982.31271,0.00012
3980.25253,0.00030
3978.19236,0.00053
3976.13219,0.00071
3974.07202,0.00076
3972.01184,0.00075
3969.95167,0.00075
3967.89150,0.00070
3965.83133,0.00060
3963.77116,0.00055
3961.71098,0.00061
3959.65081,0.00064
3957.59064,0.00060
3955.53047,0.00067
3953.47030,0.00077
3951.41012,0.00057
3949.34995,0.00017
3947.28978,0.00002
3945.22961,0.00021
3943.16943,0.00048
3941.10926,0.00063
3939.04909,0.00059
3936.98892,0.00055
3934.92875,0.00061
3932.86857,0.00053
3930.80840,0.00038
3928.74823,0.00039
3926.68806,0.00035
3924.62789,0.00020
3922.56771,0.00022
3920.50754,0.00030
3918.44737,0.00036
3916.38720,0.00067
3914.32703,0.00114
3912.26685,0.00131
3910.20668,0.00112
3908.14651,0.00078
3906.08634,0.00052
3904.02616,0.00048
3901.96599,0.00051
3899.90582,0.00054
3897.84565,0.00084
3895.78548,0.00111
3893.72530,0.00100
3891.66513,0.00070
3889.60496,0.00058
3887.54479,0.00046
3885.48462,0.00023
3883.42444,0.00004
3881.36427,0.00000
3879.30410,0.00019
3877.24393,0.00041
3875.18376,0.00037
3873.12358,0.00027
3871.06341,0.00029
3869.00324,0.00038
3866.94307,0.00048
3864.88289,0.00060
3862.82272,0.00081
3860.76255,0.00099
3858.70238,0.00101
3856.64221,0.00089
3854.58203,0.00060
3852.52186,0.00019
3850.46169,0.00034
3848.40152,0.00089
3846.34135,0.00127
3844.28117,0.00135
3842.22100,0.00113
3840.16083,0.00064
3838.10066,0.00029
3836.04048,0.00065
3833.98031,0.00134
3831.92014,0.00166
3829.85997,0.00143
3827.79980,0.00098
3825.73962,0.00089
3823.67945,0.00122
3821.61928,0.00141
3819.55911,0.00118
3817.49894,0.00080
3815.43876,0.00059
3813.37859,0.00074
3811.31842,0.00107
3809.25825,0.00129
3807.19808,0.00120
3805.13790,0.00105
3803.07773,0.00122
3801.01756,0.00154
3798.95739,0.00171
3796.89721,0.00174
3794.83704,0.00169
3792.77687,0.00154
3790.71670,0.00141
3788.65653,0.00138
3786.59635,0.00144
3784.53618,0.00162
3782.47601,0.00182
3780.41584,0.00191
3778.35567,0.00196
3776.29549,0.00206
3774.23532,0.00222
3772.17515,0.00245
3770.11498,0.00271
3768.05481,0.00272
3765.99463,0.00240
3763.93446,0.00191
3761.87429,0.00144
3759.81412,0.00123
3757.75394,0.00137
3755.69377,0.00159
3753.63360,0.00159
3751.57343,0.00129
3749.51326,0.00089
3747.45308,0.00091
3745.39291,0.00130
3743.33274,0.00131
3741.27257,0.00070
3739.21240,0.00017
3737.15222,0.00004
3735.09205,0.00040
3733.03188,0.00126
3730.97171,0.00177
3728.91153,0.00157
3726.85136,0.00121
3724.79119,0.00122
3722.73102,0.00155
3720.67085,0.00196
3718.61067,0.00212
3716.55050,0.00201
3714.49033,0.00192
3712.43016,0.00181
3710.36999,0.00139
3708.30981,0.00103
3706.24964,0.00108
3704.18947,0.00138
3702.12930,0.00172
3700.06913,0.00204
3698.00895,0.00226
3695.94878,0.00225
3693.88861,0.00223
3691.82844,0.00231
3689.76826,0.00209
3687.70809,0.00168
3685.64792,0.00176
3683.58775,0.00206
3681.52758,0.00215
3679.46740,0.00209
3677.40723,0.00200
3675.34706,0.00187
3673.28689,0.00183
3671.22672,0.00177
3669.16654,0.00181
3667.10637,0.00216
3665.04620,0.00250
3662.98603,0.00253
3660.92586,0.00242
3658.86568,0.00243
3656.80551,0.00246
3654.74534,0.00229
3652.68517,0.00193
3650.62499,0.00165
3648.56482,0.00179
3646.50465,0.00224
3644.44448,0.00259
3642.38431,0.00287
3640.32413,0.00318
3638.26396,0.00344
3636.20379,0.00361
3634.14362,0.00365
3632.08345,0.00354
3630.02327,0.00334
3627.96310,0.00344
3625.90293,0.00405
3623.84276,0.00473
3621.78258,0.00512
3619.72241,0.00518
3617.66224,0.00518
3615.60207,0.00535
3613.54190,0.00546
3611.48172,0.00536
3609.42155,0.00533
3607.36138,0.00570
3605.30121,0.00624
3603.24104,0.00652
3601.18086,0.00671
3599.12069,0.00694
3597.06052,0.00703
3595.00035,0.00709
3592.94018,0.00740
3590.88000,0.00755
3588.81983,0.00709
3586.75966,0.00675
3584.69949,0.00735
3582.63931,0.00828
3580.57914,0.00881
3578.51897,0.00896
3576.45880,0.00910
3574.39863,0.00937
3572.33845,0.00941
3570.27828,0.00898
3568.21811,0.00848
3566.15794,0.00858
3564.09777,0.00928
3562.03759,0.00991
3559.97742,0.01033
3557.91725,0.01064
3555.85708,0.01077
3553.79690,0.01088
3551.73673,0.01116
3549.67656,0.01134
3547.61639,0.01117
3545.55622,0.01100
3543.49604,0.01132
3541.43587,0.01188
3539.37570,0.01223
3537.31553,0.01240
3535.25536,0.01262
3533.19518,0.01293
3531.13501,0.01318
3529.07484,0.01328
3527.01467,0.01330
3524.95450,0.01343
3522.89432,0.01370
3520.83415,0.01393
3518.77398,0.01414
3516.71381,0.01444
3514.65363,0.01467
3512.59346,0.01461
3510.53329,0.01439
3508.47312,0.01443
3506.41295,0.01481
3504.35277,0.01504
3502.29260,0.01497
3500.23243,0.01514
3498.17226,0.01571
3496.11209,0.01628
3494.05191,0.01664
3491.99174,0.01681
3489.93157,0.01681
3487.87140,0.01682
3485.81123,0.01695
3483.75105,0.01706
3481.69088,0.01714
3479.63071,0.01733
3477.57054,0.01765
3475.51036,0.01797
3473.45019,0.01822
3471.39002,0.01830
3469.32985,0.01821
3467.26968,0.01814
3465.20950,0.01820
3463.14933,0.01839
3461.08916,0.01873
3459.02899,0.01899
3456.96882,0.01896
3454.90864,0.01889
3452.84847,0.01915
3450.78830,0.01944
3448.72813,0.01941
3446.66795,0.01930
3444.60778,0.01947
3442.54761,0.02000
3440.48744,0.02046
3438.42727,0.02037
3436.36709,0.02022
3434.30692,0.02044
3432.24675,0.02069
3430.18658,0.02079
3428.12641,0.02094
3426.06623,0.02114
3424.00606,0.02120
3421.94589,0.02117
3419.88572,0.02132
3417.82555,0.02156
3415.76537,0.02164
3413.70520,0.02163
3411.64503,0.02165
3409.58486,0.02170
3407.52468,0.02192
3405.46451,0.02231
3403.40434,0.02255
3401.34417,0.02253
3399.28400,0.02249
3397.22382,0.02269
3395.16365,0.02296
3393.10348,0.02309
3391.04331,0.02309
3388.98314,0.02304
3386.92296,0.02303
3384.86279,0.02320
3382.80262,0.02341
3380.74245,0.02347
3378.68228,0.02340
3376.62210,0.02333
3374.56193,0.02340
3372.50176,0.02355
3370.44159,0.02361
3368.38141,0.02368
3366.32124,0.02380
3364.26107,0.02370
3362.20090,0.02338
3360.14073,0.02342
3358.08055,0.02391
3356.02038,0.02423
3353.96021,0.02427
3351.90004,0.02432
3349.83987,0.02436
3347.77969,0.02441
3345.71952,0.02455
3343.65935,0.02476
3341.59918,0.02483
3339.53900,0.02473
3337.47883,0.02471
3335.41866,0.02484
3333.35849,0.02486
3331.29832,0.02466
3329.23814,0.02446
3327.17797,0.02452
3325.11780,0.02482
3323.05763,0.02502
3320.99746,0.02503
3318.93728,0.02525
3316.87711,0.02566
3314.81694,0.02574
3312.75677,0.02545
3310.69660,0.02530
3308.63642,0.02541
3306.57625,0.02555
3304.51608,0.02573
3302.45591,0.02582
3300.39573,0.02565
3298.33556,0.02543
3296.27539,0.02542
3294.21522,0.02564
3292.15505,0.02587
3290.09487,0.02589
3288.03470,0.02575
3285.97453,0.02569
3283.91436,0.02583
3281.85419,0.02616
3279.79401,0.02647
3277.73384,0.02645
3275.67367,0.02623
3273.61350,0.02622
3271.55333,0.02636
3269.49315,0.02634
3267.43298,0.02626
3265.37281,0.02628
3263.31264,0.02641
3261.25246,0.02654
3259.19229,0.02656
3257.13212,0.02643
3255.07195,0.02618
3253.01178,0.02603
3250.95160,0.02619
3248.89143,0.02651
3246.83126,0.02666
3244.77109,0.02658
3242.71092,0.02649
3240.65074,0.02644
3238.59057,0.02635
3236.53040,0.02640
3234.47023,0.02658
3232.41005,0.02659
3230.34988,0.02644
3228.28971,0.02640
3226.22954,0.02654
3224.16937,0.02651
3222.10919,0.02634
3220.04902,0.02639
3217.98885,0.02647
3215.92868,0.02635
3213.86851,0.02624
3211.80833,0.02632
3209.74816,0.02644
3207.68799,0.02651
3205.62782,0.02657
3203.56765,0.02655
3201.50747,0.02642
3199.44730,0.02634
3197.38713,0.02644
3195.32696,0.02649
3193.26678,0.02629
3191.20661,0.02614
3189.14644,0.02618
3187.08627,0.02623
3185.02610,0.02622
3182.96592,0.02615
3180.90575,0.02602
3178.84558,0.02586
3176.78541,0.02567
3174.72524,0.02549
3172.66506,0.02548
3170.60489,0.02561
3168.54472,0.02567
3166.48455,0.02562
3164.42437,0.02557
3162.36420,0.02557
3160.30403,0.02557
3158.24386,0.02554
3156.18369,0.02554
3154.12351,0.02558
3152.06334,0.02554
3150.00317,0.02546
3147.94300,0.02546
3145.88283,0.02542
3143.82265,0.02516
3141.76248,0.02490
3139.70231,0.02483
3137.64214,0.02482
3135.58197,0.02482
3133.52179,0.02481
3131.46162,0.02485
3129.40145,0.02487
3127.34128,0.02479
3125.28110,0.02471
3123.22093,0.02457
3121.16076,0.02450
3119.10059,0.02460
3117.04042,0.02455
3114.98024,0.02417
3112.92007,0.02375
3110.85990,0.02359
3108.79973,0.02370
3106.73956,0.02388
3104.67938,0.02403
3102.61921,0.02399
3100.55904,0.02377
3098.49887,0.02367
3096.43870,0.02373
3094.37852,0.02367
3092.31835,0.02348
3090.25818,0.02340
3088.19801,0.02345
3086.13783,0.02338
3084.07766,0.02318
3082.01749,0.02311
3079.95732,0.02312
3077.89715,0.02308
3075.83697,0.02300
3073.77680,0.02283
3071.71663,0.02259
3069.65646,0.02240
3067.59629,0.02224
3065.53611,0.02213
3063.47594,0.02202
3061.41577,0.02187
3059.35560,0.02182
3057.29542,0.02186
3055.23525,0.02179
3053.17508,0.02168
3051.11491,0.02162
3049.05474,0.02144
3046.99456,0.02117
3044.93439,0.02103
3042.87422,0.02101
3040.81405,0.02099
3038.75388,0.02092
3036.69370,0.02078
3034.63353,0.02057
3032.57336,0.02035
3030.51319,0.02021
3028.45302,0.02018
3026.39284,0.02026
3024.33267,0.02037
3022.27250,0.02033
3020.21233,0.02016
3018.15215,0.02008
3016.09198,0.02008
3014.03181,0.02003
3011.97164,0.01991
3009.91147,0.01971
3007.85129,0.01947
3005.79112,0.01922
3003.73095,0.01900
3001.67078,0.01893
2999.61061,0.01902
2997.55043,0.01903
2995.49026,0.01899
2993.43009,0.01895
2991.36992,0.01892
2989.30975,0.01883
2987.24957,0.01861
2985.18940,0.01841
2983.12923,0.01843
2981.06906,0.01853
2979.00888,0.01855
2976.94871,0.01860
2974.88854,0.01860
2972.82837,0.01841
2970.76820,0.01825
2968.70802,0.01825
2966.64785,0.01829
2964.58768,0.01831
2962.52751,0.01824
2960.46734,0.01789
2958.40716,0.01751
2956.34699,0.01749
2954.28682,0.01764
2952.22665,0.01775
2950.16647,0.01785
2948.10630,0.01790
2946.04613,0.01786
2943.98596,0.01775
2941.92579,0.01762
2939.86561,0.01762
2937.80544,0.01763
2935.74527,0.01747
2933.68510,0.01727
2931.62493,0.01717
2929.56475,0.01706
2927.50458,0.01700
2925.44441,0.01718
2923.38424,0.01736
2921.32407,0.01731
2919.26389,0.01719
2917.20372,0.01710
2915.14355,0.01686
2913.08338,0.01660
2911.02320,0.01656
2908.96303,0.01660
2906.90286,0.01658
2904.84269,0.01648
2902.78252,0.01626
2900.72234,0.01612
2898.66217,0.01617
2896.60200,0.01626
2894.54183,0.01627
2892.48166,0.01619
2890.42148,0.01611
2888.36131,0.01610
2886.30114,0.01613
2884.24097,0.01604
2882.18080,0.01571
2880.12062,0.01549
2878.06045,0.01558
2876.00028,0.01573
2873.94011,0.01583
2871.87993,0.01582
2869.81976,0.01561
2867.75959,0.01546
2865.69942,0.01554
2863.63925,0.01555
2861.57907,0.01533
2859.51890,0.01509
2857.45873,0.01496
2855.39856,0.01484
2853.33839,0.01486
2851.27821,0.01492
2849.21804,0.01474
2847.15787,0.01458
2845.09770,0.01462
2843.03752,0.01453
2840.97735,0.01436
2838.91718,0.01424
2836.85701,0.01406
2834.79684,0.01392
2832.73666,0.01385
2830.67649,0.01371
2828.61632,0.01352
2826.55615,0.01346
2824.49598,0.01349
2822.43580,0.01342
2820.37563,0.01325
2818.31546,0.01322
2816.25529,0.01335
2814.19512,0.01336
2812.13494,0.01333
2810.07477,0.01339
2808.01460,0.01344
2805.95443,0.01341
2803.89425,0.01331
2801.83408,0.01320
2799.77391,0.01312
2797.71374,0.01308
2795.65357,0.01301
2793.59339,0.01288
2791.53322,0.01279
2789.47305,0.01262
2787.41288,0.01234
2785.35271,0.01222
2783.29253,0.01228
2781.23236,0.01233
2779.17219,0.01236
2777.11202,0.01231
2775.05184,0.01207
2772.99167,0.01174
2770.93150,0.01164
2768.87133,0.01172
2766.81116,0.01179
2764.75098,0.01175
2762.69081,0.01157
2760.63064,0.01145
2758.57047,0.01150
2756.51030,0.01148
2754.45012,0.01126
2752.38995,0.01103
2750.32978,0.01090
2748.26961,0.01086
2746.20944,0.01098
2744.14926,0.01109
2742.08909,0.01095
2740.02892,0.01067
2737.96875,0.01050
2735.90857,0.01055
2733.84840,0.01061
2731.78823,0.01048
2729.72806,0.01031
2727.66789,0.01039
2725.60771,0.01054
2723.54754,0.01044
2721.48737,0.01011
2719.42720,0.00984
2717.36703,0.00979
2715.30685,0.00980
2713.24668,0.00979
2711.18651,0.00974
2709.12634,0.00964
2707.06617,0.00959
2705.00599,0.00970
2702.94582,0.00973
2700.88565,0.00957
2698.82548,0.00943
2696.76530,0.00937
2694.70513,0.00929
2692.64496,0.00924
2690.58479,0.00920
2688.52462,0.00912
2686.46444,0.00900
2684.40427,0.00886
2682.34410,0.00882
2680.28393,0.00893
2678.22376,0.00903
2676.16358,0.00893
2674.10341,0.00872
2672.04324,0.00861
2669.98307,0.00862
2667.92289,0.00869
2665.86272,0.00873
2663.80255,0.00866
2661.74238,0.00857
2659.68221,0.00862
2657.62203,0.00871
2655.56186,0.00861
2653.50169,0.00837
2651.44152,0.00818
2649.38135,0.00819
2647.32117,0.00819
2645.26100,0.00805
2643.20083,0.00794
2641.14066,0.00794
2639.08049,0.00800
2637.02031,0.00805
2634.96014,0.00801
2632.89997,0.00786
2630.83980,0.00774
2628.77962,0.00774
2626.71945,0.00775
2624.65928,0.00772
2622.59911,0.00759
2620.53894,0.00739
2618.47876,0.00729
2616.41859,0.00733
2614.35842,0.00735
2612.29825,0.00731
2610.23808,0.00731
2608.17790,0.00729
2606.11773,0.00722
2604.05756,0.00714
2601.99739,0.00708
2599.93722,0.00710
2597.87704,0.00714
2595.81687,0.00700
2593.75670,0.00677
2591.69653,0.00689
2589.63635,0.00720
2587.57618,0.00711
2585.51601,0.00689
2583.45584,0.00706
2581.39567,0.00720
2579.33549,0.00706
2577.27532,0.00689
2575.21515,0.00678
2573.15498,0.00668
2571.09481,0.00674
2569.03463,0.00693
2566.97446,0.00697
2564.91429,0.00683
2562.85412,0.00680
2560.79394,0.00698
2558.73377,0.00721
2556.67360,0.00720
2554.61343,0.00712
2552.55326,0.00719
2550.49308,0.00713
2548.43291,0.00679
2546.37274,0.00644
2544.31257,0.00632
2542.25240,0.00642
2540.19222,0.00651
2538.13205,0.00665
2536.07188,0.00687
2534.01171,0.00701
2531.95154,0.00708
2529.89136,0.00713
2527.83119,0.00697
2525.77102,0.00652
2523.71085,0.00629
2521.65067,0.00657
2519.59050,0.00696
2517.53033,0.00717
2515.47016,0.00722
2513.40999,0.00711
2511.34981,0.00695
2509.28964,0.00699
2507.22947,0.00706
2505.16930,0.00698
2503.10913,0.00696
2501.04895,0.00707
2498.98878,0.00724
2496.92861,0.00744
2494.86844,0.00753
2492.80827,0.00743
2490.74809,0.00727
2488.68792,0.00713
2486.62775,0.00705
2484.56758,0.00710
2482.50740,0.00723
2480.44723,0.00732
2478.38706,0.00735
2476.32689,0.00744
2474.26672,0.00752
2472.20654,0.00740
2470.14637,0.00715
2468.08620,0.00732
2466.02603,0.00796
2463.96586,0.00825
2461.90568,0.00792
2459.84551,0.00757
2457.78534,0.00756
2455.72517,0.00783
2453.66499,0.00822
2451.60482,0.00843
2449.54465,0.00835
2447.48448,0.00793
2445.42431,0.00755
2443.36413,0.00761
2441.30396,0.00767
2439.24379,0.00767
2437.18362,0.00786
2435.12345,0.00808
2433.06327,0.00804
2431.00310,0.00772
2428.94293,0.00741
2426.88276,0.00744
2424.82259,0.00778
2422.76241,0.00798
2420.70224,0.00782
2418.64207,0.00762
2416.58190,0.00761
2414.52172,0.00763
2412.46155,0.00765
2410.40138,0.00768
2408.34121,0.00759
2406.28104,0.00744
2404.22086,0.00741
2402.16069,0.00759
2400.10052,0.00764
2398.04035,0.00733
2395.98018,0.00713
2393.92000,0.00720
2391.85983,0.00735
2389.79966,0.00737
2387.73949,0.00719
2385.67931,0.00691
2383.61914,0.00671
2381.55897,0.00666
2379.49880,0.00662
2377.43863,0.00648
2375.37845,0.00646
2373.31828,0.00684
2371.25811,0.00746
2369.19794,0.00791
2367.13777,0.00841
2365.07759,0.00926
2363.01742,0.01019
2360.95725,0.01069
2358.89708,0.01060
2356.83691,0.00960
2354.77673,0.00803
2352.71656,0.00697
2350.65639,0.00686
2348.59622,0.00716
2346.53604,0.00753
2344.47587,0.00819
2342.41570,0.00885
2340.35553,0.00883
2338.29536,0.00820
2336.23518,0.00746
2334.17501,0.00709
2332.11484,0.00725
2330.05467,0.00761
2327.99450,0.00788
2325.93432,0.00799
2323.87415,0.00795
2321.81398,0.00778
2319.75381,0.00724
2317.69364,0.00649
2315.63346,0.00620
2313.57329,0.00644
2311.51312,0.00652
2309.45295,0.00615
2307.39277,0.00580
2305.33260,0.00588
2303.27243,0.00615
2301.21226,0.00628
2299.15209,0.00630
2297.09191,0.00639
2295.03174,0.00667
2292.97157,0.00707
2290.91140,0.00734
2288.85123,0.00731
2286.79105,0.00694
2284.73088,0.00647
2282.67071,0.00634
2280.61054,0.00659
2278.55036,0.00690
2276.49019,0.00701
2274.43002,0.00692
2272.36985,0.00670
2270.30968,0.00644
2268.24950,0.00631
2266.18933,0.00633
2264.12916,0.00624
2262.06899,0.00611
2260.00882,0.00619
2257.94864,0.00625
2255.88847,0.00600
2253.82830,0.00568
2251.76813,0.00579
2249.70796,0.00614
2247.64778,0.00616
2245.58761,0.00595
2243.52744,0.00574
2241.46727,0.00573
2239.40709,0.00599
2237.34692,0.00605
2235.28675,0.00617
2233.22658,0.00661
2231.16641,0.00684
2229.10623,0.00641
2227.04606,0.00528
2224.98589,0.00404
2222.92572,0.00359
2220.86555,0.00393
2218.80537,0.00431
2216.74520,0.00433
2214.68503,0.00434
2212.62486,0.00478
2210.56469,0.00540
2208.50451,0.00558
2206.44434,0.00523
2204.38417,0.00488
2202.32400,0.00483
2200.26382,0.00507
2198.20365,0.00555
2196.14348,0.00610
2194.08331,0.00623
2192.02314,0.00581
2189.96296,0.00569
2187.90279,0.00578
2185.84262,0.00565
2183.78245,0.00543
2181.72228,0.00506
2179.66210,0.00502
2177.60193,0.00530
2175.54176,0.00501
2173.48159,0.00416
2171.42141,0.00361
2169.36124,0.00355
2167.30107,0.00338
2165.24090,0.00316
2163.18073,0.00306
2161.12055,0.00222
2159.06038,0.00122
2157.00021,0.00154
2154.94004,0.00234
2152.87987,0.00220
2150.81969,0.00146
2148.75952,0.00143
2146.69935,0.00195
2144.63918,0.00232
2142.57901,0.00255
2140.51883,0.00236
2138.45866,0.00191
2136.39849,0.00166
2134.33832,0.00164
2132.27814,0.00151
2130.21797,0.00128
2128.15780,0.00141
2126.09763,0.00195
2124.03746,0.00254
2121.97728,0.00309
2119.91711,0.00321
2117.85694,0.00279
2115.79677,0.00248
2113.73660,0.00272
2111.67642,0.00292
2109.61625,0.00272
2107.55608,0.00269
2105.49591,0.00291
2103.43573,0.00310
2101.37556,0.00310
2099.31539,0.00287
2097.25522,0.00289
2095.19505,0.00326
2093.13487,0.00354
2091.07470,0.00364
2089.01453,0.00362
2086.95436,0.00358
2084.89419,0.00350
2082.83401,0.00324
2080.77384,0.00319
2078.71367,0.00346
2076.65350,0.00321
2074.59333,0.00253
2072.53315,0.00229
2070.47298,0.00233
2068.41281,0.00241
2066.35264,0.00251
2064.29246,0.00216
2062.23229,0.00172
2060.17212,0.00206
2058.11195,0.00279
2056.05178,0.00319
2053.99160,0.00354
2051.93143,0.00404
2049.87126,0.00408
2047.81109,0.00345
2045.75092,0.00275
2043.69074,0.00251
2041.63057,0.00273
2039.57040,0.00316
2037.51023,0.00320
2035.45006,0.00243
2033.38988,0.00159
2031.32971,0.00112
2029.26954,0.00109
2027.20937,0.00203
2025.14919,0.00298
2023.08902,0.00292
2021.02885,0.00290
2018.96868,0.00306
2016.90851,0.00269
2014.84833,0.00250
2012.78816,0.00286
2010.72799,0.00341
2008.66782,0.00326
2006.60765,0.00170
2004.54747,0.00035
2002.48730,0.00027
2000.42713,0.00055
1998.36696,0.00120
1996.30678,0.00264
1994.24661,0.00378
1992.18644,0.00356
1990.12627,0.00286
1988.06610,0.00280
1986.00592,0.00282
1983.94575,0.00255
1981.88558,0.00286
1979.82541,0.00351
1977.76524,0.00321
1975.70506,0.00210
1973.64489,0.00111
1971.58472,0.00095
1969.52455,0.00108
1967.46438,0.00056
1965.40420,0.00006
1963.34403,0.00018
1961.28386,0.00077
1959.22369,0.00168
1957.16351,0.00238
1955.10334,0.00247
1953.04317,0.00193
1950.98300,0.00118
1948.92283,0.00108
1946.86265,0.00184
1944.80248,0.00210
1942.74231,0.00118
1940.68214,0.00052
1938.62197,0.00111
1936.56179,0.00199
1934.50162,0.00203
1932.44145,0.00149
1930.38128,0.00122
1928.32111,0.00122
1926.26093,0.00101
1924.20076,0.00081
1922.14059,0.00101
1920.08042,0.00135
1918.02024,0.00137
1915.96007,0.00112
1913.89990,0.00110
1911.83973,0.00153
1909.77956,0.00196
1907.71938,0.00220
1905.65921,0.00246
1903.59904,0.00278
1901.53887,0.00305
1899.47870,0.00300
1897.41852,0.00253
1895.35835,0.00192
1893.29818,0.00149
1891.23801,0.00145
1889.17783,0.00173
1887.11766,0.00191
1885.05749,0.00193
1882.99732,0.00201
1880.93715,0.00207
1878.87697,0.00212
1876.81680,0.00230
1874.75663,0.00249
1872.69646,0.00244
1870.63629,0.00217
1868.57611,0.00188
1866.51594,0.00183
1864.45577,0.00200
1862.39560,0.00212
1860.33543,0.00208
1858.27525,0.00203
1856.21508,0.00207
1854.15491,0.00213
1852.09474,0.00221
1850.03456,0.00230
1847.97439,0.00232
1845.91422,0.00216
1843.85405,0.00191
1841.79388,0.00187
1839.73370,0.00204
1837.67353,0.00222
1835.61336,0.00236
1833.55319,0.00247
1831.49302,0.00248
1829.43284,0.00238
1827.37267,0.00234
1825.31250,0.00243
1823.25233,0.00253
1821.19216,0.00247
1819.13198,0.00228
1817.07181,0.00217
1815.01164,0.00227
1812.95147,0.00241
1810.89129,0.00247
1808.83112,0.00247
1806.77095,0.00246
1804.71078,0.00242
1802.65061,0.00230
1800.59043,0.00215
1798.53026,0.00211
1796.47009,0.00217
1794.40992,0.00219
1792.34975,0.00213
1790.28957,0.00220
1788.22940,0.00244
1786.16923,0.00259
1784.10906,0.00258
1782.04888,0.00256
1779.98871,0.00264
1777.92854,0.00280
1775.86837,0.00292
1773.80820,0.00290
1771.74802,0.00267
1769.68785,0.00233
1767.62768,0.00224
1765.56751,0.00245
1763.50734,0.00265
1761.44716,0.00263
1759.38699,0.00259
1757.32682,0.00275
1755.26665,0.00303
1753.20648,0.00319
1751.14630,0.00308
1749.08613,0.00279
1747.02596,0.00265
1744.96579,0.00284
1742.90561,0.00324
1740.84544,0.00361
1738.78527,0.00379
1736.72510,0.00378
1734.66493,0.00361
1732.60475,0.00341
1730.54458,0.00345
1728.48441,0.00365
1726.42424,0.00374
1724.36407,0.00370
1722.30389,0.00375
1720.24372,0.00394
1718.18355,0.00388
1716.12338,0.00348
1714.06320,0.00330
1712.00303,0.00343
1709.94286,0.00367
1707.88269,0.00382
1705.82252,0.00379
1703.76234,0.00378
1701.70217,0.00403
1699.64200,0.00431
1697.58183,0.00457
1695.52166,0.00499
1693.46148,0.00540
1691.40131,0.00558
1689.34114,0.00577
1687.28097,0.00629
1685.22080,0.00690
1683.16062,0.00711
1681.10045,0.00721
1679.04028,0.00762
1676.98011,0.00809
1674.91993,0.00831
1672.85976,0.00832
1670.79959,0.00833
1668.73942,0.00863
1666.67925,0.00923
1664.61907,0.00982
1662.55890,0.01015
1660.49873,0.01025
1658.43856,0.01029
1656.37839,0.01037
1654.31821,0.01056
1652.25804,0.01076
1650.19787,0.01084
1648.13770,0.01080
1646.07753,0.01072
1644.01735,0.01066
1641.95718,0.01068
1639.89701,0.01073
1637.83684,0.01067
1635.77666,0.01042
1633.71649,0.01027
1631.65632,0.01030
1629.59615,0.01026
1627.53598,0.01008
1625.47580,0.00990
1623.41563,0.00978
1621.35546,0.00972
1619.29529,0.00980
1617.23512,0.00992
1615.17494,0.00986
1613.11477,0.00969
1611.05460,0.00952
1608.99443,0.00936
1606.93425,0.00925
1604.87408,0.00921
1602.81391,0.00912
1600.75374,0.00895
1598.69357,0.00881
1596.63339,0.00870
1594.57322,0.00851
1592.51305,0.00819
1590.45288,0.00792
1588.39271,0.00776
1586.33253,0.00760
1584.27236,0.00735
1582.21219,0.00709
1580.15202,0.00691
1578.09185,0.00673
1576.03167,0.00646
1573.97150,0.00621
1571.91133,0.00603
1569.85116,0.00579
1567.79098,0.00556
1565.73081,0.00546
1563.67064,0.00547
1561.61047,0.00548
1559.55030,0.00521
1557.49012,0.00469
1555.42995,0.00442
1553.36978,0.00430
1551.30961,0.00411
1549.24944,0.00393
1547.18926,0.00379
1545.12909,0.00358
1543.06892,0.00339
1541.00875,0.00347
1538.94858,0.00370
1536.88840,0.00373
1534.82823,0.00358
1532.76806,0.00339
1530.70789,0.00326
1528.64771,0.00303
1526.58754,0.00266
1524.52737,0.00242
1522.46720,0.00225
1520.40703,0.00195
1518.34685,0.00163
1516.28668,0.00141
1514.22651,0.00139
1512.16634,0.00136
1510.10617,0.00103
1508.04599,0.00067
1505.98582,0.00093
1503.92565,0.00135
1501.86548,0.00142
1499.80530,0.00134
1497.74513,0.00129
1495.68496,0.00135
1493.62479,0.00146
1491.56462,0.00130
1489.50444,0.00079
1487.44427,0.00048
1485.38410,0.00059
1483.32393,0.00084
1481.26376,0.00105
1479.20358,0.00109
1477.14341,0.00089
1475.08324,0.00054
1473.02307,0.00042
1470.96290,0.00073
1468.90272,0.00113
1466.84255,0.00135
1464.78238,0.00148
1462.72221,0.00155
1460.66203,0.00143
1458.60186,0.00104
1456.54169,0.00080
1454.48152,0.00115
1452.42135,0.00163
1450.36117,0.00190
1448.30100,0.00197
1446.24083,0.00203
1444.18066,0.00210
1442.12049,0.00209
1440.06031,0.00206
1438.00014,0.00195
1435.93997,0.00173
1433.87980,0.00167
1431.81963,0.00188
1429.75945,0.00225
1427.69928,0.00261
1425.63911,0.00276
1423.57894,0.00271
1421.51876,0.00258
1419.45859,0.00247
1417.39842,0.00255
1415.33825,0.00290
1413.27808,0.00323
1411.21790,0.00336
1409.15773,0.00334
1407.09756,0.00324
1405.03739,0.00309
1402.97722,0.00299
1400.91704,0.00289
1398.85687,0.00268
1396.79670,0.00248
1394.73653,0.00250
1392.67635,0.00274
1390.61618,0.00292
1388.55601,0.00281
1386.49584,0.00264
1384.43567,0.00276
1382.37549,0.00294
1380.31532,0.00292
1378.25515,0.00278
1376.19498,0.00264
1374.13481,0.00252
1372.07463,0.00256
1370.01446,0.00275
1367.95429,0.00290
1365.89412,0.00285
1363.83395,0.00261
1361.77377,0.00246
1359.71360,0.00262
1357.65343,0.00281
1355.59326,0.00284
1353.53308,0.00277
1351.47291,0.00270
1349.41274,0.00261
1347.35257,0.00253
1345.29240,0.00247
1343.23222,0.00225
1341.17205,0.00174
1339.11188,0.00127
1337.05171,0.00133
1334.99154,0.00176
1332.93136,0.00209
1330.87119,0.00212
1328.81102,0.00198
1326.75085,0.00188
1324.69067,0.00189
1322.63050,0.00191
1320.57033,0.00178
1318.51016,0.00158
1316.44999,0.00153
1314.38981,0.00159
1312.32964,0.00169
1310.26947,0.00179
1308.20930,0.00187
1306.14913,0.00198
1304.08895,0.00208
1302.02878,0.00209
1299.96861,0.00204
1297.90844,0.00195
1295.84827,0.00187
1293.78809,0.00190
1291.72792,0.00200
1289.66775,0.00201
1287.60758,0.00196
1285.54740,0.00200
1283.48723,0.00210
1281.42706,0.00218
1279.36689,0.00217
1277.30672,0.00211
1275.24654,0.00207
1273.18637,0.00206
1271.12620,0.00206
1269.06603,0.00202
1267.00586,0.00192
1264.94568,0.00190
1262.88551,0.00199
1260.82534,0.00211
1258.76517,0.00215
1256.70500,0.00208
1254.64482,0.00199
1252.58465,0.00199
1250.52448,0.00202
1248.46431,0.00204
1246.40413,0.00196
1244.34396,0.00176
1242.28379,0.00159
1240.22362,0.00155
1238.16345,0.00156
1236.10327,0.00160
1234.04310,0.00159
1231.98293,0.00152
1229.92276,0.00140
1227.86259,0.00120
1225.80241,0.00091
1223.74224,0.00063
1221.68207,0.00047
1219.62190,0.00041
1217.56172,0.00033
1215.50155,0.00018
1213.44138,0.00007
1211.38121,0.00011
1209.32104,0.00017
1207.26086,0.00008
1205.20069,0.00000
1203.14052,0.00007
1201.08035,0.00022
1199.02018,0.00036
1196.96000,0.00045
1194.89983,0.00052
1192.83966,0.00066
1190.77949,0.00095
1188.71932,0.00147
1186.65914,0.00205
1184.59897,0.00244
1182.53880,0.00262
1180.47863,0.00288
1178.41845,0.00336
1176.35828,0.00388
1174.29811,0.00438
1172.23794,0.00497
1170.17777,0.00560
1168.11759,0.00624
1166.05742,0.00684
1163.99725,0.00742
1161.93708,0.00807
1159.87691,0.00882
1157.81673,0.00956
1155.75656,0.01025
1153.69639,0.01095
1151.63622,0.01168
1149.57605,0.01252
1147.51587,0.01347
1145.45570,0.01440
1143.39553,0.01520
1141.33536,0.01587
1139.27518,0.01649
1137.21501,0.01719
1135.15484,0.01798
1133.09467,0.01869
1131.03450,0.01939
1128.97432,0.02023
1126.91415,0.02105
1124.85398,0.02175
1122.79381,0.02253
1120.73364,0.02343
1118.67346,0.02434
1116.61329,0.02518
1114.55312,0.02591
1112.49295,0.02665
1110.43277,0.02754
1108.37260,0.02845
1106.31243,0.02923
1104.25226,0.02998
1102.19209,0.03075
1100.13191,0.03150
1098.07174,0.03226
1096.01157,0.03313
1093.95140,0.03403
1091.89123,0.03478
1089.83105,0.03536
1087.77088,0.03588
1085.71071,0.03651
1083.65054,0.03725
1081.59037,0.03792
1079.53019,0.03850
1077.47002,0.03914
1075.40985,0.03980
1073.34968,0.04031
1071.28950,0.04064
1069.22933,0.04075
1067.16916,0.04067
1065.10899,0.04045
1063.04882,0.04018
1060.98864,0.03975
1058.92847,0.03900
1056.86830,0.03809
1054.80813,0.03712
1052.74796,0.03608
1050.68778,0.03502
1048.62761,0.03385
1046.56744,0.03258
1044.50727,0.03129
1042.44710,0.02992
1040.38692,0.02853
1038.32675,0.02721
1036.26658,0.02594
1034.20641,0.02466
1032.14623,0.02341
1030.08606,0.02227
1028.02589,0.02126
1025.96572,0.02034
1023.90555,0.01946
1021.84537,0.01868
1019.78520,0.01804
1017.72503,0.01751
1015.66486,0.01720
1013.60469,0.01714
1011.54451,0.01723
1009.48434,0.01732
1007.42417,0.01754
1005.36400,0.01804
1003.30382,0.01876
1001.24365,0.01948
999.18348,0.02004
997.12331,0.02067
995.06314,0.02157
993.00296,0.02252
990.94279,0.02337
988.88262,0.02409
986.82245,0.02478
984.76228,0.02546
982.70210,0.02587
980.64193,0.02597
978.58176,0.02597
976.52159,0.02584
974.46142,0.02571
972.40124,0.02563
970.34107,0.02529
968.28090,0.02463
966.22073,0.02399
964.16055,0.02341
962.10038,0.02263
960.04021,0.02177
957.98004,0.02103
955.91987,0.02031
953.85969,0.01952
951.79952,0.01884
949.73935,0.01824
947.67918,0.01760
945.61901,0.01704
943.55883,0.01655
941.49866,0.01597
939.43849,0.01527
937.37832,0.01477
935.31814,0.01442
933.25797,0.01389
931.19780,0.01333
929.13763,0.01288
927.07746,0.01245
925.01728,0.01208
922.95711,0.01174
920.89694,0.01143
918.83677,0.01111
916.77660,0.01070
914.71642,0.01011
912.65625,0.00944
910.59608,0.00893
908.53591,0.00856
906.47574,0.00837
904.41556,0.00852
902.35539,0.00872
900.29522,0.00871
898.23505,0.00870
896.17487,0.00879
894.11470,0.00909
892.05453,0.00962
889.99436,0.01009
887.93419,0.01049
885.87401,0.01081
883.81384,0.01106
881.75367,0.01141
879.69350,0.01177
877.63333,0.01215
875.57315,0.01297
873.51298,0.01400
871.45281,0.01478
869.39264,0.01540
867.33247,0.01605
865.27229,0.01654
863.21212,0.01676
861.15195,0.01694
859.09178,0.01746
857.03160,0.01830
854.97143,0.01892
852.91126,0.01889
850.85109,0.01865
848.79092,0.01854
846.73074,0.01840
844.67057,0.01814
842.61040,0.01747
840.55023,0.01646
838.49006,0.01579
836.42988,0.01570
834.36971,0.01544
832.30954,0.01439
830.24937,0.01332
828.18919,0.01276
826.12902,0.01227
824.06885,0.01181
822.00868,0.01143
819.94851,0.01098
817.88833,0.01061
815.82816,0.01036
813.76799,0.01008
811.70782,0.00973
809.64765,0.00930
807.58747,0.00886
805.52730,0.00844
803.46713,0.00811
801.40696,0.00791
799.34679,0.00772
797.28661,0.00743
795.22644,0.00696
793.16627,0.00656
791.10610,0.00647
789.04592,0.00673
786.98575,0.00690
784.92558,0.00665
782.86541,0.00615
780.80524,0.00566
778.74506,0.00546
776.68489,0.00555
774.62472,0.00559
772.56455,0.00550
770.50438,0.00537
768.44420,0.00518
766.38403,0.00503
764.32386,0.00488
762.26369,0.00464
760.20352,0.00449
758.14334,0.00453
756.08317,0.00467
754.02300,0.00491
751.96283,0.00508
749.90265,0.00479
747.84248,0.00425
745.78231,0.00418
743.72214,0.00439
741.66197,0.00438
739.60179,0.00447
737.54162,0.00461
735.48145,0.00424
733.42128,0.00366
731.36111,0.00352
729.30093,0.00379
727.24076,0.00412
725.18059,0.00429
723.12042,0.00410
721.06024,0.00359
719.00007,0.00322
716.93990,0.00316
714.87973,0.00333
712.81956,0.00369
710.75938,0.00400
708.69921,0.00401
706.63904,0.00375
704.57887,0.00357
702.51870,0.00368
700.45852,0.00385
698.39835,0.00379
696.33818,0.00350
694.27801,0.00318
692.21784,0.00315
690.15766,0.00346
688.09749,0.00385
686.03732,0.00407
683.97715,0.00423
681.91697,0.00453
679.85680,0.00484
677.79663,0.00507
675.73646,0.00532
673.67629,0.00513
671.61611,0.00402
669.55594,0.00275
667.49577,0.00266
665.43560,0.00318
663.37543,0.00346
661.31525,0.00375
659.25508,0.00436
657.19491,0.00488
655.13474,0.00482
653.07457,0.00445
651.01439,0.00418
648.95422,0.00398
646.89405,0.00391
644.83388,0.00412
642.77370,0.00456
640.71353,0.00502
638.65336,0.00513
636.59319,0.00537
634.53302,0.00567
632.47284,0.00457
630.41267,0.00236
628.35250,0.00127
626.29233,0.00213
624.23216,0.00301
622.17198,0.00237
620.11181,0.00061
618.05164,0.00000
615.99147,0.00157
613.93129,0.00276
611.87112,0.00153
609.81095,0.00014
607.75078,0.00014
605.69061,0.00081
603.63043,0.00129
601.57026,0.00103
599.51009,0.00000
