3996.73391,0.00056
3994.67373,0.00048
3992.61356,0.00044
3990.55339,0.00060
3988.49322,0.00079
3986.43305,0.00075
3984.37287,0.00064
3982.31270,0.00075
3980.25253,0.00103
3978.19236,0.00124
3976.13219,0.00129
3974.07201,0.00122
3972.01184,0.00104
3969.95167,0.00086
3967.89150,0.00091
3965.83133,0.00111
3963.77115,0.00112
3961.71098,0.00093
3959.65081,0.00091
3957.59064,0.00116
3955.53046,0.00153
3953.47029,0.00172
3951.41012,0.00138
3949.34995,0.00051
3947.28978,0.00000
3945.22960,0.00024
3943.16943,0.00053
3941.10926,0.00064
3939.04909,0.00082
3936.98892,0.00096
3934.92874,0.00098
3932.86857,0.00101
3930.80840,0.00126
3928.74823,0.00183
3926.68805,0.00247
3924.62788,0.00271
3922.56771,0.00233
3920.50754,0.00171
3918.44737,0.00110
3916.38719,0.00079
3914.32702,0.00107
3912.26685,0.00162
3910.20668,0.00204
3908.14651,0.00227
3906.08633,0.00210
3904.02616,0.00118
3901.96599,0.00019
3899.90582,0.00012
3897.84565,0.00057
3895.78547,0.00105
3893.72530,0.00133
3891.66513,0.00106
3889.60496,0.00060
3887.54478,0.00051
3885.48461,0.00067
3883.42444,0.00080
3881.36427,0.00087
3879.30410,0.00102
3877.24392,0.00140
3875.18375,0.00154
3873.12358,0.00098
3871.06341,0.00016
3869.00324,-0.00009
3866.94306,0.00037
3864.88289,0.00083
3862.82272,0.00065
3860.76255,0.00028
3858.70237,0.00017
3856.64220,0.00007
3854.58203,0.00000
3852.52186,0.00009
3850.46169,0.00062
3848.40151,0.00110
3846.34134,0.00148
3844.28117,0.00185
3842.22100,0.00206
3840.16083,0.00190
3838.10065,0.00124
3836.04048,0.00089
3833.98031,0.00125
3831.92014,0.00172
3829.85997,0.00210
3827.79979,0.00235
3825.73962,0.00248
3823.67945,0.00277
3821.61928,0.00306
3819.55910,0.00279
3817.49893,0.00252
3815.43876,0.00248
3813.37859,0.00262
3811.31842,0.00292
3809.25824,0.00338
3807.19807,0.00362
3805.13790,0.00359
3803.07773,0.00374
3801.01756,0.00375
3798.95738,0.00338
3796.89721,0.00304
3794.83704,0.00312
3792.77687,0.00373
3790.71670,0.00432
3788.65652,0.00459
3786.59635,0.00473
3784.53618,0.00484
3782.47601,0.00498
3780.41583,0.00500
3778.35566,0.00468
3776.29549,0.00440
3774.23532,0.00447
3772.17515,0.00453
3770.11497,0.00418
3768.05480,0.00370
3765.99463,0.00356
3763.93446,0.00366
3761.87429,0.00382
3759.81411,0.00364
3757.75394,0.00300
3755.69377,0.00261
3753.63360,0.00254
3751.57342,0.00189
3749.51325,0.00061
3747.45308,0.00015
3745.39291,0.00000
3743.33274,0.00021
3741.27256,0.00127
3739.21239,0.00219
3737.15222,0.00235
3735.09205,0.00164
3733.03188,0.00111
3730.97170,0.00143
3728.91153,0.00214
3726.85136,0.00247
3724.79119,0.00223
3722.73102,0.00212
3720.67084,0.00258
3718.61067,0.00311
3716.55050,0.00333
3714.49033,0.00368
3712.43015,0.00416
3710.36998,0.00394
3708.30981,0.00374
3706.24964,0.00413
3704.18947,0.00455
3702.12929,0.00455
3700.06912,0.00428
3698.00895,0.00423
3695.94878,0.00449
3693.88861,0.00517
3691.82843,0.00581
3689.76826,0.00523
3687.70809,0.00400
3685.64792,0.00392
3683.58775,0.00457
3681.52757,0.00520
3679.46740,0.00553
3677.40723,0.00542
3675.34706,0.00469
3673.28688,0.00404
3671.22671,0.00396
3669.16654,0.00383
3667.10637,0.00369
3665.04620,0.00394
3662.98602,0.00439
3660.92585,0.00471
3658.86568,0.00487
3656.80551,0.00486
3654.74534,0.00492
3652.68516,0.00555
3650.62499,0.00607
3648.56482,0.00531
3646.50465,0.00472
3644.44447,0.00493
3642.38430,0.00523
3640.32413,0.00532
3638.26396,0.00532
3636.20379,0.00533
3634.14361,0.00543
3632.08344,0.00561
3630.02327,0.00556
3627.96310,0.00514
3625.90293,0.00519
3623.84275,0.00566
3621.78258,0.00608
3619.72241,0.00613
3617.66224,0.00586
3615.60207,0.00568
3613.54189,0.00540
3611.48172,0.00509
3609.42155,0.00523
3607.36138,0.00591
3605.30120,0.00685
3603.24103,0.00764
3601.18086,0.00806
3599.12069,0.00816
3597.06052,0.00802
3595.00034,0.00761
3592.94017,0.00739
3590.88000,0.00766
3588.81983,0.00799
3586.75966,0.00805
3584.69948,0.00830
3582.63931,0.00869
3580.57914,0.00900
3578.51897,0.00935
3576.45879,0.00970
3574.39862,0.00987
3572.33845,0.00996
3570.27828,0.01010
3568.21811,0.00991
3566.15793,0.00953
3564.09776,0.00982
3562.03759,0.01051
3559.97742,0.01097
3557.91725,0.01128
3555.85707,0.01149
3553.79690,0.01147
3551.73673,0.01128
3549.67656,0.01101
3547.61639,0.01072
3545.55621,0.01078
3543.49604,0.01147
3541.43587,0.01229
3539.37570,0.01272
3537.31552,0.01276
3535.25535,0.01279
3533.19518,0.01311
3531.13501,0.01360
3529.07484,0.01380
3527.01466,0.01352
3524.95449,0.01320
3522.89432,0.01320
3520.83415,0.01340
3518.77398,0.01363
3516.71380,0.01393
3514.65363,0.01437
3512.59346,0.01485
3510.53329,0.01507
3508.47312,0.01506
3506.41294,0.01513
3504.35277,0.01512
3502.29260,0.01484
3500.23243,0.01491
3498.17225,0.01552
3496.11208,0.01601
3494.05191,0.01607
3491.99174,0.01603
3489.93157,0.01613
3487.87139,0.01625
3485.81122,0.01633
3483.75105,0.01648
3481.69088,0.01668
3479.63071,0.01689
3477.57053,0.01712
3475.51036,0.01728
3473.45019,0.01748
3471.39002,0.01774
3469.32984,0.01785
3467.26967,0.01775
3465.20950,0.01763
3463.14933,0.01775
3461.08916,0.01797
3459.02898,0.01813
3456.96881,0.01822
3454.90864,0.01834
3452.84847,0.01848
3450.78830,0.01865
3448.72812,0.01887
3446.66795,0.01904
3444.60778,0.01895
3442.54761,0.01871
3440.48744,0.01867
3438.42726,0.01890
3436.36709,0.01912
3434.30692,0.01931
3432.24675,0.01952
3430.18657,0.01975
3428.12640,0.01995
3426.06623,0.02003
3424.00606,0.01998
3421.94589,0.01997
3419.88571,0.01996
3417.82554,0.02006
3415.76537,0.02037
3413.70520,0.02077
3411.64503,0.02110
3409.58485,0.02134
3407.52468,0.02156
3405.46451,0.02156
3403.40434,0.02136
3401.34416,0.02130
3399.28399,0.02049
3397.22382,0.02041
3395.16365,0.02041
3393.10348,0.02028
3391.04330,0.02029
3388.98313,0.02062
3386.92296,0.02095
3384.86279,0.02102
3382.80262,0.02113
3380.74244,0.02151
3378.68227,0.02199
3376.62210,0.02210
3374.56193,0.02185
3372.50176,0.02164
3370.44158,0.02161
3368.38141,0.02157
3366.32124,0.02149
3364.26107,0.02158
3362.20089,0.02174
3360.14072,0.02183
3358.08055,0.02202
3356.02038,0.02215
3353.96021,0.02199
3351.90003,0.02192
3349.83986,0.02214
3347.77969,0.02235
3345.71952,0.02234
3343.65935,0.02233
3341.59917,0.02247
3339.53900,0.02255
3337.47883,0.02236
3335.41866,0.02222
3333.35849,0.02240
3331.29831,0.02261
3329.23814,0.02269
3327.17797,0.02272
3325.11780,0.02280
3323.05762,0.02301
3320.99745,0.02318
3318.93728,0.02317
3316.87711,0.02312
3314.81694,0.02303
3312.75676,0.02294
3310.69659,0.02295
3308.63642,0.02299
3306.57625,0.02293
3304.51608,0.02292
3302.45590,0.02298
3300.39573,0.02302
3298.33556,0.02311
3296.27539,0.02319
3294.21521,0.02310
3292.15504,0.02291
3290.09487,0.02288
3288.03470,0.02292
3285.97453,0.02291
3283.91435,0.02289
3281.85418,0.02292
3279.79401,0.02298
3277.73384,0.02307
3275.67367,0.02312
3273.61349,0.02306
3271.55332,0.02304
3269.49315,0.02316
3267.43298,0.02325
3265.37281,0.02315
3263.31263,0.02300
3261.25246,0.02299
3259.19229,0.02303
3257.13212,0.02305
3255.07194,0.02309
3253.01177,0.02315
3250.95160,0.02325
3248.89143,0.02331
3246.83126,0.02319
3244.77108,0.02296
3242.71091,0.02274
3240.65074,0.02270
3238.59057,0.02282
3236.53040,0.02292
3234.47022,0.02280
3232.41005,0.02259
3230.34988,0.02250
3228.28971,0.02256
3226.22954,0.02264
3224.16936,0.02262
3222.10919,0.02245
3220.04902,0.02224
3217.98885,0.02224
3215.92867,0.02248
3213.86850,0.02264
3211.80833,0.02252
3209.74816,0.02235
3207.68799,0.02231
3205.62781,0.02225
3203.56764,0.02228
3201.50747,0.02246
3199.44730,0.02242
3197.38713,0.02221
3195.32695,0.02214
3193.26678,0.02209
3191.20661,0.02197
3189.14644,0.02192
3187.08626,0.02196
3185.02609,0.02201
3182.96592,0.02202
3180.90575,0.02185
3178.84558,0.02152
3176.78540,0.02134
3174.72523,0.02137
3172.66506,0.02140
3170.60489,0.02134
3168.54472,0.02139
3166.48454,0.02151
3164.42437,0.02141
3162.36420,0.02114
3160.30403,0.02101
3158.24386,0.02107
3156.18368,0.02117
3154.12351,0.02117
3152.06334,0.02109
3150.00317,0.02107
3147.94299,0.02114
3145.88282,0.02110
3143.82265,0.02085
3141.76248,0.02063
3139.70231,0.02060
3137.64213,0.02057
3135.58196,0.02052
3133.52179,0.02058
3131.46162,0.02070
3129.40145,0.02061
3127.34127,0.02032
3125.28110,0.02004
3123.22093,0.01985
3121.16076,0.01971
3119.10058,0.01960
3117.04041,0.01947
3114.98024,0.01948
3112.92007,0.01962
3110.85990,0.01968
3108.79972,0.01965
3106.73955,0.01969
3104.67938,0.01977
3102.61921,0.01959
3100.55904,0.01918
3098.49886,0.01902
3096.43869,0.01917
3094.37852,0.01931
3092.31835,0.01935
3090.25818,0.01938
3088.19800,0.01923
3086.13783,0.01897
3084.07766,0.01892
3082.01749,0.01896
3079.95731,0.01888
3077.89714,0.01889
3075.83697,0.01912
3073.77680,0.01930
3071.71663,0.01920
3069.65645,0.01891
3067.59628,0.01855
3065.53611,0.01832
3063.47594,0.01827
3061.41577,0.01819
3059.35559,0.01806
3057.29542,0.01806
3055.23525,0.01820
3053.17508,0.01830
3051.11491,0.01819
3049.05473,0.01792
3046.99456,0.01774
3044.93439,0.01773
3042.87422,0.01774
3040.81404,0.01769
3038.75387,0.01756
3036.69370,0.01733
3034.63353,0.01705
3032.57336,0.01683
3030.51318,0.01676
3028.45301,0.01681
3026.39284,0.01687
3024.33267,0.01688
3022.27250,0.01676
3020.21232,0.01656
3018.15215,0.01645
3016.09198,0.01634
3014.03181,0.01623
3011.97163,0.01619
3009.91146,0.01624
3007.85129,0.01627
3005.79112,0.01619
3003.73095,0.01605
3001.67077,0.01597
2999.61060,0.01616
2997.55043,0.01621
2995.49026,0.01605
2993.43009,0.01582
2991.36991,0.01568
2989.30974,0.01555
2987.24957,0.01545
2985.18940,0.01556
2983.12923,0.01584
2981.06905,0.01596
2979.00888,0.01587
2976.94871,0.01583
2974.88854,0.01583
2972.82836,0.01579
2970.76819,0.01585
2968.70802,0.01603
2966.64785,0.01620
2964.58768,0.01634
2962.52750,0.01640
2960.46733,0.01635
2958.40716,0.01630
2956.34699,0.01629
2954.28682,0.01627
2952.22664,0.01630
2950.16647,0.01637
2948.10630,0.01641
2946.04613,0.01645
2943.98596,0.01644
2941.92578,0.01638
2939.86561,0.01638
2937.80544,0.01637
2935.74527,0.01636
2933.68509,0.01652
2931.62492,0.01679
2929.56475,0.01694
2927.50458,0.01686
2925.44441,0.01670
2923.38423,0.01661
2921.32406,0.01649
2919.26389,0.01626
2917.20372,0.01609
2915.14355,0.01602
2913.08337,0.01598
2911.02320,0.01591
2908.96303,0.01574
2906.90286,0.01555
2904.84268,0.01540
2902.78251,0.01534
2900.72234,0.01540
2898.66217,0.01532
2896.60200,0.01511
2894.54182,0.01510
2892.48165,0.01520
2890.42148,0.01513
2888.36131,0.01496
2886.30114,0.01497
2884.24096,0.01518
2882.18079,0.01538
2880.12062,0.01534
2878.06045,0.01516
2876.00028,0.01504
2873.94010,0.01508
2871.87993,0.01519
2869.81976,0.01516
2867.75959,0.01491
2865.69941,0.01462
2863.63924,0.01450
2861.57907,0.01450
2859.51890,0.01451
2857.45873,0.01450
2855.39855,0.01440
2853.33838,0.01429
2851.27821,0.01422
2849.21804,0.01408
2847.15787,0.01385
2845.09769,0.01366
2843.03752,0.01364
2840.97735,0.01362
2838.91718,0.01348
2836.85700,0.01332
2834.79683,0.01316
2832.73666,0.01296
2830.67649,0.01281
2828.61632,0.01274
2826.55614,0.01266
2824.49597,0.01262
2822.43580,0.01253
2820.37563,0.01238
2818.31546,0.01236
2816.25528,0.01245
2814.19511,0.01244
2812.13494,0.01243
2810.07477,0.01243
2808.01460,0.01229
2805.95442,0.01210
2803.89425,0.01204
2801.83408,0.01202
2799.77391,0.01198
2797.71373,0.01196
2795.65356,0.01189
2793.59339,0.01179
2791.53322,0.01176
2789.47305,0.01175
2787.41287,0.01168
2785.35270,0.01153
2783.29253,0.01133
2781.23236,0.01119
2779.17219,0.01113
2777.11201,0.01111
2775.05184,0.01116
2772.99167,0.01119
2770.93150,0.01108
2768.87133,0.01092
2766.81115,0.01088
2764.75098,0.01097
2762.69081,0.01096
2760.63064,0.01078
2758.57046,0.01058
2756.51029,0.01046
2754.45012,0.01041
2752.38995,0.01047
2750.32978,0.01064
2748.26960,0.01069
2746.20943,0.01051
2744.14926,0.01025
2742.08909,0.01020
2740.02892,0.01034
2737.96874,0.01038
2735.90857,0.01022
2733.84840,0.01011
2731.78823,0.01009
2729.72805,0.01002
2727.66788,0.00991
2725.60771,0.00985
2723.54754,0.00984
2721.48737,0.00979
2719.42719,0.00973
2717.36702,0.00969
2715.30685,0.00960
2713.24668,0.00950
2711.18651,0.00946
2709.12633,0.00938
2707.06616,0.00934
2705.00599,0.00942
2702.94582,0.00953
2700.88565,0.00956
2698.82547,0.00942
2696.76530,0.00915
2694.70513,0.00897
2692.64496,0.00893
2690.58478,0.00896
2688.52461,0.00895
2686.46444,0.00894
2684.40427,0.00898
2682.34410,0.00894
2680.28392,0.00889
2678.22375,0.00894
2676.16358,0.00898
2674.10341,0.00887
2672.04324,0.00867
2669.98306,0.00859
2667.92289,0.00858
2665.86272,0.00858
2663.80255,0.00869
2661.74238,0.00878
2659.68220,0.00865
2657.62203,0.00855
2655.56186,0.00861
2653.50169,0.00870
2651.44151,0.00878
2649.38134,0.00879
2647.32117,0.00871
2645.26100,0.00864
2643.20083,0.00865
2641.14065,0.00870
2639.08048,0.00869
2637.02031,0.00858
2634.96014,0.00843
2632.89997,0.00826
2630.83979,0.00806
2628.77962,0.00790
2626.71945,0.00788
2624.65928,0.00800
2622.59910,0.00808
2620.53893,0.00801
2618.47876,0.00792
2616.41859,0.00794
2614.35842,0.00799
2612.29824,0.00784
2610.23807,0.00759
2608.17790,0.00748
2606.11773,0.00750
2604.05756,0.00757
2601.99738,0.00767
2599.93721,0.00770
2597.87704,0.00768
2595.81687,0.00775
2593.75670,0.00774
2591.69652,0.00762
2589.63635,0.00746
2587.57618,0.00736
2585.51601,0.00742
2583.45583,0.00737
2581.39566,0.00714
2579.33549,0.00707
2577.27532,0.00712
2575.21515,0.00700
2573.15497,0.00691
2571.09480,0.00705
2569.03463,0.00730
2566.97446,0.00746
2564.91429,0.00749
2562.85411,0.00746
2560.79394,0.00726
2558.73377,0.00696
2556.67360,0.00684
2554.61342,0.00695
2552.55325,0.00709
2550.49308,0.00713
2548.43291,0.00717
2546.37274,0.00718
2544.31256,0.00696
2542.25239,0.00677
2540.19222,0.00690
2538.13205,0.00710
2536.07188,0.00709
2534.01170,0.00697
2531.95153,0.00694
2529.89136,0.00704
2527.83119,0.00721
2525.77102,0.00723
2523.71084,0.00709
2521.65067,0.00713
2519.59050,0.00725
2517.53033,0.00719
2515.47015,0.00720
2513.40998,0.00741
2511.34981,0.00752
2509.28964,0.00740
2507.22947,0.00726
2505.16929,0.00725
2503.10912,0.00735
2501.04895,0.00733
2498.98878,0.00715
2496.92861,0.00712
2494.86843,0.00741
2492.80826,0.00772
2490.74809,0.00777
2488.68792,0.00761
2486.62775,0.00738
2484.56757,0.00716
2482.50740,0.00705
2480.44723,0.00710
2478.38706,0.00715
2476.32688,0.00719
2474.26671,0.00737
2472.20654,0.00756
2470.14637,0.00768
2468.08620,0.00772
2466.02602,0.00763
2463.96585,0.00764
2461.90568,0.00787
2459.84551,0.00802
2457.78534,0.00806
2455.72516,0.00808
2453.66499,0.00804
2451.60482,0.00802
2449.54465,0.00796
2447.48447,0.00779
2445.42430,0.00768
2443.36413,0.00768
2441.30396,0.00759
2439.24379,0.00734
2437.18361,0.00711
2435.12344,0.00713
2433.06327,0.00730
2431.00310,0.00734
2428.94293,0.00732
2426.88275,0.00744
2424.82258,0.00749
2422.76241,0.00741
2420.70224,0.00742
2418.64207,0.00727
2416.58189,0.00698
2414.52172,0.00712
2412.46155,0.00750
2410.40138,0.00758
2408.34120,0.00734
2406.28103,0.00705
2404.22086,0.00692
2402.16069,0.00706
2400.10052,0.00737
2398.04034,0.00741
2395.98017,0.00722
2393.92000,0.00699
2391.85983,0.00687
2389.79966,0.00680
2387.73948,0.00665
2385.67931,0.00633
2383.61914,0.00595
2381.55897,0.00570
2379.49880,0.00564
2377.43862,0.00565
2375.37845,0.00595
2373.31828,0.00623
2371.25811,0.00650
2369.19793,0.00722
2367.13776,0.00794
2365.07759,0.00852
2363.01742,0.00980
2360.95725,0.00972
2358.89707,0.00975
2356.83690,0.00932
2354.77673,0.00838
2352.71656,0.00720
2350.65639,0.00507
2348.59621,0.00440
2346.53604,0.00779
2344.47587,0.00879
2342.41570,0.00843
2340.35552,0.00811
2338.29535,0.00773
2336.23518,0.00765
2334.17501,0.00757
2332.11484,0.00746
2330.05466,0.00722
2327.99449,0.00737
2325.93432,0.00686
2323.87415,0.00645
2321.81398,0.00566
2319.75380,0.00552
2317.69363,0.00517
2315.63346,0.00513
2313.57329,0.00508
2311.51312,0.00481
2309.45294,0.00479
2307.39277,0.00492
2305.33260,0.00505
2303.27243,0.00524
2301.21225,0.00561
2299.15208,0.00585
2297.09191,0.00587
2295.03174,0.00577
2292.97157,0.00580
2290.91139,0.00623
2288.85122,0.00675
2286.79105,0.00690
2284.73088,0.00663
2282.67071,0.00630
2280.61053,0.00619
2278.55036,0.00611
2276.49019,0.00601
2274.43002,0.00619
2272.36984,0.00661
2270.30967,0.00690
2268.24950,0.00698
2266.18933,0.00684
2264.12916,0.00654
2262.06898,0.00633
2260.00881,0.00611
2257.94864,0.00543
2255.88847,0.00472
2253.82830,0.00468
2251.76812,0.00515
2249.70795,0.00547
2247.64778,0.00552
2245.58761,0.00549
2243.52744,0.00525
2241.46726,0.00506
2239.40709,0.00504
2237.34692,0.00493
2235.28675,0.00474
2233.22657,0.00474
2231.16640,0.00494
2229.10623,0.00507
2227.04606,0.00506
2224.98589,0.00495
2222.92571,0.00500
2220.86554,0.00515
2218.80537,0.00500
2216.74520,0.00470
2214.68503,0.00462
2212.62485,0.00468
2210.56468,0.00487
2208.50451,0.00522
2206.44434,0.00515
2204.38417,0.00453
2202.32399,0.00392
2200.26382,0.00376
2198.20365,0.00416
2196.14348,0.00479
2194.08330,0.00501
2192.02313,0.00495
2189.96296,0.00516
2187.90279,0.00525
2185.84262,0.00465
2183.78244,0.00397
2181.72227,0.00435
2179.66210,0.00527
2177.60193,0.00499
2175.54176,0.00353
2173.48158,0.00274
2171.42141,0.00311
2169.36124,0.00359
2167.30107,0.00418
2165.24089,0.00500
2163.18072,0.00477
2161.12055,0.00279
2159.06038,0.00063
2157.00021,0.00000
2154.94003,0.00058
2152.87986,0.00113
2150.81969,0.00077
2148.75952,0.00001
2146.69935,0.00029
2144.63917,0.00129
2142.57900,0.00157
2140.51883,0.00151
2138.45866,0.00166
2136.39849,0.00160
2134.33831,0.00145
2132.27814,0.00153
2130.21797,0.00168
2128.15780,0.00179
2126.09762,0.00204
2124.03745,0.00246
2121.97728,0.00283
2119.91711,0.00310
2117.85694,0.00333
2115.79676,0.00353
2113.73659,0.00369
2111.67642,0.00366
2109.61625,0.00326
2107.55608,0.00279
2105.49590,0.00276
2103.43573,0.00295
2101.37556,0.00267
2099.31539,0.00233
2097.25521,0.00226
2095.19504,0.00260
2093.13487,0.00264
2091.07470,0.00237
2089.01453,0.00237
2086.95435,0.00264
2084.89418,0.00293
2082.83401,0.00299
2080.77384,0.00306
2078.71367,0.00334
2076.65349,0.00352
2074.59332,0.00345
2072.53315,0.00341
2070.47298,0.00347
2068.41281,0.00341
2066.35263,0.00302
2064.29246,0.00228
2062.23229,0.00176
2060.17212,0.00187
2058.11194,0.00224
2056.05177,0.00260
2053.99160,0.00327
2051.93143,0.00420
2049.87126,0.00517
2047.81108,0.00583
2045.75091,0.00570
2043.69074,0.00504
2041.63057,0.00475
2039.57040,0.00499
2037.51022,0.00529
2035.45005,0.00529
2033.38988,0.00461
2031.32971,0.00392
2029.26954,0.00425
2027.20936,0.00462
2025.14919,0.00404
2023.08902,0.00324
2021.02885,0.00266
2018.96867,0.00246
2016.90850,0.00298
2014.84833,0.00356
2012.78816,0.00373
2010.72799,0.00408
2008.66781,0.00474
2006.60764,0.00495
2004.54747,0.00422
2002.48730,0.00291
2000.42713,0.00175
1998.36695,0.00089
1996.30678,0.00033
1994.24661,0.00047
1992.18644,0.00137
1990.12626,0.00234
1988.06609,0.00252
1986.00592,0.00224
1983.94575,0.00274
1981.88558,0.00412
1979.82540,0.00500
1977.76523,0.00464
1975.70506,0.00400
1973.64489,0.00367
1971.58472,0.00313
1969.52454,0.00245
1967.46437,0.00223
1965.40420,0.00201
1963.34403,0.00125
1961.28386,0.00067
1959.22368,0.00085
1957.16351,0.00096
1955.10334,0.00036
1953.04317,0.00013
1950.98299,0.00102
1948.92282,0.00199
1946.86265,0.00224
1944.80248,0.00208
1942.74231,0.00185
1940.68213,0.00154
1938.62196,0.00120
1936.56179,0.00112
1934.50162,0.00139
1932.44145,0.00160
1930.38127,0.00154
1928.32110,0.00136
1926.26093,0.00129
1924.20076,0.00149
1922.14059,0.00168
1920.08041,0.00181
1918.02024,0.00223
1915.96007,0.00257
1913.89990,0.00261
1911.83972,0.00249
1909.77955,0.00228
1907.71938,0.00210
1905.65921,0.00226
1903.59904,0.00257
1901.53886,0.00263
1899.47869,0.00239
1897.41852,0.00219
1895.35835,0.00223
1893.29818,0.00235
1891.23800,0.00237
1889.17783,0.00226
1887.11766,0.00223
1885.05749,0.00236
1882.99731,0.00250
1880.93714,0.00258
1878.87697,0.00253
1876.81680,0.00233
1874.75663,0.00210
1872.69645,0.00216
1870.63628,0.00259
1868.57611,0.00289
1866.51594,0.00260
1864.45577,0.00227
1862.39559,0.00237
1860.33542,0.00263
1858.27525,0.00269
1856.21508,0.00262
1854.15491,0.00256
1852.09473,0.00254
1850.03456,0.00251
1847.97439,0.00241
1845.91422,0.00222
1843.85404,0.00201
1841.79387,0.00197
1839.73370,0.00216
1837.67353,0.00241
1835.61336,0.00242
1833.55318,0.00242
1831.49301,0.00277
1829.43284,0.00307
1827.37267,0.00303
1825.31250,0.00283
1823.25232,0.00260
1821.19215,0.00246
1819.13198,0.00235
1817.07181,0.00219
1815.01163,0.00214
1812.95146,0.00222
1810.89129,0.00217
1808.83112,0.00202
1806.77095,0.00205
1804.71077,0.00214
1802.65060,0.00205
1800.59043,0.00193
1798.53026,0.00191
1796.47009,0.00196
1794.40991,0.00209
1792.34974,0.00216
1790.28957,0.00204
1788.22940,0.00189
1786.16923,0.00174
1784.10905,0.00173
1782.04888,0.00207
1779.98871,0.00237
1777.92854,0.00237
1775.86836,0.00249
1773.80819,0.00287
1771.74802,0.00275
1769.68785,0.00192
1767.62768,0.00148
1765.56750,0.00180
1763.50733,0.00227
1761.44716,0.00237
1759.38699,0.00220
1757.32682,0.00212
1755.26664,0.00217
1753.20647,0.00232
1751.14630,0.00256
1749.08613,0.00278
1747.02596,0.00282
1744.96578,0.00282
1742.90561,0.00295
1740.84544,0.00304
1738.78527,0.00301
1736.72509,0.00307
1734.66492,0.00306
1732.60475,0.00276
1730.54458,0.00267
1728.48441,0.00266
1726.42423,0.00259
1724.36406,0.00250
1722.30389,0.00262
1720.24372,0.00321
1718.18355,0.00365
1716.12337,0.00292
1714.06320,0.00208
1712.00303,0.00189
1709.94286,0.00227
1707.88268,0.00279
1705.82251,0.00283
1703.76234,0.00255
1701.70217,0.00279
1699.64200,0.00331
1697.58182,0.00329
1695.52165,0.00297
1693.46148,0.00301
1691.40131,0.00349
1689.34114,0.00428
1687.28096,0.00538
1685.22079,0.00665
1683.16062,0.00700
1681.10045,0.00670
1679.04028,0.00679
1676.98010,0.00729
1674.91993,0.00798
1672.85976,0.00891
1670.79959,0.00981
1668.73941,0.01008
1666.67924,0.00997
1664.61907,0.01023
1662.55890,0.01056
1660.49873,0.01038
1658.43855,0.01026
1656.37838,0.01083
1654.31821,0.01171
1652.25804,0.01155
1650.19787,0.01109
1648.13769,0.01102
1646.07752,0.01084
1644.01735,0.01029
1641.95718,0.01009
1639.89701,0.01060
1637.83683,0.01141
1635.77666,0.01147
1633.71649,0.01062
1631.65632,0.00997
1629.59614,0.00989
1627.53597,0.01003
1625.47580,0.01003
1623.41563,0.00976
1621.35546,0.00936
1619.29528,0.00947
1617.23511,0.00990
1615.17494,0.00974
1613.11477,0.00929
1611.05460,0.00919
1608.99442,0.00934
1606.93425,0.00937
1604.87408,0.00931
1602.81391,0.00922
1600.75373,0.00902
1598.69356,0.00882
1596.63339,0.00872
1594.57322,0.00862
1592.51305,0.00844
1590.45287,0.00819
1588.39270,0.00791
1586.33253,0.00764
1584.27236,0.00736
1582.21219,0.00709
1580.15201,0.00715
1578.09184,0.00750
1576.03167,0.00729
1573.97150,0.00638
1571.91133,0.00589
1569.85115,0.00587
1567.79098,0.00551
1565.73081,0.00484
1563.67064,0.00450
1561.61046,0.00506
1559.55029,0.00567
1557.49012,0.00456
1555.42995,0.00321
1553.36978,0.00261
1551.30960,0.00255
1549.24943,0.00261
1547.18926,0.00272
1545.12909,0.00320
1543.06892,0.00413
1541.00874,0.00482
1538.94857,0.00393
1536.88840,0.00252
1534.82823,0.00193
1532.76805,0.00197
1530.70788,0.00196
1528.64771,0.00193
1526.58754,0.00179
1524.52737,0.00157
1522.46719,0.00148
1520.40702,0.00123
1518.34685,0.00105
1516.28668,0.00084
1514.22651,0.00032
1512.16633,0.00000
1510.10616,0.00045
1508.04599,0.00140
1505.98582,0.00163
1503.92565,0.00099
1501.86547,0.00053
1499.80530,0.00079
1497.74513,0.00126
1495.68496,0.00131
1493.62478,0.00136
1491.56461,0.00174
1489.50444,0.00195
1487.44427,0.00172
1485.38410,0.00157
1483.32392,0.00170
1481.26375,0.00191
1479.20358,0.00205
1477.14341,0.00229
1475.08324,0.00269
1473.02306,0.00291
1470.96289,0.00275
1468.90272,0.00260
1466.84255,0.00280
1464.78238,0.00306
1462.72220,0.00318
1460.66203,0.00370
1458.60186,0.00429
1456.54169,0.00389
1454.48151,0.00323
1452.42134,0.00312
1450.36117,0.00351
1448.30100,0.00400
1446.24083,0.00425
1444.18065,0.00437
1442.12048,0.00447
1440.06031,0.00454
1438.00014,0.00450
1435.93997,0.00435
1433.87979,0.00431
1431.81962,0.00446
1429.75945,0.00466
1427.69928,0.00479
1425.63910,0.00498
1423.57893,0.00510
1421.51876,0.00498
1419.45859,0.00476
1417.39842,0.00477
1415.33824,0.00514
1413.27807,0.00557
1411.21790,0.00591
1409.15773,0.00623
1407.09756,0.00652
1405.03738,0.00656
1402.97721,0.00644
1400.91704,0.00634
1398.85687,0.00611
1396.79670,0.00581
1394.73652,0.00580
1392.67635,0.00597
1390.61618,0.00609
1388.55601,0.00616
1386.49583,0.00628
1384.43566,0.00643
1382.37549,0.00649
1380.31532,0.00649
1378.25515,0.00663
1376.19497,0.00691
1374.13480,0.00692
1372.07463,0.00667
1370.01446,0.00661
1367.95429,0.00673
1365.89411,0.00679
1363.83394,0.00664
1361.77377,0.00635
1359.71360,0.00627
1357.65343,0.00640
1355.59325,0.00650
1353.53308,0.00649
1351.47291,0.00642
1349.41274,0.00629
1347.35256,0.00609
1345.29239,0.00588
1343.23222,0.00566
1341.17205,0.00533
1339.11188,0.00483
1337.05170,0.00461
1334.99153,0.00479
1332.93136,0.00496
1330.87119,0.00495
1328.81102,0.00493
1326.75084,0.00498
1324.69067,0.00500
1322.63050,0.00501
1320.57033,0.00499
1318.51015,0.00476
1316.44998,0.00446
1314.38981,0.00438
1312.32964,0.00453
1310.26947,0.00474
1308.20929,0.00491
1306.14912,0.00496
1304.08895,0.00497
1302.02878,0.00499
1299.96861,0.00498
1297.90843,0.00491
1295.84826,0.00487
1293.78809,0.00490
1291.72792,0.00489
1289.66775,0.00476
1287.60757,0.00465
1285.54740,0.00465
1283.48723,0.00470
1281.42706,0.00466
1279.36688,0.00458
1277.30671,0.00459
1275.24654,0.00464
1273.18637,0.00467
1271.12620,0.00467
1269.06602,0.00463
1267.00585,0.00462
1264.94568,0.00469
1262.88551,0.00484
1260.82534,0.00499
1258.76516,0.00504
1256.70499,0.00505
1254.64482,0.00506
1252.58465,0.00504
1250.52447,0.00496
1248.46430,0.00484
1246.40413,0.00478
1244.34396,0.00475
1242.28379,0.00471
1240.22361,0.00464
1238.16344,0.00457
1236.10327,0.00454
1234.04310,0.00445
1231.98293,0.00429
1229.92275,0.00415
1227.86258,0.00399
1225.80241,0.00379
1223.74224,0.00360
1221.68207,0.00341
1219.62189,0.00324
1217.56172,0.00317
1215.50155,0.00314
1213.44138,0.00300
1211.38120,0.00283
1209.32103,0.00276
1207.26086,0.00277
1205.20069,0.00281
1203.14052,0.00289
1201.08034,0.00299
1199.02017,0.00306
1196.96000,0.00329
1194.89983,0.00363
1192.83966,0.00403
1190.77948,0.00452
1188.71931,0.00503
1186.65914,0.00554
1184.59897,0.00624
1182.53880,0.00700
1180.47862,0.00763
1178.41845,0.00818
1176.35828,0.00876
1174.29811,0.00946
1172.23793,0.01022
1170.17776,0.01092
1168.11759,0.01155
1166.05742,0.01209
1163.99725,0.01269
1161.93707,0.01341
1159.87690,0.01404
1157.81673,0.01454
1155.75656,0.01512
1153.69639,0.01576
1151.63621,0.01642
1149.57604,0.01715
1147.51587,0.01780
1145.45570,0.01828
1143.39552,0.01870
1141.33535,0.01909
1139.27518,0.01945
1137.21501,0.01979
1135.15484,0.02016
1133.09466,0.02068
1131.03449,0.02120
1128.97432,0.02157
1126.91415,0.02195
1124.85398,0.02241
1122.79380,0.02291
1120.73363,0.02344
1118.67346,0.02402
1116.61329,0.02472
1114.55312,0.02538
1112.49294,0.02598
1110.43277,0.02661
1108.37260,0.02716
1106.31243,0.02761
1104.25225,0.02817
1102.19208,0.02890
1100.13191,0.02961
1098.07174,0.03017
1096.01157,0.03067
1093.95139,0.03118
1091.89122,0.03166
1089.83105,0.03217
1087.77088,0.03279
1085.71071,0.03351
1083.65053,0.03418
1081.59036,0.03477
1079.53019,0.03534
1077.47002,0.03583
1075.40985,0.03626
1073.34967,0.03665
1071.28950,0.03689
1069.22933,0.03695
1067.16916,0.03686
1065.10898,0.03659
1063.04881,0.03628
1060.98864,0.03601
1058.92847,0.03569
1056.86830,0.03522
1054.80812,0.03454
1052.74795,0.03373
1050.68778,0.03290
1048.62761,0.03208
1046.56744,0.03117
1044.50726,0.03010
1042.44709,0.02900
1040.38692,0.02802
1038.32675,0.02702
1036.26657,0.02597
1034.20640,0.02490
1032.14623,0.02391
1030.08606,0.02302
1028.02589,0.02208
1025.96571,0.02115
1023.90554,0.02055
1021.84537,0.02019
1019.78520,0.01958
1017.72503,0.01882
1015.66485,0.01833
1013.60468,0.01805
1011.54451,0.01782
1009.48434,0.01775
1007.42417,0.01782
1005.36399,0.01799
1003.30382,0.01835
1001.24365,0.01896
999.18348,0.01971
997.12330,0.02036
995.06313,0.02078
993.00296,0.02106
990.94279,0.02140
988.88262,0.02189
986.82244,0.02236
984.76227,0.02267
982.70210,0.02289
980.64193,0.02309
978.58176,0.02328
976.52158,0.02329
974.46141,0.02309
972.40124,0.02291
970.34107,0.02276
968.28089,0.02255
966.22072,0.02227
964.16055,0.02190
962.10038,0.02142
960.04021,0.02093
957.98003,0.02050
955.91986,0.02005
953.85969,0.01963
951.79952,0.01933
949.73935,0.01902
947.67917,0.01862
945.61900,0.01826
943.55883,0.01792
941.49866,0.01741
939.43849,0.01678
937.37831,0.01626
935.31814,0.01577
933.25797,0.01515
931.19780,0.01458
929.13762,0.01417
927.07745,0.01381
925.01728,0.01332
922.95711,0.01267
920.89694,0.01198
918.83676,0.01144
916.77659,0.01120
914.71642,0.01103
912.65625,0.01071
910.59608,0.01027
908.53590,0.00980
906.47573,0.00946
904.41556,0.00931
902.35539,0.00926
900.29522,0.00928
898.23504,0.00940
896.17487,0.00961
894.11470,0.00985
892.05453,0.01012
889.99435,0.01028
887.93418,0.01042
885.87401,0.01083
883.81384,0.01143
881.75367,0.01206
879.69349,0.01273
877.63332,0.01335
875.57315,0.01401
873.51298,0.01477
871.45281,0.01550
869.39263,0.01620
867.33246,0.01690
865.27229,0.01745
863.21212,0.01784
861.15194,0.01838
859.09177,0.01911
857.03160,0.01961
854.97143,0.01967
852.91126,0.01947
850.85108,0.01923
848.79091,0.01905
846.73074,0.01870
844.67057,0.01796
842.61040,0.01722
840.55022,0.01664
838.49005,0.01612
836.42988,0.01559
834.36971,0.01497
832.30954,0.01440
830.24936,0.01402
828.18919,0.01365
826.12902,0.01317
824.06885,0.01275
822.00867,0.01239
819.94850,0.01178
817.88833,0.01110
815.82816,0.01072
813.76799,0.01033
811.70781,0.00987
809.64764,0.00969
807.58747,0.00961
805.52730,0.00953
803.46713,0.00951
801.40695,0.00925
799.34678,0.00869
797.28661,0.00826
795.22644,0.00823
793.16627,0.00820
791.10609,0.00804
789.04592,0.00804
786.98575,0.00819
784.92558,0.00819
782.86540,0.00792
780.80523,0.00751
778.74506,0.00721
776.68489,0.00716
774.62472,0.00706
772.56454,0.00683
770.50437,0.00667
768.44420,0.00659
766.38403,0.00662
764.32386,0.00658
762.26368,0.00639
760.20351,0.00615
758.14334,0.00600
756.08317,0.00599
754.02299,0.00583
751.96282,0.00553
749.90265,0.00531
747.84248,0.00494
745.78231,0.00454
743.72213,0.00470
741.66196,0.00524
739.60179,0.00544
737.54162,0.00518
735.48145,0.00491
733.42127,0.00484
731.36110,0.00480
729.30093,0.00475
727.24076,0.00481
725.18059,0.00500
723.12041,0.00508
721.06024,0.00560
719.00007,0.00559
716.93990,0.00538
714.87972,0.00510
712.81955,0.00482
710.75938,0.00477
708.69921,0.00489
706.63904,0.00494
704.57886,0.00486
702.51869,0.00469
700.45852,0.00426
698.39835,0.00367
696.33818,0.00354
694.27800,0.00388
692.21783,0.00380
690.15766,0.00323
688.09749,0.00315
686.03731,0.00374
683.97714,0.00408
681.91697,0.00390
679.85680,0.00369
677.79663,0.00356
675.73645,0.00324
673.67628,0.00214
671.61611,0.00009
669.55594,0.00242
667.49577,0.00707
665.43559,0.00070
663.37542,0.00161
661.31525,0.00325
659.25508,0.00362
657.19491,0.00388
655.13473,0.00391
653.07456,0.00334
651.01439,0.00290
648.95422,0.00324
646.89404,0.00344
644.83387,0.00315
642.77370,0.00270
640.71353,0.00286
638.65336,0.00342
636.59318,0.00350
634.53301,0.00310
632.47284,0.00280
630.41267,0.00260
628.35250,0.00219
626.29232,0.00191
624.23215,0.00259
622.17198,0.00326
620.11181,0.00267
618.05164,0.00174
615.99146,0.00171
613.93129,0.00242
611.87112,0.00309
609.81095,0.00270
607.75077,0.00174
605.69060,0.00160
603.63043,0.00176
601.57026,0.00090
599.51009,0.00000
