3996.73391,0.00020
3994.67373,0.00027
3992.61356,0.00040
3990.55339,0.00059
3988.49322,0.00072
3986.43305,0.00070
3984.37287,0.00045
3982.31270,0.00014
3980.25253,0.00010
3978.19236,0.00031
3976.13219,0.00047
3974.07201,0.00045
3972.01184,0.00026
3969.95167,0.00010
3967.89150,0.00017
3965.83133,0.00034
3963.77115,0.00037
3961.71098,0.00023
3959.65081,0.00005
3957.59064,0.00000
3955.53046,0.00018
3953.47029,0.00047
3951.41012,0.00060
3949.34995,0.00055
3947.28978,0.00060
3945.22960,0.00087
3943.16943,0.00107
3941.10926,0.00100
3939.04909,0.00078
3936.98892,0.00060
3934.92874,0.00050
3932.86857,0.00045
3930.80840,0.00057
3928.74823,0.00091
3926.68805,0.00111
3924.62788,0.00102
3922.56771,0.00083
3920.50754,0.00056
3918.44737,0.00027
3916.38719,0.00028
3914.32702,0.00058
3912.26685,0.00090
3910.20668,0.00108
3908.14651,0.00107
3906.08633,0.00095
3904.02616,0.00076
3901.96599,0.00057
3899.90582,0.00053
3897.84565,0.00049
3895.78547,0.00042
3893.72530,0.00054
3891.66513,0.00085
3889.60496,0.00091
3887.54478,0.00067
3885.48461,0.00051
3883.42444,0.00058
3881.36427,0.00074
3879.30410,0.00083
3877.24392,0.00087
3875.18375,0.00098
3873.12358,0.00124
3871.06341,0.00142
3869.00324,0.00126
3866.94306,0.00090
3864.88289,0.00058
3862.82272,0.00038
3860.76255,0.00027
3858.70237,0.00014
3856.64220,0.00000
3854.58203,0.00016
3852.52186,0.00060
3850.46169,0.00084
3848.40151,0.00088
3846.34134,0.00093
3844.28117,0.00084
3842.22100,0.00047
3840.16083,0.00012
3838.10065,0.00007
3836.04048,0.00022
3833.98031,0.00045
3831.92014,0.00067
3829.85997,0.00078
3827.79979,0.00076
3825.73962,0.00067
3823.67945,0.00054
3821.61928,0.00053
3819.55910,0.00068
3817.49893,0.00088
3815.43876,0.00103
3813.37859,0.00099
3811.31842,0.00086
3809.25824,0.00091
3807.19807,0.00110
3805.13790,0.00120
3803.07773,0.00126
3801.01756,0.00138
3798.95738,0.00140
3796.89721,0.00145
3794.83704,0.00160
3792.77687,0.00158
3790.71670,0.00135
3788.65652,0.00118
3786.59635,0.00136
3784.53618,0.00181
3782.47601,0.00208
3780.41583,0.00197
3778.35566,0.00168
3776.29549,0.00153
3774.23532,0.00152
3772.17515,0.00143
3770.11497,0.00128
3768.05480,0.00113
3765.99463,0.00099
3763.93446,0.00086
3761.87429,0.00071
3759.81411,0.00058
3757.75394,0.00050
3755.69377,0.00047
3753.63360,0.00049
3751.57342,0.00058
3749.51325,0.00070
3747.45308,0.00079
3745.39291,0.00076
3743.33274,0.00078
3741.27256,0.00081
3739.21239,0.00063
3737.15222,0.00053
3735.09205,0.00082
3733.03188,0.00120
3730.97170,0.00125
3728.91153,0.00108
3726.85136,0.00078
3724.79119,0.00045
3722.73102,0.00051
3720.67084,0.00087
3718.61067,0.00108
3716.55050,0.00092
3714.49033,0.00069
3712.43015,0.00084
3710.36998,0.00116
3708.30981,0.00144
3706.24964,0.00146
3704.18947,0.00133
3702.12929,0.00135
3700.06912,0.00152
3698.00895,0.00165
3695.94878,0.00172
3693.88861,0.00173
3691.82843,0.00150
3689.76826,0.00120
3687.70809,0.00113
3685.64792,0.00130
3683.58775,0.00139
3681.52757,0.00140
3679.46740,0.00140
3677.40723,0.00155
3675.34706,0.00174
3673.28688,0.00157
3671.22671,0.00137
3669.16654,0.00159
3667.10637,0.00190
3665.04620,0.00193
3662.98602,0.00203
3660.92585,0.00225
3658.86568,0.00223
3656.80551,0.00208
3654.74534,0.00223
3652.68516,0.00278
3650.62499,0.00339
3648.56482,0.00355
3646.50465,0.00329
3644.44447,0.00313
3642.38430,0.00322
3640.32413,0.00345
3638.26396,0.00366
3636.20379,0.00398
3634.14361,0.00446
3632.08344,0.00494
3630.02327,0.00516
3627.96310,0.00500
3625.90293,0.00498
3623.84275,0.00531
3621.78258,0.00564
3619.72241,0.00571
3617.66224,0.00558
3615.60207,0.00539
3613.54189,0.00525
3611.48172,0.00538
3609.42155,0.00572
3607.36138,0.00617
3605.30120,0.00662
3603.24103,0.00677
3601.18086,0.00681
3599.12069,0.00715
3597.06052,0.00774
3595.00034,0.00820
3592.94017,0.00853
3590.88000,0.00857
3588.81983,0.00832
3586.75966,0.00806
3584.69948,0.00822
3582.63931,0.00877
3580.57914,0.00938
3578.51897,0.00976
3576.45879,0.00986
3574.39862,0.00988
3572.33845,0.00992
3570.27828,0.01000
3568.21811,0.01011
3566.15793,0.01025
3564.09776,0.01053
3562.03759,0.01092
3559.97742,0.01121
3557.91725,0.01124
3555.85707,0.01122
3553.79690,0.01149
3551.73673,0.01191
3549.67656,0.01202
3547.61639,0.01197
3545.55621,0.01224
3543.49604,0.01280
3541.43587,0.01330
3539.37570,0.01364
3537.31552,0.01388
3535.25535,0.01409
3533.19518,0.01439
3531.13501,0.01463
3529.07484,0.01465
3527.01466,0.01458
3524.95449,0.01465
3522.89432,0.01483
3520.83415,0.01495
3518.77398,0.01497
3516.71380,0.01493
3514.65363,0.01493
3512.59346,0.01516
3510.53329,0.01565
3508.47312,0.01620
3506.41294,0.01660
3504.35277,0.01677
3502.29260,0.01681
3500.23243,0.01696
3498.17225,0.01730
3496.11208,0.01762
3494.05191,0.01776
3491.99174,0.01778
3489.93157,0.01787
3487.87139,0.01807
3485.81122,0.01838
3483.75105,0.01884
3481.69088,0.01918
3479.63071,0.01913
3477.57053,0.01891
3475.51036,0.01893
3473.45019,0.01926
3471.39002,0.01977
3469.32984,0.02018
3467.26967,0.02028
3465.20950,0.02019
3463.14933,0.02015
3461.08916,0.02034
3459.02898,0.02058
3456.96881,0.02073
3454.90864,0.02088
3452.84847,0.02102
3450.78830,0.02097
3448.72812,0.02089
3446.66795,0.02111
3444.60778,0.02154
3442.54761,0.02187
3440.48744,0.02207
3438.42726,0.02223
3436.36709,0.02246
3434.30692,0.02268
3432.24675,0.02274
3430.18657,0.02268
3428.12640,0.02272
3426.06623,0.02298
3424.00606,0.02331
3421.94589,0.02340
3419.88571,0.02327
3417.82554,0.02328
3415.76537,0.02348
3413.70520,0.02357
3411.64503,0.02365
3409.58485,0.02386
3407.52468,0.02395
3405.46451,0.02394
3403.40434,0.02414
3401.34416,0.02448
3399.28399,0.02460
3397.22382,0.02464
3395.16365,0.02459
3393.10348,0.02463
3391.04330,0.02474
3388.98313,0.02487
3386.92296,0.02505
3384.86279,0.02518
3382.80262,0.02529
3380.74244,0.02552
3378.68227,0.02570
3376.62210,0.02562
3374.56193,0.02551
3372.50176,0.02551
3370.44158,0.02550
3368.38141,0.02549
3366.32124,0.02559
3364.26107,0.02579
3362.20089,0.02601
3360.14072,0.02619
3358.08055,0.02633
3356.02038,0.02641
3353.96021,0.02640
3351.90003,0.02641
3349.83986,0.02652
3347.77969,0.02671
3345.71952,0.02696
3343.65935,0.02708
3341.59917,0.02695
3339.53900,0.02677
3337.47883,0.02670
3335.41866,0.02681
3333.35849,0.02694
3331.29831,0.02691
3329.23814,0.02684
3327.17797,0.02692
3325.11780,0.02713
3323.05762,0.02732
3320.99745,0.02734
3318.93728,0.02726
3316.87711,0.02716
3314.81694,0.02696
3312.75676,0.02679
3310.69659,0.02690
3308.63642,0.02724
3306.57625,0.02751
3304.51608,0.02766
3302.45590,0.02777
3300.39573,0.02779
3298.33556,0.02781
3296.27539,0.02787
3294.21521,0.02789
3292.15504,0.02789
3290.09487,0.02797
3288.03470,0.02813
3285.97453,0.02820
3283.91435,0.02822
3281.85418,0.02829
3279.79401,0.02825
3277.73384,0.02809
3275.67367,0.02811
3273.61349,0.02825
3271.55332,0.02822
3269.49315,0.02816
3267.43298,0.02818
3265.37281,0.02812
3263.31263,0.02803
3261.25246,0.02807
3259.19229,0.02818
3257.13212,0.02825
3255.07194,0.02840
3253.01177,0.02855
3250.95160,0.02855
3248.89143,0.02860
3246.83126,0.02881
3244.77108,0.02891
3242.71091,0.02866
3240.65074,0.02834
3238.59057,0.02828
3236.53040,0.02836
3234.47022,0.02841
3232.41005,0.02842
3230.34988,0.02847
3228.28971,0.02854
3226.22954,0.02846
3224.16936,0.02830
3222.10919,0.02833
3220.04902,0.02846
3217.98885,0.02842
3215.92867,0.02832
3213.86850,0.02831
3211.80833,0.02835
3209.74816,0.02848
3207.68799,0.02856
3205.62781,0.02850
3203.56764,0.02846
3201.50747,0.02836
3199.44730,0.02811
3197.38713,0.02794
3195.32695,0.02802
3193.26678,0.02828
3191.20661,0.02854
3189.14644,0.02856
3187.08626,0.02834
3185.02609,0.02816
3182.96592,0.02821
3180.90575,0.02830
3178.84558,0.02813
3176.78540,0.02790
3174.72523,0.02791
3172.66506,0.02805
3170.60489,0.02808
3168.54472,0.02799
3166.48454,0.02794
3164.42437,0.02791
3162.36420,0.02782
3160.30403,0.02768
3158.24386,0.02747
3156.18368,0.02741
3154.12351,0.02761
3152.06334,0.02771
3150.00317,0.02754
3147.94299,0.02733
3145.88282,0.02728
3143.82265,0.02728
3141.76248,0.02721
3139.70231,0.02717
3137.64213,0.02717
3135.58196,0.02708
3133.52179,0.02699
3131.46162,0.02695
3129.40145,0.02683
3127.34127,0.02666
3125.28110,0.02649
3123.22093,0.02634
3121.16076,0.02616
3119.10058,0.02606
3117.04041,0.02617
3114.98024,0.02633
3112.92007,0.02634
3110.85990,0.02622
3108.79972,0.02610
3106.73955,0.02604
3104.67938,0.02595
3102.61921,0.02578
3100.55904,0.02563
3098.49886,0.02559
3096.43869,0.02565
3094.37852,0.02569
3092.31835,0.02556
3090.25818,0.02535
3088.19800,0.02523
3086.13783,0.02512
3084.07766,0.02495
3082.01749,0.02485
3079.95731,0.02481
3077.89714,0.02476
3075.83697,0.02480
3073.77680,0.02497
3071.71663,0.02500
3069.65645,0.02473
3067.59628,0.02435
3065.53611,0.02414
3063.47594,0.02407
3061.41577,0.02402
3059.35559,0.02402
3057.29542,0.02404
3055.23525,0.02404
3053.17508,0.02399
3051.11491,0.02387
3049.05473,0.02362
3046.99456,0.02334
3044.93439,0.02319
3042.87422,0.02317
3040.81404,0.02317
3038.75387,0.02305
3036.69370,0.02277
3034.63353,0.02251
3032.57336,0.02248
3030.51318,0.02253
3028.45301,0.02243
3026.39284,0.02222
3024.33267,0.02206
3022.27250,0.02199
3020.21232,0.02198
3018.15215,0.02187
3016.09198,0.02169
3014.03181,0.02162
3011.97163,0.02166
3009.91146,0.02154
3007.85129,0.02118
3005.79112,0.02091
3003.73095,0.02095
3001.67077,0.02107
2999.61060,0.02104
2997.55043,0.02087
2995.49026,0.02060
2993.43009,0.02041
2991.36991,0.02046
2989.30974,0.02054
2987.24957,0.02054
2985.18940,0.02048
2983.12923,0.02045
2981.06905,0.02059
2979.00888,0.02067
2976.94871,0.02045
2974.88854,0.02015
2972.82836,0.02000
2970.76819,0.02003
2968.70802,0.02011
2966.64785,0.02007
2964.58768,0.02002
2962.52750,0.01996
2960.46733,0.01987
2958.40716,0.01979
2956.34699,0.01979
2954.28682,0.01987
2952.22664,0.01982
2950.16647,0.01962
2948.10630,0.01944
2946.04613,0.01935
2943.98596,0.01937
2941.92578,0.01948
2939.86561,0.01949
2937.80544,0.01934
2935.74527,0.01905
2933.68509,0.01881
2931.62492,0.01875
2929.56475,0.01874
2927.50458,0.01869
2925.44441,0.01865
2923.38423,0.01870
2921.32406,0.01878
2919.26389,0.01874
2917.20372,0.01858
2915.14355,0.01835
2913.08337,0.01817
2911.02320,0.01809
2908.96303,0.01802
2906.90286,0.01792
2904.84268,0.01781
2902.78251,0.01767
2900.72234,0.01755
2898.66217,0.01750
2896.60200,0.01744
2894.54182,0.01728
2892.48165,0.01708
2890.42148,0.01706
2888.36131,0.01718
2886.30114,0.01718
2884.24096,0.01713
2882.18079,0.01708
2880.12062,0.01692
2878.06045,0.01670
2876.00028,0.01657
2873.94010,0.01655
2871.87993,0.01650
2869.81976,0.01632
2867.75959,0.01613
2865.69941,0.01601
2863.63924,0.01592
2861.57907,0.01591
2859.51890,0.01594
2857.45873,0.01586
2855.39855,0.01575
2853.33838,0.01561
2851.27821,0.01539
2849.21804,0.01531
2847.15787,0.01533
2845.09769,0.01525
2843.03752,0.01508
2840.97735,0.01495
2838.91718,0.01486
2836.85700,0.01478
2834.79683,0.01471
2832.73666,0.01459
2830.67649,0.01449
2828.61632,0.01448
2826.55614,0.01445
2824.49597,0.01440
2822.43580,0.01445
2820.37563,0.01447
2818.31546,0.01427
2816.25528,0.01401
2814.19511,0.01390
2812.13494,0.01382
2810.07477,0.01368
2808.01460,0.01362
2805.95442,0.01365
2803.89425,0.01364
2801.83408,0.01351
2799.77391,0.01334
2797.71373,0.01332
2795.65356,0.01345
2793.59339,0.01349
2791.53322,0.01331
2789.47305,0.01307
2787.41287,0.01289
2785.35270,0.01280
2783.29253,0.01279
2781.23236,0.01271
2779.17219,0.01256
2777.11201,0.01242
2775.05184,0.01228
2772.99167,0.01211
2770.93150,0.01196
2768.87133,0.01193
2766.81115,0.01202
2764.75098,0.01210
2762.69081,0.01206
2760.63064,0.01197
2758.57046,0.01193
2756.51029,0.01198
2754.45012,0.01196
2752.38995,0.01181
2750.32978,0.01175
2748.26960,0.01178
2746.20943,0.01169
2744.14926,0.01148
2742.08909,0.01129
2740.02892,0.01126
2737.96874,0.01133
2735.90857,0.01133
2733.84840,0.01119
2731.78823,0.01101
2729.72805,0.01085
2727.66788,0.01080
2725.60771,0.01080
2723.54754,0.01074
2721.48737,0.01066
2719.42719,0.01068
2717.36702,0.01072
2715.30685,0.01071
2713.24668,0.01061
2711.18651,0.01044
2709.12633,0.01037
2707.06616,0.01043
2705.00599,0.01054
2702.94582,0.01051
2700.88565,0.01033
2698.82547,0.01014
2696.76530,0.00996
2694.70513,0.00988
2692.64496,0.00989
2690.58478,0.00988
2688.52461,0.00978
2686.46444,0.00964
2684.40427,0.00962
2682.34410,0.00973
2680.28392,0.00977
2678.22375,0.00966
2676.16358,0.00953
2674.10341,0.00939
2672.04324,0.00917
2669.98306,0.00906
2667.92289,0.00920
2665.86272,0.00938
2663.80255,0.00940
2661.74238,0.00930
2659.68220,0.00921
2657.62203,0.00916
2655.56186,0.00917
2653.50169,0.00917
2651.44151,0.00902
2649.38134,0.00880
2647.32117,0.00870
2645.26100,0.00871
2643.20083,0.00862
2641.14065,0.00848
2639.08048,0.00848
2637.02031,0.00854
2634.96014,0.00843
2632.89997,0.00829
2630.83979,0.00829
2628.77962,0.00833
2626.71945,0.00832
2624.65928,0.00824
2622.59910,0.00806
2620.53893,0.00781
2618.47876,0.00767
2616.41859,0.00768
2614.35842,0.00776
2612.29824,0.00776
2610.23807,0.00765
2608.17790,0.00760
2606.11773,0.00768
2604.05756,0.00765
2601.99738,0.00741
2599.93721,0.00728
2597.87704,0.00737
2595.81687,0.00739
2593.75670,0.00727
2591.69652,0.00723
2589.63635,0.00729
2587.57618,0.00741
2585.51601,0.00733
2583.45583,0.00706
2581.39566,0.00701
2579.33549,0.00713
2577.27532,0.00711
2575.21515,0.00705
2573.15497,0.00694
2571.09480,0.00681
2569.03463,0.00683
2566.97446,0.00688
2564.91429,0.00686
2562.85411,0.00688
2560.79394,0.00684
2558.73377,0.00675
2556.67360,0.00684
2554.61342,0.00701
2552.55325,0.00715
2550.49308,0.00728
2548.43291,0.00727
2546.37274,0.00722
2544.31256,0.00713
2542.25239,0.00682
2540.19222,0.00655
2538.13205,0.00651
2536.07188,0.00666
2534.01170,0.00678
2531.95153,0.00679
2529.89136,0.00669
2527.83119,0.00656
2525.77102,0.00649
2523.71084,0.00657
2521.65067,0.00665
2519.59050,0.00668
2517.53033,0.00678
2515.47015,0.00706
2513.40998,0.00728
2511.34981,0.00730
2509.28964,0.00732
2507.22947,0.00738
2505.16929,0.00726
2503.10912,0.00699
2501.04895,0.00686
2498.98878,0.00698
2496.92861,0.00705
2494.86843,0.00690
2492.80826,0.00682
2490.74809,0.00686
2488.68792,0.00689
2486.62775,0.00716
2484.56757,0.00759
2482.50740,0.00767
2480.44723,0.00748
2478.38706,0.00735
2476.32688,0.00740
2474.26671,0.00753
2472.20654,0.00752
2470.14637,0.00747
2468.08620,0.00756
2466.02602,0.00767
2463.96585,0.00780
2461.90568,0.00790
2459.84551,0.00786
2457.78534,0.00780
2455.72516,0.00775
2453.66499,0.00769
2451.60482,0.00753
2449.54465,0.00714
2447.48447,0.00682
2445.42430,0.00689
2443.36413,0.00723
2441.30396,0.00763
2439.24379,0.00766
2437.18361,0.00735
2435.12344,0.00735
2433.06327,0.00759
2431.00310,0.00754
2428.94293,0.00734
2426.88275,0.00725
2424.82258,0.00722
2422.76241,0.00722
2420.70224,0.00729
2418.64207,0.00752
2416.58189,0.00782
2414.52172,0.00781
2412.46155,0.00753
2410.40138,0.00740
2408.34120,0.00741
2406.28103,0.00738
2404.22086,0.00728
2402.16069,0.00728
2400.10052,0.00746
2398.04034,0.00735
2395.98017,0.00724
2393.92000,0.00722
2391.85983,0.00734
2389.79966,0.00748
2387.73948,0.00751
2385.67931,0.00739
2383.61914,0.00725
2381.55897,0.00718
2379.49880,0.00712
2377.43862,0.00716
2375.37845,0.00771
2373.31828,0.00788
2371.25811,0.00770
2369.19793,0.00824
2367.13776,0.00905
2365.07759,0.00946
2363.01742,0.01068
2360.95725,0.01030
2358.89707,0.01049
2356.83690,0.01077
2354.77673,0.01067
2352.71656,0.00933
2350.65639,0.00632
2348.59621,0.00507
2346.53604,0.00952
2344.47587,0.01036
2342.41570,0.00963
2340.35552,0.00951
2338.29535,0.00972
2336.23518,0.00996
2334.17501,0.00963
2332.11484,0.00884
2330.05466,0.00785
2327.99449,0.00804
2325.93432,0.00780
2323.87415,0.00810
2321.81398,0.00776
2319.75380,0.00789
2317.69363,0.00717
2315.63346,0.00688
2313.57329,0.00704
2311.51312,0.00711
2309.45294,0.00721
2307.39277,0.00710
2305.33260,0.00683
2303.27243,0.00663
2301.21225,0.00660
2299.15208,0.00648
2297.09191,0.00675
2295.03174,0.00746
2292.97157,0.00792
2290.91139,0.00797
2288.85122,0.00778
2286.79105,0.00736
2284.73088,0.00685
2282.67071,0.00666
2280.61053,0.00680
2278.55036,0.00698
2276.49019,0.00705
2274.43002,0.00694
2272.36984,0.00673
2270.30967,0.00667
2268.24950,0.00679
2266.18933,0.00682
2264.12916,0.00671
2262.06898,0.00660
2260.00881,0.00649
2257.94864,0.00642
2255.88847,0.00651
2253.82830,0.00649
2251.76812,0.00621
2249.70795,0.00586
2247.64778,0.00584
2245.58761,0.00601
2243.52744,0.00593
2241.46726,0.00563
2239.40709,0.00521
2237.34692,0.00482
2235.28675,0.00495
2233.22657,0.00545
2231.16640,0.00560
2229.10623,0.00544
2227.04606,0.00532
2224.98589,0.00540
2222.92571,0.00556
2220.86554,0.00544
2218.80537,0.00531
2216.74520,0.00568
2214.68503,0.00609
2212.62485,0.00600
2210.56468,0.00545
2208.50451,0.00481
2206.44434,0.00450
2204.38417,0.00451
2202.32399,0.00466
2200.26382,0.00495
2198.20365,0.00543
2196.14348,0.00562
2194.08330,0.00541
2192.02313,0.00519
2189.96296,0.00477
2187.90279,0.00444
2185.84262,0.00477
2183.78244,0.00504
2181.72227,0.00470
2179.66210,0.00428
2177.60193,0.00376
2175.54176,0.00354
2173.48158,0.00404
2171.42141,0.00500
2169.36124,0.00600
2167.30107,0.00612
2165.24089,0.00548
2163.18072,0.00476
2161.12055,0.00307
2159.06038,0.00053
2157.00021,0.00000
2154.94003,0.00150
2152.87986,0.00260
2150.81969,0.00276
2148.75952,0.00288
2146.69935,0.00333
2144.63917,0.00361
2142.57900,0.00361
2140.51883,0.00362
2138.45866,0.00343
2136.39849,0.00309
2134.33831,0.00320
2132.27814,0.00348
2130.21797,0.00361
2128.15780,0.00365
2126.09762,0.00368
2124.03745,0.00362
2121.97728,0.00342
2119.91711,0.00348
2117.85694,0.00370
2115.79676,0.00384
2113.73659,0.00414
2111.67642,0.00448
2109.61625,0.00425
2107.55608,0.00354
2105.49590,0.00321
2103.43573,0.00345
2101.37556,0.00359
2099.31539,0.00373
2097.25521,0.00370
2095.19504,0.00354
2093.13487,0.00351
2091.07470,0.00363
2089.01453,0.00381
2086.95435,0.00408
2084.89418,0.00422
2082.83401,0.00386
2080.77384,0.00337
2078.71367,0.00333
2076.65349,0.00339
2074.59332,0.00320
2072.53315,0.00305
2070.47298,0.00321
2068.41281,0.00358
2066.35263,0.00411
2064.29246,0.00461
2062.23229,0.00448
2060.17212,0.00367
2058.11194,0.00330
2056.05177,0.00366
2053.99160,0.00388
2051.93143,0.00396
2049.87126,0.00392
2047.81108,0.00311
2045.75091,0.00206
2043.69074,0.00177
2041.63057,0.00183
2039.57040,0.00162
2037.51022,0.00162
2035.45005,0.00278
2033.38988,0.00474
2031.32971,0.00543
2029.26954,0.00453
2027.20936,0.00351
2025.14919,0.00272
2023.08902,0.00207
2021.02885,0.00187
2018.96867,0.00207
2016.90850,0.00221
2014.84833,0.00240
2012.78816,0.00282
2010.72799,0.00260
2008.66781,0.00182
2006.60764,0.00142
2004.54747,0.00147
2002.48730,0.00153
2000.42713,0.00142
1998.36695,0.00134
1996.30678,0.00142
1994.24661,0.00134
1992.18644,0.00134
1990.12626,0.00188
1988.06609,0.00221
1986.00592,0.00191
1983.94575,0.00192
1981.88558,0.00291
1979.82540,0.00396
1977.76523,0.00385
1975.70506,0.00356
1973.64489,0.00348
1971.58472,0.00240
1969.52454,0.00108
1967.46437,0.00104
1965.40420,0.00156
1963.34403,0.00158
1961.28386,0.00132
1959.22368,0.00118
1957.16351,0.00133
1955.10334,0.00163
1953.04317,0.00169
1950.98299,0.00137
1948.92282,0.00103
1946.86265,0.00086
1944.80248,0.00072
1942.74231,0.00076
1940.68213,0.00107
1938.62196,0.00154
1936.56179,0.00188
1934.50162,0.00202
1932.44145,0.00212
1930.38127,0.00215
1928.32110,0.00209
1926.26093,0.00201
1924.20076,0.00192
1922.14059,0.00189
1920.08041,0.00163
1918.02024,0.00116
1915.96007,0.00096
1913.89990,0.00099
1911.83972,0.00105
1909.77955,0.00111
1907.71938,0.00120
1905.65921,0.00125
1903.59904,0.00117
1901.53886,0.00114
1899.47869,0.00134
1897.41852,0.00154
1895.35835,0.00147
1893.29818,0.00138
1891.23800,0.00151
1889.17783,0.00170
1887.11766,0.00184
1885.05749,0.00195
1882.99731,0.00182
1880.93714,0.00147
1878.87697,0.00123
1876.81680,0.00139
1874.75663,0.00177
1872.69645,0.00186
1870.63628,0.00164
1868.57611,0.00147
1866.51594,0.00141
1864.45577,0.00141
1862.39559,0.00148
1860.33542,0.00149
1858.27525,0.00140
1856.21508,0.00144
1854.15491,0.00171
1852.09473,0.00191
1850.03456,0.00183
1847.97439,0.00169
1845.91422,0.00167
1843.85404,0.00165
1841.79387,0.00159
1839.73370,0.00155
1837.67353,0.00157
1835.61336,0.00165
1833.55318,0.00182
1831.49301,0.00202
1829.43284,0.00203
1827.37267,0.00184
1825.31250,0.00184
1823.25232,0.00211
1821.19215,0.00223
1819.13198,0.00198
1817.07181,0.00172
1815.01163,0.00173
1812.95146,0.00182
1810.89129,0.00184
1808.83112,0.00180
1806.77095,0.00165
1804.71077,0.00143
1802.65060,0.00137
1800.59043,0.00151
1798.53026,0.00167
1796.47009,0.00171
1794.40991,0.00168
1792.34974,0.00158
1790.28957,0.00152
1788.22940,0.00158
1786.16923,0.00164
1784.10905,0.00177
1782.04888,0.00196
1779.98871,0.00201
1777.92854,0.00192
1775.86836,0.00192
1773.80819,0.00205
1771.74802,0.00210
1769.68785,0.00195
1767.62768,0.00189
1765.56750,0.00202
1763.50733,0.00213
1761.44716,0.00217
1759.38699,0.00224
1757.32682,0.00242
1755.26664,0.00266
1753.20647,0.00293
1751.14630,0.00317
1749.08613,0.00324
1747.02596,0.00319
1744.96578,0.00322
1742.90561,0.00331
1740.84544,0.00341
1738.78527,0.00352
1736.72509,0.00368
1734.66492,0.00386
1732.60475,0.00391
1730.54458,0.00389
1728.48441,0.00392
1726.42423,0.00402
1724.36406,0.00405
1722.30389,0.00390
1720.24372,0.00376
1718.18355,0.00385
1716.12337,0.00398
1714.06320,0.00404
1712.00303,0.00415
1709.94286,0.00439
1707.88268,0.00463
1705.82251,0.00474
1703.76234,0.00475
1701.70217,0.00483
1699.64200,0.00499
1697.58182,0.00529
1695.52165,0.00573
1693.46148,0.00625
1691.40131,0.00669
1689.34114,0.00704
1687.28096,0.00735
1685.22079,0.00768
1683.16062,0.00798
1681.10045,0.00836
1679.04028,0.00882
1676.98010,0.00926
1674.91993,0.00975
1672.85976,0.01031
1670.79959,0.01094
1668.73941,0.01146
1666.67924,0.01176
1664.61907,0.01192
1662.55890,0.01198
1660.49873,0.01197
1658.43855,0.01211
1656.37838,0.01249
1654.31821,0.01289
1652.25804,0.01292
1650.19787,0.01276
1648.13769,0.01254
1646.07752,0.01235
1644.01735,0.01232
1641.95718,0.01238
1639.89701,0.01243
1637.83683,0.01249
1635.77666,0.01245
1633.71649,0.01225
1631.65632,0.01201
1629.59614,0.01185
1627.53597,0.01182
1625.47580,0.01183
1623.41563,0.01170
1621.35546,0.01138
1619.29528,0.01109
1617.23511,0.01088
1615.17494,0.01064
1613.11477,0.01048
1611.05460,0.01050
1608.99442,0.01060
1606.93425,0.01062
1604.87408,0.01046
1602.81391,0.01017
1600.75373,0.00993
1598.69356,0.00983
1596.63339,0.00977
1594.57322,0.00963
1592.51305,0.00940
1590.45287,0.00916
1588.39270,0.00896
1586.33253,0.00878
1584.27236,0.00854
1582.21219,0.00830
1580.15201,0.00812
1578.09184,0.00796
1576.03167,0.00771
1573.97150,0.00739
1571.91133,0.00718
1569.85115,0.00710
1567.79098,0.00705
1565.73081,0.00694
1563.67064,0.00687
1561.61046,0.00696
1559.55029,0.00691
1557.49012,0.00628
1555.42995,0.00564
1553.36978,0.00532
1551.30960,0.00521
1549.24943,0.00516
1547.18926,0.00509
1545.12909,0.00503
1543.06892,0.00504
1541.00874,0.00499
1538.94857,0.00472
1536.88840,0.00444
1534.82823,0.00433
1532.76805,0.00429
1530.70788,0.00417
1528.64771,0.00398
1526.58754,0.00380
1524.52737,0.00371
1522.46719,0.00359
1520.40702,0.00330
1518.34685,0.00311
1516.28668,0.00308
1514.22651,0.00298
1512.16633,0.00278
1510.10616,0.00257
1508.04599,0.00244
1505.98582,0.00241
1503.92565,0.00246
1501.86547,0.00249
1499.80530,0.00254
1497.74513,0.00260
1495.68496,0.00258
1493.62478,0.00250
1491.56461,0.00245
1489.50444,0.00253
1487.44427,0.00264
1485.38410,0.00260
1483.32392,0.00247
1481.26375,0.00241
1479.20358,0.00245
1477.14341,0.00248
1475.08324,0.00247
1473.02306,0.00247
1470.96289,0.00259
1468.90272,0.00277
1466.84255,0.00295
1464.78238,0.00305
1462.72220,0.00304
1460.66203,0.00309
1458.60186,0.00316
1456.54169,0.00307
1454.48151,0.00292
1452.42134,0.00285
1450.36117,0.00292
1448.30100,0.00303
1446.24083,0.00308
1444.18065,0.00311
1442.12048,0.00317
1440.06031,0.00317
1438.00014,0.00312
1435.93997,0.00309
1433.87979,0.00311
1431.81962,0.00314
1429.75945,0.00321
1427.69928,0.00333
1425.63910,0.00354
1423.57893,0.00380
1421.51876,0.00395
1419.45859,0.00397
1417.39842,0.00403
1415.33824,0.00414
1413.27807,0.00420
1411.21790,0.00418
1409.15773,0.00416
1407.09756,0.00410
1405.03738,0.00398
1402.97721,0.00388
1400.91704,0.00381
1398.85687,0.00371
1396.79670,0.00358
1394.73652,0.00351
1392.67635,0.00343
1390.61618,0.00329
1388.55601,0.00317
1386.49583,0.00311
1384.43566,0.00315
1382.37549,0.00323
1380.31532,0.00327
1378.25515,0.00326
1376.19497,0.00322
1374.13480,0.00315
1372.07463,0.00309
1370.01446,0.00305
1367.95429,0.00298
1365.89411,0.00285
1363.83394,0.00269
1361.77377,0.00258
1359.71360,0.00261
1357.65343,0.00274
1355.59325,0.00283
1353.53308,0.00282
1351.47291,0.00274
1349.41274,0.00266
1347.35256,0.00260
1345.29239,0.00252
1343.23222,0.00238
1341.17205,0.00217
1339.11188,0.00204
1337.05170,0.00213
1334.99153,0.00233
1332.93136,0.00241
1330.87119,0.00238
1328.81102,0.00235
1326.75084,0.00234
1324.69067,0.00234
1322.63050,0.00239
1320.57033,0.00242
1318.51015,0.00233
1316.44998,0.00220
1314.38981,0.00214
1312.32964,0.00214
1310.26947,0.00222
1308.20929,0.00236
1306.14912,0.00248
1304.08895,0.00255
1302.02878,0.00255
1299.96861,0.00251
1297.90843,0.00258
1295.84826,0.00275
1293.78809,0.00287
1291.72792,0.00281
1289.66775,0.00270
1287.60757,0.00267
1285.54740,0.00265
1283.48723,0.00259
1281.42706,0.00259
1279.36688,0.00269
1277.30671,0.00287
1275.24654,0.00302
1273.18637,0.00305
1271.12620,0.00293
1269.06602,0.00279
1267.00585,0.00273
1264.94568,0.00274
1262.88551,0.00283
1260.82534,0.00299
1258.76516,0.00312
1256.70499,0.00318
1254.64482,0.00317
1252.58465,0.00314
1250.52447,0.00310
1248.46430,0.00301
1246.40413,0.00286
1244.34396,0.00276
1242.28379,0.00274
1240.22361,0.00271
1238.16344,0.00264
1236.10327,0.00253
1234.04310,0.00236
1231.98293,0.00224
1229.92275,0.00219
1227.86258,0.00213
1225.80241,0.00202
1223.74224,0.00184
1221.68207,0.00158
1219.62189,0.00131
1217.56172,0.00102
1215.50155,0.00080
1213.44138,0.00071
1211.38120,0.00063
1209.32103,0.00046
1207.26086,0.00032
1205.20069,0.00035
1203.14052,0.00037
1201.08034,0.00020
1199.02017,0.00000
1196.96000,0.00000
1194.89983,0.00015
1192.83966,0.00024
1190.77948,0.00029
1188.71931,0.00032
1186.65914,0.00034
1184.59897,0.00040
1182.53880,0.00048
1180.47862,0.00062
1178.41845,0.00084
1176.35828,0.00107
1174.29811,0.00135
1172.23793,0.00166
1170.17776,0.00191
1168.11759,0.00213
1166.05742,0.00244
1163.99725,0.00282
1161.93707,0.00319
1159.87690,0.00351
1157.81673,0.00386
1155.75656,0.00433
1153.69639,0.00482
1151.63621,0.00526
1149.57604,0.00572
1147.51587,0.00629
1145.45570,0.00686
1143.39552,0.00743
1141.33535,0.00816
1139.27518,0.00898
1137.21501,0.00974
1135.15484,0.01043
1133.09466,0.01121
1131.03449,0.01226
1128.97432,0.01339
1126.91415,0.01440
1124.85398,0.01541
1122.79380,0.01650
1120.73363,0.01761
1118.67346,0.01867
1116.61329,0.01972
1114.55312,0.02081
1112.49294,0.02188
1110.43277,0.02289
1108.37260,0.02387
1106.31243,0.02485
1104.25225,0.02582
1102.19208,0.02682
1100.13191,0.02784
1098.07174,0.02870
1096.01157,0.02932
1093.95139,0.02988
1091.89122,0.03053
1089.83105,0.03131
1087.77088,0.03206
1085.71071,0.03266
1083.65053,0.03319
1081.59036,0.03382
1079.53019,0.03454
1077.47002,0.03518
1075.40985,0.03570
1073.34967,0.03611
1071.28950,0.03652
1069.22933,0.03685
1067.16916,0.03693
1065.10898,0.03684
1063.04881,0.03674
1060.98864,0.03662
1058.92847,0.03632
1056.86830,0.03584
1054.80812,0.03519
1052.74795,0.03424
1050.68778,0.03310
1048.62761,0.03194
1046.56744,0.03063
1044.50726,0.02917
1042.44709,0.02774
1040.38692,0.02635
1038.32675,0.02493
1036.26657,0.02359
1034.20640,0.02229
1032.14623,0.02093
1030.08606,0.01965
1028.02589,0.01849
1025.96571,0.01742
1023.90554,0.01640
1021.84537,0.01551
1019.78520,0.01489
1017.72503,0.01450
1015.66485,0.01413
1013.60468,0.01376
1011.54451,0.01359
1009.48434,0.01370
1007.42417,0.01410
1005.36399,0.01467
1003.30382,0.01534
1001.24365,0.01621
999.18348,0.01730
997.12330,0.01835
995.06313,0.01909
993.00296,0.01968
990.94279,0.02036
988.88262,0.02117
986.82244,0.02198
984.76227,0.02261
982.70210,0.02305
980.64193,0.02322
978.58176,0.02318
976.52158,0.02317
974.46141,0.02309
972.40124,0.02267
970.34107,0.02196
968.28089,0.02119
966.22072,0.02030
964.16055,0.01929
962.10038,0.01830
960.04021,0.01728
957.98003,0.01621
955.91986,0.01528
953.85969,0.01445
951.79952,0.01359
949.73935,0.01273
947.67917,0.01191
945.61900,0.01114
943.55883,0.01041
941.49866,0.00971
939.43849,0.00911
937.37831,0.00861
935.31814,0.00818
933.25797,0.00767
931.19780,0.00710
929.13762,0.00677
927.07745,0.00673
925.01728,0.00660
922.95711,0.00618
920.89694,0.00573
918.83676,0.00552
916.77659,0.00541
914.71642,0.00515
912.65625,0.00489
910.59608,0.00484
908.53590,0.00493
906.47573,0.00501
904.41556,0.00497
902.35539,0.00504
900.29522,0.00522
898.23504,0.00523
896.17487,0.00524
894.11470,0.00552
892.05453,0.00587
889.99435,0.00619
887.93418,0.00661
885.87401,0.00715
883.81384,0.00777
881.75367,0.00835
879.69349,0.00871
877.63332,0.00892
875.57315,0.00922
873.51298,0.00966
871.45281,0.01014
869.39263,0.01062
867.33246,0.01108
865.27229,0.01144
863.21212,0.01174
861.15194,0.01203
859.09177,0.01218
857.03160,0.01214
854.97143,0.01215
852.91126,0.01227
850.85108,0.01212
848.79091,0.01169
846.73074,0.01141
844.67057,0.01114
842.61040,0.01065
840.55022,0.01031
838.49005,0.01025
836.42988,0.00988
834.36971,0.00905
832.30954,0.00847
830.24936,0.00817
828.18919,0.00784
826.12902,0.00769
824.06885,0.00759
822.00867,0.00730
819.94850,0.00702
817.88833,0.00667
815.82816,0.00622
813.76799,0.00595
811.70781,0.00589
809.64764,0.00589
807.58747,0.00595
805.52730,0.00587
803.46713,0.00556
801.40695,0.00531
799.34678,0.00510
797.28661,0.00496
795.22644,0.00496
793.16627,0.00490
791.10609,0.00471
789.04592,0.00438
786.98575,0.00427
784.92558,0.00456
782.86540,0.00474
780.80523,0.00461
778.74506,0.00461
776.68489,0.00479
774.62472,0.00466
772.56454,0.00434
770.50437,0.00424
768.44420,0.00409
766.38403,0.00385
764.32386,0.00360
762.26368,0.00351
760.20351,0.00386
758.14334,0.00418
756.08317,0.00421
754.02299,0.00409
751.96282,0.00377
749.90265,0.00351
747.84248,0.00354
745.78231,0.00367
743.72213,0.00360
741.66196,0.00330
739.60179,0.00324
737.54162,0.00364
735.48145,0.00393
733.42127,0.00370
731.36110,0.00355
729.30093,0.00382
727.24076,0.00399
725.18059,0.00401
723.12041,0.00411
721.06024,0.00441
719.00007,0.00393
716.93990,0.00389
714.87972,0.00403
712.81955,0.00388
710.75938,0.00374
708.69921,0.00373
706.63904,0.00392
704.57886,0.00431
702.51869,0.00454
700.45852,0.00435
698.39835,0.00407
696.33818,0.00422
694.27800,0.00466
692.21783,0.00466
690.15766,0.00387
688.09749,0.00283
686.03731,0.00255
683.97714,0.00340
681.91697,0.00452
679.85680,0.00493
677.79663,0.00476
675.73645,0.00445
673.67628,0.00324
671.61611,0.00000
669.55594,0.00115
667.49577,0.00744
665.43559,0.00087
663.37542,0.00206
661.31525,0.00302
659.25508,0.00249
657.19491,0.00257
655.13473,0.00332
653.07456,0.00397
651.01439,0.00415
648.95422,0.00395
646.89404,0.00327
644.83387,0.00291
642.77370,0.00248
640.71353,0.00187
638.65336,0.00112
636.59318,0.00038
634.53301,0.00040
632.47284,0.00126
630.41267,0.00193
628.35250,0.00184
626.29232,0.00121
624.23215,0.00061
622.17198,-0.00001
620.11181,-0.00037
618.05164,-0.00027
615.99146,-0.00016
613.93129,0.00045
611.87112,0.00156
609.81095,0.00200
607.75077,0.00148
605.69060,0.00056
603.63043,-0.00046
601.57026,-0.00074
599.51009,0.00000
