3996.73391,0.00008
3994.67373,0.00028
3992.61356,0.00039
3990.55339,0.00051
3988.49322,0.00059
3986.43305,0.00052
3984.37287,0.00024
3982.31270,-0.00009
3980.25253,-0.00019
3978.19236,-0.00005
3976.13219,0.00019
3974.07201,0.00032
3972.01184,0.00024
3969.95167,0.00015
3967.89150,0.00024
3965.83133,0.00034
3963.77115,0.00028
3961.71098,0.00011
3959.65081,0.00000
3957.59064,0.00008
3955.53046,0.00031
3953.47029,0.00050
3951.41012,0.00052
3949.34995,0.00047
3947.28978,0.00054
3945.22960,0.00071
3943.16943,0.00089
3941.10926,0.00096
3939.04909,0.00080
3936.98892,0.00045
3934.92874,0.00022
3932.86857,0.00041
3930.80840,0.00082
3928.74823,0.00107
3926.68805,0.00104
3924.62788,0.00084
3922.56771,0.00061
3920.50754,0.00032
3918.44737,0.00009
3916.38719,0.00032
3914.32702,0.00084
3912.26685,0.00117
3910.20668,0.00120
3908.14651,0.00101
3906.08633,0.00071
3904.02616,0.00047
3901.96599,0.00048
3899.90582,0.00076
3897.84565,0.00094
3895.78547,0.00095
3893.72530,0.00114
3891.66513,0.00147
3889.60496,0.00141
3887.54478,0.00092
3885.48461,0.00053
3883.42444,0.00048
3881.36427,0.00061
3879.30410,0.00070
3877.24392,0.00060
3875.18375,0.00047
3873.12358,0.00052
3871.06341,0.00066
3869.00324,0.00085
3866.94306,0.00103
3864.88289,0.00106
3862.82272,0.00090
3860.76255,0.00067
3858.70237,0.00036
3856.64220,0.00000
3854.58203,0.00016
3852.52186,0.00094
3850.46169,0.00138
3848.40151,0.00129
3846.34134,0.00117
3844.28117,0.00098
3842.22100,0.00050
3840.16083,0.00007
3838.10065,0.00008
3836.04048,0.00039
3833.98031,0.00067
3831.92014,0.00085
3829.85997,0.00091
3827.79979,0.00084
3825.73962,0.00069
3823.67945,0.00044
3821.61928,0.00032
3819.55910,0.00054
3817.49893,0.00092
3815.43876,0.00129
3813.37859,0.00138
3811.31842,0.00107
3809.25824,0.00077
3807.19807,0.00066
3805.13790,0.00054
3803.07773,0.00052
3801.01756,0.00094
3798.95738,0.00146
3796.89721,0.00164
3794.83704,0.00165
3792.77687,0.00154
3790.71670,0.00136
3788.65652,0.00131
3786.59635,0.00152
3784.53618,0.00199
3782.47601,0.00239
3780.41583,0.00246
3778.35566,0.00229
3776.29549,0.00198
3774.23532,0.00164
3772.17515,0.00139
3770.11497,0.00127
3768.05480,0.00116
3765.99463,0.00100
3763.93446,0.00080
3761.87429,0.00066
3759.81411,0.00075
3757.75394,0.00084
3755.69377,0.00055
3753.63360,0.00020
3751.57342,0.00035
3749.51325,0.00077
3747.45308,0.00078
3745.39291,0.00034
3743.33274,0.00012
3741.27256,0.00013
3739.21239,0.00000
3737.15222,0.00005
3735.09205,0.00044
3733.03188,0.00086
3730.97170,0.00099
3728.91153,0.00103
3726.85136,0.00093
3724.79119,0.00071
3722.73102,0.00090
3720.67084,0.00136
3718.61067,0.00154
3716.55050,0.00102
3714.49033,0.00039
3712.43015,0.00045
3710.36998,0.00079
3708.30981,0.00121
3706.24964,0.00146
3704.18947,0.00156
3702.12929,0.00164
3700.06912,0.00169
3698.00895,0.00176
3695.94878,0.00177
3693.88861,0.00160
3691.82843,0.00112
3689.76826,0.00077
3687.70809,0.00084
3685.64792,0.00119
3683.58775,0.00145
3681.52757,0.00173
3679.46740,0.00196
3677.40723,0.00203
3675.34706,0.00197
3673.28688,0.00193
3671.22671,0.00197
3669.16654,0.00214
3667.10637,0.00228
3665.04620,0.00227
3662.98602,0.00222
3660.92585,0.00203
3658.86568,0.00164
3656.80551,0.00145
3654.74534,0.00168
3652.68516,0.00208
3650.62499,0.00264
3648.56482,0.00327
3646.50465,0.00354
3644.44447,0.00329
3642.38430,0.00298
3640.32413,0.00295
3638.26396,0.00306
3636.20379,0.00305
3634.14361,0.00309
3632.08344,0.00336
3630.02327,0.00382
3627.96310,0.00424
3625.90293,0.00467
3623.84275,0.00492
3621.78258,0.00487
3619.72241,0.00461
3617.66224,0.00430
3615.60207,0.00397
3613.54189,0.00366
3611.48172,0.00390
3609.42155,0.00453
3607.36138,0.00509
3605.30120,0.00545
3603.24103,0.00558
3601.18086,0.00588
3599.12069,0.00632
3597.06052,0.00671
3595.00034,0.00682
3592.94017,0.00693
3590.88000,0.00697
3588.81983,0.00704
3586.75966,0.00705
3584.69948,0.00710
3582.63931,0.00730
3580.57914,0.00763
3578.51897,0.00792
3576.45879,0.00796
3574.39862,0.00786
3572.33845,0.00784
3570.27828,0.00792
3568.21811,0.00824
3566.15793,0.00873
3564.09776,0.00894
3562.03759,0.00886
3559.97742,0.00874
3557.91725,0.00869
3555.85707,0.00875
3553.79690,0.00899
3551.73673,0.00921
3549.67656,0.00924
3547.61639,0.00923
3545.55621,0.00940
3543.49604,0.00976
3541.43587,0.01022
3539.37570,0.01066
3537.31552,0.01089
3535.25535,0.01093
3533.19518,0.01097
3531.13501,0.01099
3529.07484,0.01103
3527.01466,0.01120
3524.95449,0.01136
3522.89432,0.01136
3520.83415,0.01136
3518.77398,0.01144
3516.71380,0.01145
3514.65363,0.01142
3512.59346,0.01161
3510.53329,0.01207
3508.47312,0.01249
3506.41294,0.01269
3504.35277,0.01282
3502.29260,0.01292
3500.23243,0.01298
3498.17225,0.01311
3496.11208,0.01332
3494.05191,0.01338
3491.99174,0.01327
3489.93157,0.01325
3487.87139,0.01345
3485.81122,0.01377
3483.75105,0.01416
3481.69088,0.01442
3479.63071,0.01445
3477.57053,0.01442
3475.51036,0.01449
3473.45019,0.01455
3471.39002,0.01464
3469.32984,0.01475
3467.26967,0.01484
3465.20950,0.01498
3463.14933,0.01513
3461.08916,0.01518
3459.02898,0.01512
3456.96881,0.01509
3454.90864,0.01526
3452.84847,0.01563
3450.78830,0.01599
3448.72812,0.01621
3446.66795,0.01628
3444.60778,0.01621
3442.54761,0.01623
3440.48744,0.01641
3438.42726,0.01660
3436.36709,0.01686
3434.30692,0.01711
3432.24675,0.01718
3430.18657,0.01699
3428.12640,0.01671
3426.06623,0.01671
3424.00606,0.01699
3421.94589,0.01719
3419.88571,0.01727
3417.82554,0.01738
3415.76537,0.01748
3413.70520,0.01761
3411.64503,0.01783
3409.58485,0.01799
3407.52468,0.01799
3405.46451,0.01799
3403.40434,0.01811
3401.34416,0.01816
3399.28399,0.01793
3397.22382,0.01792
3395.16365,0.01798
3393.10348,0.01816
3391.04330,0.01838
3388.98313,0.01848
3386.92296,0.01861
3384.86279,0.01871
3382.80262,0.01865
3380.74244,0.01867
3378.68227,0.01883
3376.62210,0.01892
3374.56193,0.01891
3372.50176,0.01892
3370.44158,0.01893
3368.38141,0.01886
3366.32124,0.01886
3364.26107,0.01908
3362.20089,0.01938
3360.14072,0.01956
3358.08055,0.01957
3356.02038,0.01949
3353.96021,0.01942
3351.90003,0.01948
3349.83986,0.01971
3347.77969,0.02002
3345.71952,0.02024
3343.65935,0.02032
3341.59917,0.02026
3339.53900,0.02013
3337.47883,0.02009
3335.41866,0.02015
3333.35849,0.02017
3331.29831,0.02010
3329.23814,0.02007
3327.17797,0.02021
3325.11780,0.02034
3323.05762,0.02030
3320.99745,0.02023
3318.93728,0.02018
3316.87711,0.02002
3314.81694,0.01981
3312.75676,0.01979
3310.69659,0.01997
3308.63642,0.02016
3306.57625,0.02027
3304.51608,0.02037
3302.45590,0.02052
3300.39573,0.02053
3298.33556,0.02044
3296.27539,0.02046
3294.21521,0.02050
3292.15504,0.02051
3290.09487,0.02062
3288.03470,0.02080
3285.97453,0.02089
3283.91435,0.02085
3281.85418,0.02078
3279.79401,0.02074
3277.73384,0.02064
3275.67367,0.02060
3273.61349,0.02075
3271.55332,0.02093
3269.49315,0.02095
3267.43298,0.02087
3265.37281,0.02076
3263.31263,0.02068
3261.25246,0.02070
3259.19229,0.02081
3257.13212,0.02092
3255.07194,0.02110
3253.01177,0.02130
3250.95160,0.02137
3248.89143,0.02131
3246.83126,0.02130
3244.77108,0.02143
3242.71091,0.02148
3240.65074,0.02132
3238.59057,0.02118
3236.53040,0.02118
3234.47022,0.02120
3232.41005,0.02120
3230.34988,0.02117
3228.28971,0.02107
3226.22954,0.02095
3224.16936,0.02096
3222.10919,0.02116
3220.04902,0.02130
3217.98885,0.02122
3215.92867,0.02118
3213.86850,0.02129
3211.80833,0.02138
3209.74816,0.02145
3207.68799,0.02141
3205.62781,0.02118
3203.56764,0.02102
3201.50747,0.02103
3199.44730,0.02103
3197.38713,0.02099
3195.32695,0.02101
3193.26678,0.02108
3191.20661,0.02116
3189.14644,0.02123
3187.08626,0.02127
3185.02609,0.02130
3182.96592,0.02133
3180.90575,0.02135
3178.84558,0.02133
3176.78540,0.02119
3174.72523,0.02104
3172.66506,0.02102
3170.60489,0.02099
3168.54472,0.02095
3166.48454,0.02097
3164.42437,0.02096
3162.36420,0.02088
3160.30403,0.02075
3158.24386,0.02058
3156.18368,0.02057
3154.12351,0.02073
3152.06334,0.02072
3150.00317,0.02063
3147.94299,0.02072
3145.88282,0.02084
3143.82265,0.02078
3141.76248,0.02063
3139.70231,0.02055
3137.64213,0.02054
3135.58196,0.02053
3133.52179,0.02048
3131.46162,0.02040
3129.40145,0.02035
3127.34127,0.02042
3125.28110,0.02054
3123.22093,0.02044
3121.16076,0.02016
3119.10058,0.01999
3117.04041,0.01996
3114.98024,0.01998
3112.92007,0.01999
3110.85990,0.01993
3108.79972,0.01984
3106.73955,0.01976
3104.67938,0.01958
3102.61921,0.01925
3100.55904,0.01900
3098.49886,0.01903
3096.43869,0.01925
3094.37852,0.01944
3092.31835,0.01947
3090.25818,0.01930
3088.19800,0.01900
3086.13783,0.01876
3084.07766,0.01876
3082.01749,0.01884
3079.95731,0.01883
3077.89714,0.01885
3075.83697,0.01886
3073.77680,0.01877
3071.71663,0.01869
3069.65645,0.01862
3067.59628,0.01851
3065.53611,0.01842
3063.47594,0.01840
3061.41577,0.01843
3059.35559,0.01853
3057.29542,0.01857
3055.23525,0.01846
3053.17508,0.01832
3051.11491,0.01823
3049.05473,0.01810
3046.99456,0.01797
3044.93439,0.01791
3042.87422,0.01788
3040.81404,0.01783
3038.75387,0.01768
3036.69370,0.01740
3034.63353,0.01718
3032.57336,0.01721
3030.51318,0.01730
3028.45301,0.01720
3026.39284,0.01699
3024.33267,0.01686
3022.27250,0.01694
3020.21232,0.01703
3018.15215,0.01686
3016.09198,0.01656
3014.03181,0.01636
3011.97163,0.01633
3009.91146,0.01635
3007.85129,0.01620
3005.79112,0.01598
3003.73095,0.01590
3001.67077,0.01582
2999.61060,0.01576
2997.55043,0.01576
2995.49026,0.01569
2993.43009,0.01546
2991.36991,0.01535
2989.30974,0.01544
2987.24957,0.01560
2985.18940,0.01564
2983.12923,0.01569
2981.06905,0.01578
2979.00888,0.01564
2976.94871,0.01531
2974.88854,0.01507
2972.82836,0.01505
2970.76819,0.01511
2968.70802,0.01522
2966.64785,0.01539
2964.58768,0.01542
2962.52750,0.01518
2960.46733,0.01487
2958.40716,0.01475
2956.34699,0.01481
2954.28682,0.01492
2952.22664,0.01487
2950.16647,0.01464
2948.10630,0.01449
2946.04613,0.01455
2943.98596,0.01468
2941.92578,0.01480
2939.86561,0.01487
2937.80544,0.01474
2935.74527,0.01446
2933.68509,0.01432
2931.62492,0.01438
2929.56475,0.01434
2927.50458,0.01423
2925.44441,0.01419
2923.38423,0.01425
2921.32406,0.01443
2919.26389,0.01458
2917.20372,0.01450
2915.14355,0.01425
2913.08337,0.01400
2911.02320,0.01378
2908.96303,0.01360
2906.90286,0.01359
2904.84268,0.01369
2902.78251,0.01365
2900.72234,0.01347
2898.66217,0.01330
2896.60200,0.01316
2894.54182,0.01297
2892.48165,0.01270
2890.42148,0.01260
2888.36131,0.01272
2886.30114,0.01282
2884.24096,0.01288
2882.18079,0.01287
2880.12062,0.01269
2878.06045,0.01240
2876.00028,0.01225
2873.94010,0.01237
2871.87993,0.01242
2869.81976,0.01217
2867.75959,0.01187
2865.69941,0.01178
2863.63924,0.01188
2861.57907,0.01206
2859.51890,0.01215
2857.45873,0.01203
2855.39855,0.01179
2853.33838,0.01160
2851.27821,0.01152
2849.21804,0.01155
2847.15787,0.01167
2845.09769,0.01168
2843.03752,0.01151
2840.97735,0.01130
2838.91718,0.01107
2836.85700,0.01083
2834.79683,0.01072
2832.73666,0.01061
2830.67649,0.01046
2828.61632,0.01049
2826.55614,0.01063
2824.49597,0.01066
2822.43580,0.01057
2820.37563,0.01050
2818.31546,0.01044
2816.25528,0.01035
2814.19511,0.01031
2812.13494,0.01032
2810.07477,0.01024
2808.01460,0.01013
2805.95442,0.01012
2803.89425,0.01008
2801.83408,0.00991
2799.77391,0.00975
2797.71373,0.00969
2795.65356,0.00969
2793.59339,0.00967
2791.53322,0.00964
2789.47305,0.00957
2787.41287,0.00938
2785.35270,0.00918
2783.29253,0.00917
2781.23236,0.00922
2779.17219,0.00917
2777.11201,0.00905
2775.05184,0.00892
2772.99167,0.00882
2770.93150,0.00877
2768.87133,0.00875
2766.81115,0.00874
2764.75098,0.00868
2762.69081,0.00855
2760.63064,0.00846
2758.57046,0.00848
2756.51029,0.00855
2754.45012,0.00852
2752.38995,0.00841
2750.32978,0.00837
2748.26960,0.00839
2746.20943,0.00830
2744.14926,0.00811
2742.08909,0.00795
2740.02892,0.00790
2737.96874,0.00794
2735.90857,0.00793
2733.84840,0.00786
2731.78823,0.00778
2729.72805,0.00771
2727.66788,0.00765
2725.60771,0.00764
2723.54754,0.00763
2721.48737,0.00756
2719.42719,0.00748
2717.36702,0.00743
2715.30685,0.00737
2713.24668,0.00727
2711.18651,0.00720
2709.12633,0.00721
2707.06616,0.00724
2705.00599,0.00724
2702.94582,0.00717
2700.88565,0.00709
2698.82547,0.00703
2696.76530,0.00689
2694.70513,0.00680
2692.64496,0.00685
2690.58478,0.00693
2688.52461,0.00693
2686.46444,0.00686
2684.40427,0.00676
2682.34410,0.00671
2680.28392,0.00673
2678.22375,0.00675
2676.16358,0.00676
2674.10341,0.00676
2672.04324,0.00664
2669.98306,0.00640
2667.92289,0.00631
2665.86272,0.00639
2663.80255,0.00636
2661.74238,0.00629
2659.68220,0.00628
2657.62203,0.00627
2655.56186,0.00630
2653.50169,0.00638
2651.44151,0.00637
2649.38134,0.00622
2647.32117,0.00608
2645.26100,0.00601
2643.20083,0.00592
2641.14065,0.00589
2639.08048,0.00594
2637.02031,0.00590
2634.96014,0.00575
2632.89997,0.00572
2630.83979,0.00584
2628.77962,0.00583
2626.71945,0.00566
2624.65928,0.00549
2622.59910,0.00532
2620.53893,0.00522
2618.47876,0.00526
2616.41859,0.00536
2614.35842,0.00543
2612.29824,0.00545
2610.23807,0.00542
2608.17790,0.00539
2606.11773,0.00539
2604.05756,0.00530
2601.99738,0.00509
2599.93721,0.00499
2597.87704,0.00503
2595.81687,0.00502
2593.75670,0.00497
2591.69652,0.00488
2589.63635,0.00478
2587.57618,0.00470
2585.51601,0.00459
2583.45583,0.00454
2581.39566,0.00467
2579.33549,0.00489
2577.27532,0.00510
2575.21515,0.00515
2573.15497,0.00484
2571.09480,0.00455
2569.03463,0.00460
2566.97446,0.00455
2564.91429,0.00431
2562.85411,0.00431
2560.79394,0.00444
2558.73377,0.00451
2556.67360,0.00457
2554.61342,0.00474
2552.55325,0.00497
2550.49308,0.00505
2548.43291,0.00495
2546.37274,0.00491
2544.31256,0.00496
2542.25239,0.00493
2540.19222,0.00479
2538.13205,0.00467
2536.07188,0.00471
2534.01170,0.00473
2531.95153,0.00473
2529.89136,0.00475
2527.83119,0.00464
2525.77102,0.00459
2523.71084,0.00479
2521.65067,0.00496
2519.59050,0.00491
2517.53033,0.00484
2515.47015,0.00495
2513.40998,0.00514
2511.34981,0.00512
2509.28964,0.00502
2507.22947,0.00516
2505.16929,0.00526
2503.10912,0.00506
2501.04895,0.00477
2498.98878,0.00461
2496.92861,0.00455
2494.86843,0.00461
2492.80826,0.00469
2490.74809,0.00477
2488.68792,0.00492
2486.62775,0.00510
2484.56757,0.00512
2482.50740,0.00499
2480.44723,0.00492
2478.38706,0.00494
2476.32688,0.00498
2474.26671,0.00504
2472.20654,0.00511
2470.14637,0.00523
2468.08620,0.00539
2466.02602,0.00549
2463.96585,0.00550
2461.90568,0.00558
2459.84551,0.00569
2457.78534,0.00557
2455.72516,0.00530
2453.66499,0.00521
2451.60482,0.00527
2449.54465,0.00501
2447.48447,0.00459
2445.42430,0.00457
2443.36413,0.00481
2441.30396,0.00498
2439.24379,0.00496
2437.18361,0.00502
2435.12344,0.00532
2433.06327,0.00541
2431.00310,0.00512
2428.94293,0.00481
2426.88275,0.00487
2424.82258,0.00509
2422.76241,0.00517
2420.70224,0.00510
2418.64207,0.00497
2416.58189,0.00495
2414.52172,0.00503
2412.46155,0.00502
2410.40138,0.00496
2408.34120,0.00492
2406.28103,0.00492
2404.22086,0.00503
2402.16069,0.00516
2400.10052,0.00510
2398.04034,0.00446
2395.98017,0.00443
2393.92000,0.00472
2391.85983,0.00501
2389.79966,0.00527
2387.73948,0.00547
2385.67931,0.00542
2383.61914,0.00527
2381.55897,0.00524
2379.49880,0.00527
2377.43862,0.00525
2375.37845,0.00607
2373.31828,0.00632
2371.25811,0.00602
2369.19793,0.00688
2367.13776,0.00768
2365.07759,0.00806
2363.01742,0.01113
2360.95725,0.01017
2358.89707,0.01089
2356.83690,0.01221
2354.77673,0.01303
2352.71656,0.01151
2350.65639,0.00400
2348.59621,0.00000
2346.53604,0.01038
2344.47587,0.01203
2342.41570,0.00963
2340.35552,0.00855
2338.29535,0.00797
2336.23518,0.00855
2334.17501,0.00892
2332.11484,0.00886
2330.05466,0.00778
2327.99449,0.00799
2325.93432,0.00672
2323.87415,0.00751
2321.81398,0.00749
2319.75380,0.00797
2317.69363,0.00610
2315.63346,0.00545
2313.57329,0.00581
2311.51312,0.00564
2309.45294,0.00561
2307.39277,0.00560
2305.33260,0.00545
2303.27243,0.00526
2301.21225,0.00557
2299.15208,0.00553
2297.09191,0.00556
2295.03174,0.00600
2292.97157,0.00623
2290.91139,0.00626
2288.85122,0.00617
2286.79105,0.00569
2284.73088,0.00498
2282.67071,0.00458
2280.61053,0.00475
2278.55036,0.00506
2276.49019,0.00502
2274.43002,0.00454
2272.36984,0.00422
2270.30967,0.00431
2268.24950,0.00465
2266.18933,0.00484
2264.12916,0.00480
2262.06898,0.00465
2260.00881,0.00466
2257.94864,0.00477
2255.88847,0.00497
2253.82830,0.00505
2251.76812,0.00490
2249.70795,0.00443
2247.64778,0.00420
2245.58761,0.00425
2243.52744,0.00427
2241.46726,0.00405
2239.40709,0.00365
2237.34692,0.00361
2235.28675,0.00408
2233.22657,0.00427
2231.16640,0.00395
2229.10623,0.00371
2227.04606,0.00355
2224.98589,0.00350
2222.92571,0.00367
2220.86554,0.00373
2218.80537,0.00377
2216.74520,0.00415
2214.68503,0.00455
2212.62485,0.00432
2210.56468,0.00346
2208.50451,0.00268
2206.44434,0.00234
2204.38417,0.00256
2202.32399,0.00325
2200.26382,0.00337
2198.20365,0.00298
2196.14348,0.00286
2194.08330,0.00325
2192.02313,0.00391
2189.96296,0.00371
2187.90279,0.00286
2185.84262,0.00277
2183.78244,0.00311
2181.72227,0.00300
2179.66210,0.00299
2177.60193,0.00311
2175.54176,0.00325
2173.48158,0.00351
2171.42141,0.00370
2169.36124,0.00400
2167.30107,0.00410
2165.24089,0.00402
2163.18072,0.00355
2161.12055,0.00184
2159.06038,0.00010
2157.00021,0.00011
2154.94003,0.00143
2152.87986,0.00251
2150.81969,0.00247
2148.75952,0.00199
2146.69935,0.00208
2144.63917,0.00238
2142.57900,0.00229
2140.51883,0.00219
2138.45866,0.00219
2136.39849,0.00222
2134.33831,0.00244
2132.27814,0.00230
2130.21797,0.00177
2128.15780,0.00144
2126.09762,0.00142
2124.03745,0.00148
2121.97728,0.00143
2119.91711,0.00146
2117.85694,0.00169
2115.79676,0.00194
2113.73659,0.00244
2111.67642,0.00299
2109.61625,0.00292
2107.55608,0.00249
2105.49590,0.00241
2103.43573,0.00246
2101.37556,0.00234
2099.31539,0.00259
2097.25521,0.00278
2095.19504,0.00276
2093.13487,0.00284
2091.07470,0.00287
2089.01453,0.00255
2086.95435,0.00230
2084.89418,0.00242
2082.83401,0.00249
2080.77384,0.00222
2078.71367,0.00203
2076.65349,0.00222
2074.59332,0.00242
2072.53315,0.00227
2070.47298,0.00201
2068.41281,0.00220
2066.35263,0.00276
2064.29246,0.00286
2062.23229,0.00255
2060.17212,0.00252
2058.11194,0.00283
2056.05177,0.00311
2053.99160,0.00288
2051.93143,0.00249
2049.87126,0.00235
2047.81108,0.00226
2045.75091,0.00211
2043.69074,0.00167
2041.63057,0.00114
2039.57040,0.00113
2037.51022,0.00154
2035.45005,0.00209
2033.38988,0.00299
2031.32971,0.00376
2029.26954,0.00331
2027.20936,0.00180
2025.14919,0.00058
2023.08902,0.00025
2021.02885,0.00052
2018.96867,0.00096
2016.90850,0.00120
2014.84833,0.00165
2012.78816,0.00252
2010.72799,0.00297
2008.66781,0.00286
2006.60764,0.00271
2004.54747,0.00249
2002.48730,0.00185
2000.42713,0.00072
1998.36695,0.00013
1996.30678,0.00062
1994.24661,0.00070
1992.18644,0.00000
1990.12626,0.00003
1988.06609,0.00053
1986.00592,0.00070
1983.94575,0.00110
1981.88558,0.00201
1979.82540,0.00246
1977.76523,0.00230
1975.70506,0.00304
1973.64489,0.00393
1971.58472,0.00322
1969.52454,0.00194
1967.46437,0.00157
1965.40420,0.00159
1963.34403,0.00131
1961.28386,0.00111
1959.22368,0.00112
1957.16351,0.00115
1955.10334,0.00113
1953.04317,0.00108
1950.98299,0.00094
1948.92282,0.00084
1946.86265,0.00096
1944.80248,0.00112
1942.74231,0.00114
1940.68213,0.00111
1938.62196,0.00111
1936.56179,0.00113
1934.50162,0.00120
1932.44145,0.00135
1930.38127,0.00136
1928.32110,0.00122
1926.26093,0.00129
1924.20076,0.00156
1922.14059,0.00152
1920.08041,0.00118
1918.02024,0.00110
1915.96007,0.00121
1913.89990,0.00106
1911.83972,0.00073
1909.77955,0.00045
1907.71938,0.00032
1905.65921,0.00047
1903.59904,0.00081
1901.53886,0.00105
1899.47869,0.00112
1897.41852,0.00116
1895.35835,0.00117
1893.29818,0.00100
1891.23800,0.00083
1889.17783,0.00096
1887.11766,0.00125
1885.05749,0.00140
1882.99731,0.00126
1880.93714,0.00104
1878.87697,0.00112
1876.81680,0.00148
1874.75663,0.00170
1872.69645,0.00150
1870.63628,0.00105
1868.57611,0.00075
1866.51594,0.00083
1864.45577,0.00107
1862.39559,0.00122
1860.33542,0.00118
1858.27525,0.00103
1856.21508,0.00106
1854.15491,0.00130
1852.09473,0.00152
1850.03456,0.00155
1847.97439,0.00148
1845.91422,0.00144
1843.85404,0.00145
1841.79387,0.00141
1839.73370,0.00129
1837.67353,0.00124
1835.61336,0.00129
1833.55318,0.00134
1831.49301,0.00145
1829.43284,0.00154
1827.37267,0.00152
1825.31250,0.00158
1823.25232,0.00175
1821.19215,0.00180
1819.13198,0.00160
1817.07181,0.00138
1815.01163,0.00139
1812.95146,0.00155
1810.89129,0.00158
1808.83112,0.00147
1806.77095,0.00133
1804.71077,0.00119
1802.65060,0.00112
1800.59043,0.00128
1798.53026,0.00154
1796.47009,0.00166
1794.40991,0.00163
1792.34974,0.00149
1790.28957,0.00141
1788.22940,0.00146
1786.16923,0.00155
1784.10905,0.00167
1782.04888,0.00191
1779.98871,0.00206
1777.92854,0.00196
1775.86836,0.00177
1773.80819,0.00171
1771.74802,0.00171
1769.68785,0.00159
1767.62768,0.00150
1765.56750,0.00153
1763.50733,0.00158
1761.44716,0.00164
1759.38699,0.00177
1757.32682,0.00191
1755.26664,0.00206
1753.20647,0.00223
1751.14630,0.00234
1749.08613,0.00229
1747.02596,0.00226
1744.96578,0.00237
1742.90561,0.00241
1740.84544,0.00236
1738.78527,0.00233
1736.72509,0.00232
1734.66492,0.00240
1732.60475,0.00264
1730.54458,0.00279
1728.48441,0.00279
1726.42423,0.00284
1724.36406,0.00295
1722.30389,0.00294
1720.24372,0.00286
1718.18355,0.00299
1716.12337,0.00322
1714.06320,0.00331
1712.00303,0.00331
1709.94286,0.00335
1707.88268,0.00342
1705.82251,0.00344
1703.76234,0.00349
1701.70217,0.00362
1699.64200,0.00366
1697.58182,0.00368
1695.52165,0.00394
1693.46148,0.00438
1691.40131,0.00472
1689.34114,0.00498
1687.28096,0.00518
1685.22079,0.00540
1683.16062,0.00564
1681.10045,0.00594
1679.04028,0.00624
1676.98010,0.00657
1674.91993,0.00704
1672.85976,0.00758
1670.79959,0.00809
1668.73941,0.00841
1666.67924,0.00845
1664.61907,0.00839
1662.55890,0.00835
1660.49873,0.00833
1658.43855,0.00840
1656.37838,0.00860
1654.31821,0.00881
1652.25804,0.00890
1650.19787,0.00900
1648.13769,0.00903
1646.07752,0.00896
1644.01735,0.00888
1641.95718,0.00888
1639.89701,0.00890
1637.83683,0.00894
1635.77666,0.00891
1633.71649,0.00877
1631.65632,0.00855
1629.59614,0.00836
1627.53597,0.00835
1625.47580,0.00845
1623.41563,0.00843
1621.35546,0.00820
1619.29528,0.00800
1617.23511,0.00795
1615.17494,0.00786
1613.11477,0.00773
1611.05460,0.00768
1608.99442,0.00770
1606.93425,0.00770
1604.87408,0.00771
1602.81391,0.00762
1600.75373,0.00739
1598.69356,0.00721
1596.63339,0.00717
1594.57322,0.00712
1592.51305,0.00694
1590.45287,0.00675
1588.39270,0.00665
1586.33253,0.00657
1584.27236,0.00638
1582.21219,0.00615
1580.15201,0.00599
1578.09184,0.00595
1576.03167,0.00581
1573.97150,0.00546
1571.91133,0.00516
1569.85115,0.00505
1567.79098,0.00500
1565.73081,0.00493
1563.67064,0.00492
1561.61046,0.00506
1559.55029,0.00509
1557.49012,0.00457
1555.42995,0.00408
1553.36978,0.00400
1551.30960,0.00415
1549.24943,0.00425
1547.18926,0.00424
1545.12909,0.00424
1543.06892,0.00416
1541.00874,0.00392
1538.94857,0.00360
1536.88840,0.00345
1534.82823,0.00349
1532.76805,0.00357
1530.70788,0.00352
1528.64771,0.00343
1526.58754,0.00333
1524.52737,0.00316
1522.46719,0.00293
1520.40702,0.00276
1518.34685,0.00289
1516.28668,0.00306
1514.22651,0.00295
1512.16633,0.00269
1510.10616,0.00253
1508.04599,0.00246
1505.98582,0.00233
1503.92565,0.00224
1501.86547,0.00227
1499.80530,0.00250
1497.74513,0.00271
1495.68496,0.00270
1493.62478,0.00259
1491.56461,0.00256
1489.50444,0.00265
1487.44427,0.00279
1485.38410,0.00280
1483.32392,0.00271
1481.26375,0.00268
1479.20358,0.00269
1477.14341,0.00272
1475.08324,0.00277
1473.02306,0.00277
1470.96289,0.00272
1468.90272,0.00268
1466.84255,0.00271
1464.78238,0.00279
1462.72220,0.00283
1460.66203,0.00289
1458.60186,0.00303
1456.54169,0.00308
1454.48151,0.00300
1452.42134,0.00291
1450.36117,0.00293
1448.30100,0.00301
1446.24083,0.00302
1444.18065,0.00305
1442.12048,0.00310
1440.06031,0.00314
1438.00014,0.00318
1435.93997,0.00314
1433.87979,0.00304
1431.81962,0.00304
1429.75945,0.00316
1427.69928,0.00322
1425.63910,0.00324
1423.57893,0.00334
1421.51876,0.00345
1419.45859,0.00355
1417.39842,0.00368
1415.33824,0.00381
1413.27807,0.00387
1411.21790,0.00384
1409.15773,0.00381
1407.09756,0.00377
1405.03738,0.00366
1402.97721,0.00355
1400.91704,0.00354
1398.85687,0.00347
1396.79670,0.00332
1394.73652,0.00329
1392.67635,0.00333
1390.61618,0.00331
1388.55601,0.00328
1386.49583,0.00330
1384.43566,0.00334
1382.37549,0.00338
1380.31532,0.00344
1378.25515,0.00349
1376.19497,0.00355
1374.13480,0.00363
1372.07463,0.00363
1370.01446,0.00355
1367.95429,0.00345
1365.89411,0.00340
1363.83394,0.00334
1361.77377,0.00328
1359.71360,0.00331
1357.65343,0.00342
1355.59325,0.00347
1353.53308,0.00340
1351.47291,0.00335
1349.41274,0.00335
1347.35256,0.00331
1345.29239,0.00322
1343.23222,0.00312
1341.17205,0.00308
1339.11188,0.00304
1337.05170,0.00301
1334.99153,0.00303
1332.93136,0.00308
1330.87119,0.00313
1328.81102,0.00315
1326.75084,0.00307
1324.69067,0.00298
1322.63050,0.00301
1320.57033,0.00311
1318.51015,0.00312
1316.44998,0.00308
1314.38981,0.00304
1312.32964,0.00304
1310.26947,0.00312
1308.20929,0.00321
1306.14912,0.00325
1304.08895,0.00329
1302.02878,0.00333
1299.96861,0.00337
1297.90843,0.00351
1295.84826,0.00370
1293.78809,0.00374
1291.72792,0.00363
1289.66775,0.00357
1287.60757,0.00358
1285.54740,0.00359
1283.48723,0.00360
1281.42706,0.00366
1279.36688,0.00373
1277.30671,0.00381
1275.24654,0.00390
1273.18637,0.00390
1271.12620,0.00378
1269.06602,0.00365
1267.00585,0.00356
1264.94568,0.00356
1262.88551,0.00369
1260.82534,0.00384
1258.76516,0.00391
1256.70499,0.00393
1254.64482,0.00393
1252.58465,0.00395
1250.52447,0.00394
1248.46430,0.00383
1246.40413,0.00369
1244.34396,0.00362
1242.28379,0.00365
1240.22361,0.00372
1238.16344,0.00371
1236.10327,0.00357
1234.04310,0.00341
1231.98293,0.00333
1229.92275,0.00335
1227.86258,0.00340
1225.80241,0.00338
1223.74224,0.00326
1221.68207,0.00313
1219.62189,0.00303
1217.56172,0.00293
1215.50155,0.00292
1213.44138,0.00293
1211.38120,0.00283
1209.32103,0.00267
1207.26086,0.00257
1205.20069,0.00256
1203.14052,0.00253
1201.08034,0.00244
1199.02017,0.00239
1196.96000,0.00248
1194.89983,0.00264
1192.83966,0.00274
1190.77948,0.00278
1188.71931,0.00278
1186.65914,0.00280
1184.59897,0.00293
1182.53880,0.00314
1180.47862,0.00337
1178.41845,0.00364
1176.35828,0.00393
1174.29811,0.00424
1172.23793,0.00456
1170.17776,0.00483
1168.11759,0.00501
1166.05742,0.00514
1163.99725,0.00532
1161.93707,0.00553
1159.87690,0.00577
1157.81673,0.00605
1155.75656,0.00633
1153.69639,0.00668
1151.63621,0.00709
1149.57604,0.00745
1147.51587,0.00781
1145.45570,0.00822
1143.39552,0.00862
1141.33535,0.00900
1139.27518,0.00931
1137.21501,0.00962
1135.15484,0.01013
1133.09466,0.01087
1131.03449,0.01170
1128.97432,0.01239
1126.91415,0.01298
1124.85398,0.01374
1122.79380,0.01470
1120.73363,0.01567
1118.67346,0.01663
1116.61329,0.01756
1114.55312,0.01843
1112.49294,0.01925
1110.43277,0.02010
1108.37260,0.02095
1106.31243,0.02171
1104.25225,0.02245
1102.19208,0.02333
1100.13191,0.02422
1098.07174,0.02494
1096.01157,0.02559
1093.95139,0.02627
1091.89122,0.02696
1089.83105,0.02774
1087.77088,0.02840
1085.71071,0.02886
1083.65053,0.02939
1081.59036,0.03008
1079.53019,0.03078
1077.47002,0.03135
1075.40985,0.03184
1073.34967,0.03226
1071.28950,0.03257
1069.22933,0.03289
1067.16916,0.03323
1065.10898,0.03340
1063.04881,0.03328
1060.98864,0.03309
1058.92847,0.03293
1056.86830,0.03260
1054.80812,0.03209
1052.74795,0.03142
1050.68778,0.03057
1048.62761,0.02967
1046.56744,0.02870
1044.50726,0.02754
1042.44709,0.02629
1040.38692,0.02512
1038.32675,0.02399
1036.26657,0.02289
1034.20640,0.02173
1032.14623,0.02044
1030.08606,0.01919
1028.02589,0.01826
1025.96571,0.01760
1023.90554,0.01696
1021.84537,0.01635
1019.78520,0.01587
1017.72503,0.01555
1015.66485,0.01532
1013.60468,0.01514
1011.54451,0.01504
1009.48434,0.01506
1007.42417,0.01538
1005.36399,0.01601
1003.30382,0.01671
1001.24365,0.01746
999.18348,0.01831
997.12330,0.01913
995.06313,0.01982
993.00296,0.02046
990.94279,0.02113
988.88262,0.02183
986.82244,0.02246
984.76227,0.02292
982.70210,0.02330
980.64193,0.02355
978.58176,0.02357
976.52158,0.02361
974.46141,0.02357
972.40124,0.02318
970.34107,0.02268
968.28089,0.02218
966.22072,0.02145
964.16055,0.02053
962.10038,0.01977
960.04021,0.01908
957.98003,0.01828
955.91986,0.01753
953.85969,0.01693
951.79952,0.01640
949.73935,0.01591
947.67917,0.01537
945.61900,0.01476
943.55883,0.01421
941.49866,0.01381
939.43849,0.01333
937.37831,0.01274
935.31814,0.01224
933.25797,0.01175
931.19780,0.01127
929.13762,0.01105
927.07745,0.01109
925.01728,0.01099
922.95711,0.01063
920.89694,0.01028
918.83676,0.01012
916.77659,0.01002
914.71642,0.00983
912.65625,0.00967
910.59608,0.00949
908.53590,0.00926
906.47573,0.00921
904.41556,0.00934
902.35539,0.00953
900.29522,0.00966
898.23504,0.00973
896.17487,0.00991
894.11470,0.01029
892.05453,0.01067
889.99435,0.01083
887.93418,0.01113
885.87401,0.01178
883.81384,0.01223
881.75367,0.01240
879.69349,0.01268
877.63332,0.01320
875.57315,0.01382
873.51298,0.01449
871.45281,0.01501
869.39263,0.01532
867.33246,0.01567
865.27229,0.01611
863.21212,0.01645
861.15194,0.01671
859.09177,0.01691
857.03160,0.01698
854.97143,0.01695
852.91126,0.01689
850.85108,0.01668
848.79091,0.01643
846.73074,0.01651
844.67057,0.01662
842.61040,0.01632
840.55022,0.01582
838.49005,0.01561
836.42988,0.01545
834.36971,0.01493
832.30954,0.01439
830.24936,0.01396
828.18919,0.01358
826.12902,0.01336
824.06885,0.01321
822.00867,0.01290
819.94850,0.01255
817.88833,0.01228
815.82816,0.01206
813.76799,0.01212
811.70781,0.01244
809.64764,0.01250
807.58747,0.01218
805.52730,0.01169
803.46713,0.01131
801.40695,0.01126
799.34678,0.01123
797.28661,0.01103
795.22644,0.01107
793.16627,0.01121
791.10609,0.01111
789.04592,0.01090
786.98575,0.01077
784.92558,0.01079
782.86540,0.01098
780.80523,0.01121
778.74506,0.01132
776.68489,0.01116
774.62472,0.01095
772.56454,0.01109
770.50437,0.01137
768.44420,0.01137
766.38403,0.01104
764.32386,0.01045
762.26368,0.01012
760.20351,0.01060
758.14334,0.01129
756.08317,0.01153
754.02299,0.01148
751.96282,0.01127
749.90265,0.01098
747.84248,0.01085
745.78231,0.01110
743.72213,0.01154
741.66196,0.01162
739.60179,0.01144
737.54162,0.01155
735.48145,0.01187
733.42127,0.01190
731.36110,0.01171
729.30093,0.01155
727.24076,0.01136
725.18059,0.01131
723.12041,0.01142
721.06024,0.01231
719.00007,0.01128
716.93990,0.01098
714.87972,0.01160
712.81955,0.01195
710.75938,0.01208
708.69921,0.01194
706.63904,0.01168
704.57886,0.01160
702.51869,0.01174
700.45852,0.01177
698.39835,0.01142
696.33818,0.01099
694.27800,0.01087
692.21783,0.01083
690.15766,0.01043
688.09749,0.00976
686.03731,0.00932
683.97714,0.00935
681.91697,0.00978
679.85680,0.01036
677.79663,0.01079
675.73645,0.01072
673.67628,0.00755
671.61611,0.00000
669.55594,0.00588
667.49577,0.02009
665.43559,0.00209
663.37542,0.00605
661.31525,0.01047
659.25508,0.00909
657.19491,0.00739
655.13473,0.00730
653.07456,0.00778
651.01439,0.00785
648.95422,0.00763
646.89404,0.00662
644.83387,0.00635
642.77370,0.00605
640.71353,0.00545
638.65336,0.00480
636.59318,0.00432
634.53301,0.00438
632.47284,0.00504
630.41267,0.00580
628.35250,0.00600
626.29232,0.00508
624.23215,0.00468
622.17198,0.00537
620.11181,0.00577
618.05164,0.00462
615.99146,0.00254
613.93129,0.00102
611.87112,0.00042
609.81095,0.00083
607.75077,0.00146
605.69060,0.00082
603.63043,-0.00049
601.57026,-0.00064
599.51009,0.00000
