3996.73391,0.00029
3994.67373,0.00044
3992.61356,0.00049
3990.55339,0.00057
3988.49322,0.00067
3986.43305,0.00060
3984.37287,0.00023
3982.31270,-0.00016
3980.25253,-0.00014
3978.19236,0.00020
3976.13219,0.00047
3974.07201,0.00045
3972.01184,0.00025
3969.95167,0.00016
3967.89150,0.00023
3965.83133,0.00023
3963.77115,0.00011
3961.71098,-0.00001
3959.65081,0.00000
3957.59064,0.00020
3955.53046,0.00046
3953.47029,0.00048
3951.41012,0.00029
3949.34995,0.00020
3947.28978,0.00040
3945.22960,0.00081
3943.16943,0.00111
3941.10926,0.00106
3939.04909,0.00078
3936.98892,0.00043
3934.92874,0.00011
3932.86857,0.00006
3930.80840,0.00045
3928.74823,0.00094
3926.68805,0.00110
3924.62788,0.00093
3922.56771,0.00064
3920.50754,0.00038
3918.44737,0.00024
3916.38719,0.00043
3914.32702,0.00084
3912.26685,0.00113
3910.20668,0.00115
3908.14651,0.00090
3906.08633,0.00062
3904.02616,0.00041
3901.96599,0.00039
3899.90582,0.00063
3897.84565,0.00079
3895.78547,0.00082
3893.72530,0.00097
3891.66513,0.00109
3889.60496,0.00088
3887.54478,0.00052
3885.48461,0.00036
3883.42444,0.00052
3881.36427,0.00082
3879.30410,0.00096
3877.24392,0.00083
3875.18375,0.00057
3873.12358,0.00050
3871.06341,0.00073
3869.00324,0.00099
3866.94306,0.00097
3864.88289,0.00078
3862.82272,0.00065
3860.76255,0.00059
3858.70237,0.00039
3856.64220,0.00002
3854.58203,0.00000
3852.52186,0.00043
3850.46169,0.00065
3848.40151,0.00056
3846.34134,0.00064
3844.28117,0.00077
3842.22100,0.00055
3840.16083,0.00014
3838.10065,0.00001
3836.04048,0.00017
3833.98031,0.00037
3831.92014,0.00050
3829.85997,0.00058
3827.79979,0.00057
3825.73962,0.00047
3823.67945,0.00032
3821.61928,0.00025
3819.55910,0.00036
3817.49893,0.00062
3815.43876,0.00092
3813.37859,0.00100
3811.31842,0.00084
3809.25824,0.00076
3807.19807,0.00082
3805.13790,0.00084
3803.07773,0.00089
3801.01756,0.00105
3798.95738,0.00118
3796.89721,0.00119
3794.83704,0.00115
3792.77687,0.00111
3790.71670,0.00107
3788.65652,0.00108
3786.59635,0.00124
3784.53618,0.00151
3782.47601,0.00173
3780.41583,0.00180
3778.35566,0.00168
3776.29549,0.00152
3774.23532,0.00141
3772.17515,0.00132
3770.11497,0.00119
3768.05480,0.00104
3765.99463,0.00090
3763.93446,0.00077
3761.87429,0.00070
3759.81411,0.00075
3757.75394,0.00074
3755.69377,0.00054
3753.63360,0.00041
3751.57342,0.00051
3749.51325,0.00050
3747.45308,0.00038
3745.39291,0.00040
3743.33274,0.00060
3741.27256,0.00065
3739.21239,0.00054
3737.15222,0.00063
3735.09205,0.00079
3733.03188,0.00084
3730.97170,0.00090
3728.91153,0.00095
3726.85136,0.00087
3724.79119,0.00078
3722.73102,0.00092
3720.67084,0.00122
3718.61067,0.00131
3716.55050,0.00112
3714.49033,0.00085
3712.43015,0.00068
3710.36998,0.00062
3708.30981,0.00073
3706.24964,0.00088
3704.18947,0.00110
3702.12929,0.00133
3700.06912,0.00149
3698.00895,0.00165
3695.94878,0.00175
3693.88861,0.00172
3691.82843,0.00157
3689.76826,0.00133
3687.70809,0.00115
3685.64792,0.00119
3683.58775,0.00125
3681.52757,0.00131
3679.46740,0.00142
3677.40723,0.00155
3675.34706,0.00170
3673.28688,0.00184
3671.22671,0.00190
3669.16654,0.00192
3667.10637,0.00192
3665.04620,0.00193
3662.98602,0.00195
3660.92585,0.00191
3658.86568,0.00186
3656.80551,0.00193
3654.74534,0.00208
3652.68516,0.00229
3650.62499,0.00265
3648.56482,0.00296
3646.50465,0.00307
3644.44447,0.00304
3642.38430,0.00309
3640.32413,0.00328
3638.26396,0.00342
3636.20379,0.00355
3634.14361,0.00381
3632.08344,0.00418
3630.02327,0.00452
3627.96310,0.00456
3625.90293,0.00445
3623.84275,0.00446
3621.78258,0.00451
3619.72241,0.00444
3617.66224,0.00428
3615.60207,0.00418
3613.54189,0.00423
3611.48172,0.00448
3609.42155,0.00483
3607.36138,0.00513
3605.30120,0.00534
3603.24103,0.00551
3601.18086,0.00580
3599.12069,0.00620
3597.06052,0.00665
3595.00034,0.00703
3592.94017,0.00724
3590.88000,0.00717
3588.81983,0.00695
3586.75966,0.00676
3584.69948,0.00680
3582.63931,0.00707
3580.57914,0.00742
3578.51897,0.00767
3576.45879,0.00779
3574.39862,0.00787
3572.33845,0.00803
3570.27828,0.00828
3568.21811,0.00860
3566.15793,0.00886
3564.09776,0.00890
3562.03759,0.00885
3559.97742,0.00895
3557.91725,0.00923
3555.85707,0.00951
3553.79690,0.00976
3551.73673,0.00992
3549.67656,0.00984
3547.61639,0.00973
3545.55621,0.00997
3543.49604,0.01045
3541.43587,0.01065
3539.37570,0.01062
3537.31552,0.01068
3535.25535,0.01087
3533.19518,0.01121
3531.13501,0.01153
3529.07484,0.01161
3527.01466,0.01162
3524.95449,0.01168
3522.89432,0.01161
3520.83415,0.01147
3518.77398,0.01148
3516.71380,0.01170
3514.65363,0.01198
3512.59346,0.01232
3510.53329,0.01280
3508.47312,0.01317
3506.41294,0.01322
3504.35277,0.01312
3502.29260,0.01311
3500.23243,0.01330
3498.17225,0.01368
3496.11208,0.01405
3494.05191,0.01410
3491.99174,0.01393
3489.93157,0.01392
3487.87139,0.01410
3485.81122,0.01433
3483.75105,0.01451
3481.69088,0.01463
3479.63071,0.01465
3477.57053,0.01472
3475.51036,0.01493
3473.45019,0.01515
3471.39002,0.01532
3469.32984,0.01556
3467.26967,0.01592
3465.20950,0.01613
3463.14933,0.01607
3461.08916,0.01604
3459.02898,0.01608
3456.96881,0.01604
3454.90864,0.01604
3452.84847,0.01615
3450.78830,0.01630
3448.72812,0.01656
3446.66795,0.01686
3444.60778,0.01703
3442.54761,0.01705
3440.48744,0.01704
3438.42726,0.01717
3436.36709,0.01758
3434.30692,0.01801
3432.24675,0.01813
3430.18657,0.01797
3428.12640,0.01772
3426.06623,0.01762
3424.00606,0.01779
3421.94589,0.01803
3419.88571,0.01815
3417.82554,0.01829
3415.76537,0.01853
3413.70520,0.01865
3411.64503,0.01866
3409.58485,0.01872
3407.52468,0.01873
3405.46451,0.01871
3403.40434,0.01872
3401.34416,0.01875
3399.28399,0.01870
3397.22382,0.01886
3395.16365,0.01893
3393.10348,0.01906
3391.04330,0.01930
3388.98313,0.01937
3386.92296,0.01937
3384.86279,0.01945
3382.80262,0.01954
3380.74244,0.01965
3378.68227,0.01974
3376.62210,0.01975
3374.56193,0.01980
3372.50176,0.01992
3370.44158,0.01992
3368.38141,0.01978
3366.32124,0.01973
3364.26107,0.01981
3362.20089,0.01999
3360.14072,0.02026
3358.08055,0.02042
3356.02038,0.02053
3353.96021,0.02060
3351.90003,0.02046
3349.83986,0.02028
3347.77969,0.02038
3345.71952,0.02067
3343.65935,0.02080
3341.59917,0.02075
3339.53900,0.02074
3337.47883,0.02076
3335.41866,0.02081
3333.35849,0.02087
3331.29831,0.02082
3329.23814,0.02071
3327.17797,0.02076
3325.11780,0.02096
3323.05762,0.02102
3320.99745,0.02100
3318.93728,0.02105
3316.87711,0.02099
3314.81694,0.02069
3312.75676,0.02044
3310.69659,0.02044
3308.63642,0.02058
3306.57625,0.02072
3304.51608,0.02089
3302.45590,0.02114
3300.39573,0.02129
3298.33556,0.02131
3296.27539,0.02132
3294.21521,0.02122
3292.15504,0.02112
3290.09487,0.02131
3288.03470,0.02159
3285.97453,0.02161
3283.91435,0.02150
3281.85418,0.02149
3279.79401,0.02148
3277.73384,0.02135
3275.67367,0.02134
3273.61349,0.02148
3271.55332,0.02146
3269.49315,0.02136
3267.43298,0.02136
3265.37281,0.02144
3263.31263,0.02155
3261.25246,0.02163
3259.19229,0.02162
3257.13212,0.02156
3255.07194,0.02156
3253.01177,0.02166
3250.95160,0.02176
3248.89143,0.02181
3246.83126,0.02182
3244.77108,0.02187
3242.71091,0.02191
3240.65074,0.02184
3238.59057,0.02181
3236.53040,0.02188
3234.47022,0.02190
3232.41005,0.02183
3230.34988,0.02179
3228.28971,0.02187
3226.22954,0.02183
3224.16936,0.02165
3222.10919,0.02165
3220.04902,0.02180
3217.98885,0.02187
3215.92867,0.02185
3213.86850,0.02183
3211.80833,0.02181
3209.74816,0.02187
3207.68799,0.02187
3205.62781,0.02169
3203.56764,0.02154
3201.50747,0.02156
3199.44730,0.02159
3197.38713,0.02161
3195.32695,0.02174
3193.26678,0.02188
3191.20661,0.02189
3189.14644,0.02182
3187.08626,0.02178
3185.02609,0.02180
3182.96592,0.02190
3180.90575,0.02196
3178.84558,0.02183
3176.78540,0.02163
3174.72523,0.02162
3172.66506,0.02175
3170.60489,0.02180
3168.54472,0.02171
3166.48454,0.02155
3164.42437,0.02135
3162.36420,0.02117
3160.30403,0.02112
3158.24386,0.02106
3156.18368,0.02105
3154.12351,0.02117
3152.06334,0.02120
3150.00317,0.02116
3147.94299,0.02124
3145.88282,0.02129
3143.82265,0.02123
3141.76248,0.02119
3139.70231,0.02126
3137.64213,0.02128
3135.58196,0.02116
3133.52179,0.02100
3131.46162,0.02089
3129.40145,0.02078
3127.34127,0.02068
3125.28110,0.02062
3123.22093,0.02055
3121.16076,0.02046
3119.10058,0.02040
3117.04041,0.02044
3114.98024,0.02047
3112.92007,0.02038
3110.85990,0.02024
3108.79972,0.02022
3106.73955,0.02031
3104.67938,0.02031
3102.61921,0.02014
3100.55904,0.01996
3098.49886,0.01985
3096.43869,0.01991
3094.37852,0.02002
3092.31835,0.02000
3090.25818,0.01987
3088.19800,0.01974
3086.13783,0.01952
3084.07766,0.01940
3082.01749,0.01949
3079.95731,0.01955
3077.89714,0.01948
3075.83697,0.01935
3073.77680,0.01920
3071.71663,0.01910
3069.65645,0.01903
3067.59628,0.01893
3065.53611,0.01890
3063.47594,0.01902
3061.41577,0.01914
3059.35559,0.01913
3057.29542,0.01904
3055.23525,0.01893
3053.17508,0.01888
3051.11491,0.01883
3049.05473,0.01866
3046.99456,0.01850
3044.93439,0.01844
3042.87422,0.01834
3040.81404,0.01815
3038.75387,0.01800
3036.69370,0.01788
3034.63353,0.01779
3032.57336,0.01774
3030.51318,0.01762
3028.45301,0.01744
3026.39284,0.01736
3024.33267,0.01738
3022.27250,0.01742
3020.21232,0.01745
3018.15215,0.01736
3016.09198,0.01714
3014.03181,0.01693
3011.97163,0.01688
3009.91146,0.01691
3007.85129,0.01679
3005.79112,0.01655
3003.73095,0.01644
3001.67077,0.01642
2999.61060,0.01634
2997.55043,0.01620
2995.49026,0.01609
2993.43009,0.01608
2991.36991,0.01616
2989.30974,0.01619
2987.24957,0.01621
2985.18940,0.01626
2983.12923,0.01622
2981.06905,0.01616
2979.00888,0.01606
2976.94871,0.01583
2974.88854,0.01571
2972.82836,0.01575
2970.76819,0.01578
2968.70802,0.01578
2966.64785,0.01576
2964.58768,0.01569
2962.52750,0.01552
2960.46733,0.01538
2958.40716,0.01541
2956.34699,0.01544
2954.28682,0.01533
2952.22664,0.01522
2950.16647,0.01513
2948.10630,0.01509
2946.04613,0.01505
2943.98596,0.01502
2941.92578,0.01508
2939.86561,0.01507
2937.80544,0.01499
2935.74527,0.01494
2933.68509,0.01488
2931.62492,0.01478
2929.56475,0.01461
2927.50458,0.01446
2925.44441,0.01451
2923.38423,0.01467
2921.32406,0.01481
2919.26389,0.01484
2917.20372,0.01468
2915.14355,0.01440
2913.08337,0.01419
2911.02320,0.01403
2908.96303,0.01381
2906.90286,0.01367
2904.84268,0.01375
2902.78251,0.01381
2900.72234,0.01369
2898.66217,0.01351
2896.60200,0.01335
2894.54182,0.01323
2892.48165,0.01309
2890.42148,0.01299
2888.36131,0.01306
2886.30114,0.01318
2884.24096,0.01326
2882.18079,0.01321
2880.12062,0.01295
2878.06045,0.01270
2876.00028,0.01263
2873.94010,0.01255
2871.87993,0.01243
2869.81976,0.01242
2867.75959,0.01238
2865.69941,0.01212
2863.63924,0.01196
2861.57907,0.01215
2859.51890,0.01231
2857.45873,0.01218
2855.39855,0.01200
2853.33838,0.01188
2851.27821,0.01173
2849.21804,0.01161
2847.15787,0.01163
2845.09769,0.01172
2843.03752,0.01168
2840.97735,0.01148
2838.91718,0.01126
2836.85700,0.01111
2834.79683,0.01097
2832.73666,0.01080
2830.67649,0.01066
2828.61632,0.01061
2826.55614,0.01069
2824.49597,0.01075
2822.43580,0.01068
2820.37563,0.01060
2818.31546,0.01054
2816.25528,0.01039
2814.19511,0.01025
2812.13494,0.01021
2810.07477,0.01021
2808.01460,0.01025
2805.95442,0.01030
2803.89425,0.01025
2801.83408,0.01008
2799.77391,0.00990
2797.71373,0.00973
2795.65356,0.00961
2793.59339,0.00950
2791.53322,0.00940
2789.47305,0.00937
2787.41287,0.00937
2785.35270,0.00936
2783.29253,0.00934
2781.23236,0.00930
2779.17219,0.00924
2777.11201,0.00910
2775.05184,0.00893
2772.99167,0.00882
2770.93150,0.00882
2768.87133,0.00887
2766.81115,0.00890
2764.75098,0.00886
2762.69081,0.00872
2760.63064,0.00855
2758.57046,0.00847
2756.51029,0.00850
2754.45012,0.00852
2752.38995,0.00844
2750.32978,0.00841
2748.26960,0.00846
2746.20943,0.00838
2744.14926,0.00814
2742.08909,0.00798
2740.02892,0.00795
2737.96874,0.00800
2735.90857,0.00810
2733.84840,0.00813
2731.78823,0.00800
2729.72805,0.00786
2727.66788,0.00778
2725.60771,0.00766
2723.54754,0.00749
2721.48737,0.00738
2719.42719,0.00735
2717.36702,0.00731
2715.30685,0.00721
2713.24668,0.00713
2711.18651,0.00712
2709.12633,0.00716
2707.06616,0.00726
2705.00599,0.00733
2702.94582,0.00723
2700.88565,0.00705
2698.82547,0.00692
2696.76530,0.00686
2694.70513,0.00692
2692.64496,0.00699
2690.58478,0.00701
2688.52461,0.00703
2686.46444,0.00705
2684.40427,0.00706
2682.34410,0.00703
2680.28392,0.00691
2678.22375,0.00676
2676.16358,0.00675
2674.10341,0.00673
2672.04324,0.00645
2669.98306,0.00615
2667.92289,0.00620
2665.86272,0.00642
2663.80255,0.00645
2661.74238,0.00633
2659.68220,0.00626
2657.62203,0.00628
2655.56186,0.00636
2653.50169,0.00642
2651.44151,0.00630
2649.38134,0.00612
2647.32117,0.00602
2645.26100,0.00598
2643.20083,0.00597
2641.14065,0.00590
2639.08048,0.00582
2637.02031,0.00577
2634.96014,0.00574
2632.89997,0.00575
2630.83979,0.00570
2628.77962,0.00555
2626.71945,0.00545
2624.65928,0.00540
2622.59910,0.00524
2620.53893,0.00506
2618.47876,0.00508
2616.41859,0.00526
2614.35842,0.00535
2612.29824,0.00520
2610.23807,0.00507
2608.17790,0.00510
2606.11773,0.00518
2604.05756,0.00513
2601.99738,0.00499
2599.93721,0.00494
2597.87704,0.00497
2595.81687,0.00508
2593.75670,0.00534
2591.69652,0.00552
2589.63635,0.00540
2587.57618,0.00503
2585.51601,0.00469
2583.45583,0.00459
2581.39566,0.00467
2579.33549,0.00476
2577.27532,0.00488
2575.21515,0.00493
2573.15497,0.00467
2571.09480,0.00435
2569.03463,0.00437
2566.97446,0.00444
2564.91429,0.00443
2562.85411,0.00462
2560.79394,0.00477
2558.73377,0.00466
2556.67360,0.00463
2554.61342,0.00475
2552.55325,0.00490
2550.49308,0.00505
2548.43291,0.00499
2546.37274,0.00475
2544.31256,0.00464
2542.25239,0.00460
2540.19222,0.00455
2538.13205,0.00457
2536.07188,0.00466
2534.01170,0.00473
2531.95153,0.00477
2529.89136,0.00475
2527.83119,0.00464
2525.77102,0.00465
2523.71084,0.00476
2521.65067,0.00476
2519.59050,0.00466
2517.53033,0.00459
2515.47015,0.00475
2513.40998,0.00505
2511.34981,0.00511
2509.28964,0.00500
2507.22947,0.00503
2505.16929,0.00509
2503.10912,0.00488
2501.04895,0.00459
2498.98878,0.00458
2496.92861,0.00472
2494.86843,0.00467
2492.80826,0.00444
2490.74809,0.00440
2488.68792,0.00456
2486.62775,0.00480
2484.56757,0.00501
2482.50740,0.00505
2480.44723,0.00500
2478.38706,0.00498
2476.32688,0.00499
2474.26671,0.00498
2472.20654,0.00493
2470.14637,0.00501
2468.08620,0.00519
2466.02602,0.00522
2463.96585,0.00524
2461.90568,0.00536
2459.84551,0.00536
2457.78534,0.00532
2455.72516,0.00535
2453.66499,0.00534
2451.60482,0.00513
2449.54465,0.00469
2447.48447,0.00433
2445.42430,0.00442
2443.36413,0.00477
2441.30396,0.00498
2439.24379,0.00492
2437.18361,0.00481
2435.12344,0.00489
2433.06327,0.00498
2431.00310,0.00486
2428.94293,0.00468
2426.88275,0.00472
2424.82258,0.00486
2422.76241,0.00487
2420.70224,0.00478
2418.64207,0.00477
2416.58189,0.00485
2414.52172,0.00484
2412.46155,0.00474
2410.40138,0.00479
2408.34120,0.00497
2406.28103,0.00503
2404.22086,0.00500
2402.16069,0.00505
2400.10052,0.00513
2398.04034,0.00451
2395.98017,0.00441
2393.92000,0.00462
2391.85983,0.00488
2389.79966,0.00518
2387.73948,0.00556
2385.67931,0.00590
2383.61914,0.00605
2381.55897,0.00592
2379.49880,0.00559
2377.43862,0.00522
2375.37845,0.00521
2373.31828,0.00534
2371.25811,0.00552
2369.19793,0.00615
2367.13776,0.00691
2365.07759,0.00764
2363.01742,0.00913
2360.95725,0.00958
2358.89707,0.00999
2356.83690,0.01026
2354.77673,0.01004
2352.71656,0.00905
2350.65639,0.00690
2348.59621,0.00602
2346.53604,0.00842
2344.47587,0.00854
2342.41570,0.00786
2340.35552,0.00788
2338.29535,0.00805
2336.23518,0.00839
2334.17501,0.00850
2332.11484,0.00813
2330.05466,0.00743
2327.99449,0.00735
2325.93432,0.00725
2323.87415,0.00738
2321.81398,0.00698
2319.75380,0.00649
2317.69363,0.00547
2315.63346,0.00503
2313.57329,0.00518
2311.51312,0.00525
2309.45294,0.00520
2307.39277,0.00504
2305.33260,0.00486
2303.27243,0.00477
2301.21225,0.00488
2299.15208,0.00502
2297.09191,0.00536
2295.03174,0.00582
2292.97157,0.00599
2290.91139,0.00594
2288.85122,0.00584
2286.79105,0.00553
2284.73088,0.00496
2282.67071,0.00439
2280.61053,0.00412
2278.55036,0.00415
2276.49019,0.00431
2274.43002,0.00437
2272.36984,0.00437
2270.30967,0.00442
2268.24950,0.00453
2266.18933,0.00467
2264.12916,0.00466
2262.06898,0.00438
2260.00881,0.00415
2257.94864,0.00416
2255.88847,0.00429
2253.82830,0.00428
2251.76812,0.00397
2249.70795,0.00367
2247.64778,0.00407
2245.58761,0.00441
2243.52744,0.00435
2241.46726,0.00409
2239.40709,0.00378
2237.34692,0.00362
2235.28675,0.00371
2233.22657,0.00368
2231.16640,0.00351
2229.10623,0.00373
2227.04606,0.00388
2224.98589,0.00346
2222.92571,0.00323
2220.86554,0.00334
2218.80537,0.00322
2216.74520,0.00342
2214.68503,0.00410
2212.62485,0.00396
2210.56468,0.00290
2208.50451,0.00234
2206.44434,0.00229
2204.38417,0.00242
2202.32399,0.00293
2200.26382,0.00320
2198.20365,0.00324
2196.14348,0.00345
2194.08330,0.00354
2192.02313,0.00338
2189.96296,0.00314
2187.90279,0.00307
2185.84262,0.00307
2183.78244,0.00278
2181.72227,0.00250
2179.66210,0.00273
2177.60193,0.00244
2175.54176,0.00190
2173.48158,0.00259
2171.42141,0.00357
2169.36124,0.00345
2167.30107,0.00268
2165.24089,0.00239
2163.18072,0.00259
2161.12055,0.00172
2159.06038,0.00019
2157.00021,0.00054
2154.94003,0.00197
2152.87986,0.00230
2150.81969,0.00148
2148.75952,0.00123
2146.69935,0.00246
2144.63917,0.00351
2142.57900,0.00330
2140.51883,0.00283
2138.45866,0.00245
2136.39849,0.00193
2134.33831,0.00183
2132.27814,0.00222
2130.21797,0.00257
2128.15780,0.00271
2126.09762,0.00270
2124.03745,0.00242
2121.97728,0.00214
2119.91711,0.00254
2117.85694,0.00303
2115.79676,0.00275
2113.73659,0.00258
2111.67642,0.00293
2109.61625,0.00303
2107.55608,0.00273
2105.49590,0.00250
2103.43573,0.00239
2101.37556,0.00239
2099.31539,0.00271
2097.25521,0.00270
2095.19504,0.00246
2093.13487,0.00229
2091.07470,0.00214
2089.01453,0.00206
2086.95435,0.00224
2084.89418,0.00245
2082.83401,0.00249
2080.77384,0.00258
2078.71367,0.00285
2076.65349,0.00321
2074.59332,0.00350
2072.53315,0.00333
2070.47298,0.00272
2068.41281,0.00228
2066.35263,0.00198
2064.29246,0.00162
2062.23229,0.00163
2060.17212,0.00200
2058.11194,0.00207
2056.05177,0.00186
2053.99160,0.00199
2051.93143,0.00269
2049.87126,0.00326
2047.81108,0.00323
2045.75091,0.00306
2043.69074,0.00290
2041.63057,0.00246
2039.57040,0.00190
2037.51022,0.00155
2035.45005,0.00178
2033.38988,0.00260
2031.32971,0.00290
2029.26954,0.00228
2027.20936,0.00172
2025.14919,0.00185
2023.08902,0.00201
2021.02885,0.00179
2018.96867,0.00205
2016.90850,0.00258
2014.84833,0.00275
2012.78816,0.00351
2010.72799,0.00451
2008.66781,0.00415
2006.60764,0.00297
2004.54747,0.00239
2002.48730,0.00191
2000.42713,0.00080
1998.36695,0.00000
1996.30678,0.00040
1994.24661,0.00115
1992.18644,0.00164
1990.12626,0.00207
1988.06609,0.00203
1986.00592,0.00151
1983.94575,0.00155
1981.88558,0.00248
1979.82540,0.00307
1977.76523,0.00272
1975.70506,0.00277
1973.64489,0.00333
1971.58472,0.00306
1969.52454,0.00229
1967.46437,0.00201
1965.40420,0.00165
1963.34403,0.00103
1961.28386,0.00085
1959.22368,0.00112
1957.16351,0.00173
1955.10334,0.00214
1953.04317,0.00164
1950.98299,0.00069
1948.92282,0.00025
1946.86265,0.00046
1944.80248,0.00068
1942.74231,0.00061
1940.68213,0.00067
1938.62196,0.00106
1936.56179,0.00155
1934.50162,0.00195
1932.44145,0.00197
1930.38127,0.00154
1928.32110,0.00117
1926.26093,0.00121
1924.20076,0.00157
1922.14059,0.00174
1920.08041,0.00131
1918.02024,0.00084
1915.96007,0.00091
1913.89990,0.00113
1911.83972,0.00111
1909.77955,0.00087
1907.71938,0.00058
1905.65921,0.00052
1903.59904,0.00087
1901.53886,0.00141
1899.47869,0.00174
1897.41852,0.00174
1895.35835,0.00146
1893.29818,0.00119
1891.23800,0.00118
1889.17783,0.00129
1887.11766,0.00140
1885.05749,0.00158
1882.99731,0.00164
1880.93714,0.00148
1878.87697,0.00134
1876.81680,0.00141
1874.75663,0.00156
1872.69645,0.00153
1870.63628,0.00126
1868.57611,0.00092
1866.51594,0.00074
1864.45577,0.00079
1862.39559,0.00091
1860.33542,0.00100
1858.27525,0.00099
1856.21508,0.00103
1854.15491,0.00122
1852.09473,0.00129
1850.03456,0.00116
1847.97439,0.00114
1845.91422,0.00129
1843.85404,0.00129
1841.79387,0.00103
1839.73370,0.00076
1837.67353,0.00078
1835.61336,0.00099
1833.55318,0.00118
1831.49301,0.00136
1829.43284,0.00151
1827.37267,0.00151
1825.31250,0.00145
1823.25232,0.00143
1821.19215,0.00132
1819.13198,0.00111
1817.07181,0.00102
1815.01163,0.00108
1812.95146,0.00107
1810.89129,0.00093
1808.83112,0.00087
1806.77095,0.00085
1804.71077,0.00077
1802.65060,0.00074
1800.59043,0.00086
1798.53026,0.00099
1796.47009,0.00103
1794.40991,0.00103
1792.34974,0.00104
1790.28957,0.00107
1788.22940,0.00109
1786.16923,0.00108
1784.10905,0.00119
1782.04888,0.00134
1779.98871,0.00128
1777.92854,0.00112
1775.86836,0.00115
1773.80819,0.00133
1771.74802,0.00131
1769.68785,0.00101
1767.62768,0.00086
1765.56750,0.00093
1763.50733,0.00101
1761.44716,0.00113
1759.38699,0.00130
1757.32682,0.00141
1755.26664,0.00148
1753.20647,0.00163
1751.14630,0.00177
1749.08613,0.00175
1747.02596,0.00169
1744.96578,0.00174
1742.90561,0.00183
1740.84544,0.00188
1738.78527,0.00191
1736.72509,0.00197
1734.66492,0.00209
1732.60475,0.00221
1730.54458,0.00231
1728.48441,0.00232
1726.42423,0.00234
1724.36406,0.00240
1722.30389,0.00238
1720.24372,0.00242
1718.18355,0.00271
1716.12337,0.00304
1714.06320,0.00306
1712.00303,0.00283
1709.94286,0.00266
1707.88268,0.00269
1705.82251,0.00283
1703.76234,0.00293
1701.70217,0.00305
1699.64200,0.00326
1697.58182,0.00353
1695.52165,0.00380
1693.46148,0.00402
1691.40131,0.00420
1689.34114,0.00449
1687.28096,0.00488
1685.22079,0.00529
1683.16062,0.00556
1681.10045,0.00577
1679.04028,0.00600
1676.98010,0.00630
1674.91993,0.00678
1672.85976,0.00737
1670.79959,0.00787
1668.73941,0.00816
1666.67924,0.00828
1664.61907,0.00839
1662.55890,0.00849
1660.49873,0.00850
1658.43855,0.00849
1656.37838,0.00856
1654.31821,0.00874
1652.25804,0.00893
1650.19787,0.00910
1648.13769,0.00916
1646.07752,0.00915
1644.01735,0.00903
1641.95718,0.00891
1639.89701,0.00890
1637.83683,0.00904
1635.77666,0.00901
1633.71649,0.00863
1631.65632,0.00826
1629.59614,0.00810
1627.53597,0.00808
1625.47580,0.00807
1623.41563,0.00796
1621.35546,0.00772
1619.29528,0.00747
1617.23511,0.00730
1615.17494,0.00712
1613.11477,0.00696
1611.05460,0.00692
1608.99442,0.00697
1606.93425,0.00695
1604.87408,0.00683
1602.81391,0.00671
1600.75373,0.00660
1598.69356,0.00652
1596.63339,0.00643
1594.57322,0.00630
1592.51305,0.00607
1590.45287,0.00585
1588.39270,0.00573
1586.33253,0.00564
1584.27236,0.00549
1582.21219,0.00530
1580.15201,0.00515
1578.09184,0.00507
1576.03167,0.00495
1573.97150,0.00468
1571.91133,0.00444
1569.85115,0.00433
1567.79098,0.00419
1565.73081,0.00407
1563.67064,0.00409
1561.61046,0.00429
1559.55029,0.00436
1557.49012,0.00383
1555.42995,0.00333
1553.36978,0.00318
1551.30960,0.00317
1549.24943,0.00309
1547.18926,0.00306
1545.12909,0.00328
1543.06892,0.00360
1541.00874,0.00362
1538.94857,0.00323
1536.88840,0.00287
1534.82823,0.00273
1532.76805,0.00269
1530.70788,0.00257
1528.64771,0.00242
1526.58754,0.00220
1524.52737,0.00196
1522.46719,0.00181
1520.40702,0.00179
1518.34685,0.00194
1516.28668,0.00198
1514.22651,0.00174
1512.16633,0.00155
1510.10616,0.00167
1508.04599,0.00185
1505.98582,0.00164
1503.92565,0.00132
1501.86547,0.00124
1499.80530,0.00150
1497.74513,0.00177
1495.68496,0.00173
1493.62478,0.00158
1491.56461,0.00159
1489.50444,0.00167
1487.44427,0.00163
1485.38410,0.00148
1483.32392,0.00138
1481.26375,0.00136
1479.20358,0.00136
1477.14341,0.00138
1475.08324,0.00142
1473.02306,0.00147
1470.96289,0.00149
1468.90272,0.00149
1466.84255,0.00162
1464.78238,0.00183
1462.72220,0.00192
1460.66203,0.00195
1458.60186,0.00205
1456.54169,0.00199
1454.48151,0.00176
1452.42134,0.00152
1450.36117,0.00146
1448.30100,0.00157
1446.24083,0.00166
1444.18065,0.00168
1442.12048,0.00172
1440.06031,0.00177
1438.00014,0.00180
1435.93997,0.00175
1433.87979,0.00164
1431.81962,0.00151
1429.75945,0.00151
1427.69928,0.00167
1425.63910,0.00188
1423.57893,0.00196
1421.51876,0.00189
1419.45859,0.00181
1417.39842,0.00184
1415.33824,0.00195
1413.27807,0.00207
1411.21790,0.00207
1409.15773,0.00198
1407.09756,0.00195
1405.03738,0.00194
1402.97721,0.00191
1400.91704,0.00189
1398.85687,0.00183
1396.79670,0.00172
1394.73652,0.00166
1392.67635,0.00157
1390.61618,0.00143
1388.55601,0.00139
1386.49583,0.00150
1384.43566,0.00161
1382.37549,0.00165
1380.31532,0.00164
1378.25515,0.00168
1376.19497,0.00174
1374.13480,0.00173
1372.07463,0.00166
1370.01446,0.00159
1367.95429,0.00152
1365.89411,0.00143
1363.83394,0.00136
1361.77377,0.00126
1359.71360,0.00121
1357.65343,0.00125
1355.59325,0.00130
1353.53308,0.00135
1351.47291,0.00140
1349.41274,0.00140
1347.35256,0.00133
1345.29239,0.00123
1343.23222,0.00114
1341.17205,0.00109
1339.11188,0.00102
1337.05170,0.00096
1334.99153,0.00098
1332.93136,0.00101
1330.87119,0.00102
1328.81102,0.00108
1326.75084,0.00109
1324.69067,0.00100
1322.63050,0.00097
1320.57033,0.00106
1318.51015,0.00112
1316.44998,0.00109
1314.38981,0.00104
1312.32964,0.00105
1310.26947,0.00114
1308.20929,0.00122
1306.14912,0.00128
1304.08895,0.00132
1302.02878,0.00130
1299.96861,0.00125
1297.90843,0.00130
1295.84826,0.00147
1293.78809,0.00161
1291.72792,0.00160
1289.66775,0.00156
1287.60757,0.00154
1285.54740,0.00151
1283.48723,0.00149
1281.42706,0.00152
1279.36688,0.00158
1277.30671,0.00167
1275.24654,0.00176
1273.18637,0.00177
1271.12620,0.00167
1269.06602,0.00154
1267.00585,0.00142
1264.94568,0.00144
1262.88551,0.00160
1260.82534,0.00176
1258.76516,0.00178
1256.70499,0.00179
1254.64482,0.00182
1252.58465,0.00181
1250.52447,0.00175
1248.46430,0.00167
1246.40413,0.00165
1244.34396,0.00164
1242.28379,0.00158
1240.22361,0.00153
1238.16344,0.00148
1236.10327,0.00138
1234.04310,0.00129
1231.98293,0.00127
1229.92275,0.00124
1227.86258,0.00116
1225.80241,0.00111
1223.74224,0.00107
1221.68207,0.00096
1219.62189,0.00075
1217.56172,0.00057
1215.50155,0.00052
1213.44138,0.00053
1211.38120,0.00047
1209.32103,0.00035
1207.26086,0.00030
1205.20069,0.00027
1203.14052,0.00019
1201.08034,0.00008
1199.02017,0.00000
1196.96000,-0.00000
1194.89983,0.00006
1192.83966,0.00007
1190.77948,0.00005
1188.71931,0.00004
1186.65914,0.00003
1184.59897,0.00005
1182.53880,0.00005
1180.47862,0.00008
1178.41845,0.00022
1176.35828,0.00039
1174.29811,0.00060
1172.23793,0.00083
1170.17776,0.00102
1168.11759,0.00111
1166.05742,0.00119
1163.99725,0.00142
1161.93707,0.00171
1159.87690,0.00184
1157.81673,0.00193
1155.75656,0.00212
1153.69639,0.00243
1151.63621,0.00275
1149.57604,0.00297
1147.51587,0.00322
1145.45570,0.00358
1143.39552,0.00395
1141.33535,0.00431
1139.27518,0.00466
1137.21501,0.00503
1135.15484,0.00547
1133.09466,0.00599
1131.03449,0.00654
1128.97432,0.00706
1126.91415,0.00769
1124.85398,0.00860
1122.79380,0.00952
1120.73363,0.01031
1118.67346,0.01111
1116.61329,0.01194
1114.55312,0.01281
1112.49294,0.01369
1110.43277,0.01446
1108.37260,0.01515
1106.31243,0.01585
1104.25225,0.01660
1102.19208,0.01739
1100.13191,0.01818
1098.07174,0.01888
1096.01157,0.01950
1093.95139,0.02011
1091.89122,0.02077
1089.83105,0.02147
1087.77088,0.02208
1085.71071,0.02252
1083.65053,0.02298
1081.59036,0.02365
1079.53019,0.02434
1077.47002,0.02483
1075.40985,0.02517
1073.34967,0.02545
1071.28950,0.02582
1069.22933,0.02623
1067.16916,0.02649
1065.10898,0.02661
1063.04881,0.02658
1060.98864,0.02644
1058.92847,0.02624
1056.86830,0.02597
1054.80812,0.02560
1052.74795,0.02508
1050.68778,0.02438
1048.62761,0.02357
1046.56744,0.02267
1044.50726,0.02170
1042.44709,0.02065
1040.38692,0.01960
1038.32675,0.01858
1036.26657,0.01760
1034.20640,0.01663
1032.14623,0.01560
1030.08606,0.01455
1028.02589,0.01358
1025.96571,0.01266
1023.90554,0.01187
1021.84537,0.01126
1019.78520,0.01080
1017.72503,0.01052
1015.66485,0.01030
1013.60468,0.01004
1011.54451,0.00985
1009.48434,0.00982
1007.42417,0.01004
1005.36399,0.01054
1003.30382,0.01123
1001.24365,0.01193
999.18348,0.01255
997.12330,0.01317
995.06313,0.01383
993.00296,0.01453
990.94279,0.01521
988.88262,0.01583
986.82244,0.01636
984.76227,0.01673
982.70210,0.01706
980.64193,0.01729
978.58176,0.01729
976.52158,0.01726
974.46141,0.01715
972.40124,0.01667
970.34107,0.01601
968.28089,0.01539
966.22072,0.01468
964.16055,0.01393
962.10038,0.01330
960.04021,0.01263
957.98003,0.01177
955.91986,0.01096
953.85969,0.01034
951.79952,0.00975
949.73935,0.00917
947.67917,0.00865
945.61900,0.00809
943.55883,0.00747
941.49866,0.00698
939.43849,0.00664
937.37831,0.00621
935.31814,0.00580
933.25797,0.00546
931.19780,0.00513
929.13762,0.00489
927.07745,0.00477
925.01728,0.00448
922.95711,0.00390
920.89694,0.00343
918.83676,0.00339
916.77659,0.00356
914.71642,0.00353
912.65625,0.00331
910.59608,0.00311
908.53590,0.00289
906.47573,0.00275
904.41556,0.00274
902.35539,0.00275
900.29522,0.00281
898.23504,0.00299
896.17487,0.00324
894.11470,0.00355
892.05453,0.00385
889.99435,0.00412
887.93418,0.00452
885.87401,0.00503
883.81384,0.00542
881.75367,0.00563
879.69349,0.00577
877.63332,0.00603
875.57315,0.00646
873.51298,0.00693
871.45281,0.00733
869.39263,0.00766
867.33246,0.00805
865.27229,0.00844
863.21212,0.00860
861.15194,0.00869
859.09177,0.00895
857.03160,0.00905
854.97143,0.00887
852.91126,0.00877
850.85108,0.00876
848.79091,0.00863
846.73074,0.00843
844.67057,0.00804
842.61040,0.00762
840.55022,0.00757
838.49005,0.00766
836.42988,0.00733
834.36971,0.00675
832.30954,0.00639
830.24936,0.00621
828.18919,0.00613
826.12902,0.00616
824.06885,0.00609
822.00867,0.00578
819.94850,0.00531
817.88833,0.00487
815.82816,0.00450
813.76799,0.00420
811.70781,0.00403
809.64764,0.00405
807.58747,0.00419
805.52730,0.00409
803.46713,0.00399
801.40695,0.00415
799.34678,0.00398
797.28661,0.00335
795.22644,0.00289
793.16627,0.00279
791.10609,0.00291
789.04592,0.00312
786.98575,0.00338
784.92558,0.00376
782.86540,0.00408
780.80523,0.00410
778.74506,0.00396
776.68489,0.00376
774.62472,0.00358
772.56454,0.00347
770.50437,0.00339
768.44420,0.00348
766.38403,0.00372
764.32386,0.00366
762.26368,0.00337
760.20351,0.00321
758.14334,0.00315
756.08317,0.00306
754.02299,0.00300
751.96282,0.00309
749.90265,0.00320
747.84248,0.00320
745.78231,0.00335
743.72213,0.00368
741.66196,0.00377
739.60179,0.00356
737.54162,0.00357
735.48145,0.00374
733.42127,0.00359
731.36110,0.00333
729.30093,0.00339
727.24076,0.00343
725.18059,0.00338
723.12041,0.00365
721.06024,0.00375
719.00007,0.00348
716.93990,0.00357
714.87972,0.00370
712.81955,0.00357
710.75938,0.00345
708.69921,0.00338
706.63904,0.00338
704.57886,0.00361
702.51869,0.00393
700.45852,0.00410
698.39835,0.00403
696.33818,0.00392
694.27800,0.00391
692.21783,0.00391
690.15766,0.00368
688.09749,0.00327
686.03731,0.00317
683.97714,0.00386
681.91697,0.00498
679.85680,0.00567
677.79663,0.00562
675.73645,0.00494
673.67628,0.00313
671.61611,0.00000
669.55594,0.00101
667.49577,0.00529
665.43559,0.00194
663.37542,0.00330
661.31525,0.00379
659.25508,0.00295
657.19491,0.00291
655.13473,0.00368
653.07456,0.00425
651.01439,0.00417
648.95422,0.00365
646.89404,0.00321
644.83387,0.00343
642.77370,0.00355
640.71353,0.00306
638.65336,0.00233
636.59318,0.00173
634.53301,0.00149
632.47284,0.00151
630.41267,0.00151
628.35250,0.00164
626.29232,0.00173
624.23215,0.00162
622.17198,0.00166
620.11181,0.00225
618.05164,0.00245
615.99146,0.00120
613.93129,-0.00013
611.87112,-0.00006
609.81095,0.00047
607.75077,0.00043
605.69060,0.00024
603.63043,0.00031
601.57026,0.00044
599.51009,0.00000
