3996.73391,-0.00040
3994.67373,-0.00063
3992.61356,-0.00064
3990.55339,-0.00031
3988.49322,-0.00003
3986.43305,0.00014
3984.37287,0.00031
3982.31270,0.00034
3980.25253,0.00027
3978.19236,0.00024
3976.13219,0.00012
3974.07201,-0.00003
3972.01184,0.00006
3969.95167,0.00042
3967.89150,0.00078
3965.83133,0.00088
3963.77115,0.00070
3961.71098,0.00052
3959.65081,0.00062
3957.59064,0.00091
3955.53046,0.00121
3953.47029,0.00134
3951.41012,0.00105
3949.34995,0.00034
3947.28978,0.00000
3945.22960,0.00045
3943.16943,0.00094
3941.10926,0.00107
3939.04909,0.00111
3936.98892,0.00103
3934.92874,0.00065
3932.86857,0.00039
3930.80840,0.00072
3928.74823,0.00123
3926.68805,0.00143
3924.62788,0.00125
3922.56771,0.00083
3920.50754,0.00054
3918.44737,0.00055
3916.38719,0.00102
3914.32702,0.00166
3912.26685,0.00197
3910.20668,0.00198
3908.14651,0.00187
3906.08633,0.00153
3904.02616,0.00084
3901.96599,0.00049
3899.90582,0.00098
3897.84565,0.00148
3895.78547,0.00148
3893.72530,0.00115
3891.66513,0.00081
3889.60496,0.00081
3887.54478,0.00103
3885.48461,0.00115
3883.42444,0.00109
3881.36427,0.00111
3879.30410,0.00132
3877.24392,0.00144
3875.18375,0.00128
3873.12358,0.00096
3871.06341,0.00071
3869.00324,0.00079
3866.94306,0.00107
3864.88289,0.00122
3862.82272,0.00120
3860.76255,0.00109
3858.70237,0.00069
3856.64220,-0.00002
3854.58203,0.00000
3852.52186,0.00102
3850.46169,0.00199
3848.40151,0.00204
3846.34134,0.00186
3844.28117,0.00196
3842.22100,0.00217
3840.16083,0.00214
3838.10065,0.00187
3836.04048,0.00187
3833.98031,0.00223
3831.92014,0.00269
3829.85997,0.00318
3827.79979,0.00344
3825.73962,0.00330
3823.67945,0.00309
3821.61928,0.00314
3819.55910,0.00300
3817.49893,0.00282
3815.43876,0.00301
3813.37859,0.00330
3811.31842,0.00333
3809.25824,0.00332
3807.19807,0.00323
3805.13790,0.00314
3803.07773,0.00350
3801.01756,0.00406
3798.95738,0.00424
3796.89721,0.00425
3794.83704,0.00465
3792.77687,0.00519
3790.71670,0.00535
3788.65652,0.00533
3786.59635,0.00541
3784.53618,0.00551
3782.47601,0.00561
3780.41583,0.00582
3778.35566,0.00601
3776.29549,0.00602
3774.23532,0.00581
3772.17515,0.00550
3770.11497,0.00519
3768.05480,0.00489
3765.99463,0.00466
3763.93446,0.00448
3761.87429,0.00436
3759.81411,0.00406
3757.75394,0.00336
3755.69377,0.00277
3753.63360,0.00237
3751.57342,0.00151
3749.51325,0.00038
3747.45308,0.00000
3745.39291,0.00001
3743.33274,0.00085
3741.27256,0.00181
3739.21239,0.00191
3737.15222,0.00167
3735.09205,0.00150
3733.03188,0.00186
3730.97170,0.00270
3728.91153,0.00338
3726.85136,0.00363
3724.79119,0.00367
3722.73102,0.00377
3720.67084,0.00402
3718.61067,0.00404
3716.55050,0.00388
3714.49033,0.00406
3712.43015,0.00476
3710.36998,0.00529
3708.30981,0.00547
3706.24964,0.00570
3704.18947,0.00601
3702.12929,0.00615
3700.06912,0.00604
3698.00895,0.00597
3695.94878,0.00604
3693.88861,0.00625
3691.82843,0.00661
3689.76826,0.00666
3687.70809,0.00651
3685.64792,0.00651
3683.58775,0.00640
3681.52757,0.00624
3679.46740,0.00610
3677.40723,0.00601
3675.34706,0.00606
3673.28688,0.00618
3671.22671,0.00637
3669.16654,0.00668
3667.10637,0.00689
3665.04620,0.00696
3662.98602,0.00706
3660.92585,0.00716
3658.86568,0.00728
3656.80551,0.00750
3654.74534,0.00781
3652.68516,0.00829
3650.62499,0.00887
3648.56482,0.00902
3646.50465,0.00913
3644.44447,0.00907
3642.38430,0.00915
3640.32413,0.00966
3638.26396,0.01010
3636.20379,0.01018
3634.14361,0.01010
3632.08344,0.01004
3630.02327,0.01032
3627.96310,0.01105
3625.90293,0.01169
3623.84275,0.01196
3621.78258,0.01217
3619.72241,0.01230
3617.66224,0.01215
3615.60207,0.01188
3613.54189,0.01184
3611.48172,0.01213
3609.42155,0.01294
3607.36138,0.01408
3605.30120,0.01504
3603.24103,0.01579
3601.18086,0.01641
3599.12069,0.01681
3597.06052,0.01705
3595.00034,0.01733
3592.94017,0.01770
3590.88000,0.01818
3588.81983,0.01860
3586.75966,0.01897
3584.69948,0.01948
3582.63931,0.02008
3580.57914,0.02068
3578.51897,0.02132
3576.45879,0.02188
3574.39862,0.02218
3572.33845,0.02243
3570.27828,0.02281
3568.21811,0.02303
3566.15793,0.02314
3564.09776,0.02358
3562.03759,0.02412
3559.97742,0.02469
3557.91725,0.02536
3555.85707,0.02593
3553.79690,0.02634
3551.73673,0.02655
3549.67656,0.02638
3547.61639,0.02598
3545.55621,0.02613
3543.49604,0.02702
3541.43587,0.02792
3539.37570,0.02860
3537.31552,0.02926
3535.25535,0.02992
3533.19518,0.03048
3531.13501,0.03080
3529.07484,0.03084
3527.01466,0.03073
3524.95449,0.03095
3522.89432,0.03176
3520.83415,0.03281
3518.77398,0.03364
3516.71380,0.03413
3514.65363,0.03440
3512.59346,0.03454
3510.53329,0.03453
3508.47312,0.03455
3506.41294,0.03478
3504.35277,0.03517
3502.29260,0.03564
3500.23243,0.03626
3498.17225,0.03687
3496.11208,0.03733
3494.05191,0.03769
3491.99174,0.03804
3489.93157,0.03840
3487.87139,0.03877
3485.81122,0.03912
3483.75105,0.03947
3481.69088,0.03977
3479.63071,0.03999
3477.57053,0.04036
3475.51036,0.04079
3473.45019,0.04108
3471.39002,0.04144
3469.32984,0.04192
3467.26967,0.04224
3465.20950,0.04237
3463.14933,0.04256
3461.08916,0.04283
3459.02898,0.04311
3456.96881,0.04345
3454.90864,0.04396
3452.84847,0.04442
3450.78830,0.04448
3448.72812,0.04435
3446.66795,0.04455
3444.60778,0.04505
3442.54761,0.04535
3440.48744,0.04534
3438.42726,0.04539
3436.36709,0.04558
3434.30692,0.04581
3432.24675,0.04611
3430.18657,0.04658
3428.12640,0.04715
3426.06623,0.04740
3424.00606,0.04731
3421.94589,0.04731
3419.88571,0.04757
3417.82554,0.04813
3415.76537,0.04870
3413.70520,0.04906
3411.64503,0.04919
3409.58485,0.04912
3407.52468,0.04919
3405.46451,0.04949
3403.40434,0.04964
3401.34416,0.04953
3399.28399,0.04857
3397.22382,0.04878
3395.16365,0.04924
3393.10348,0.04952
3391.04330,0.04979
3388.98313,0.05025
3386.92296,0.05073
3384.86279,0.05106
3382.80262,0.05135
3380.74244,0.05163
3378.68227,0.05187
3376.62210,0.05206
3374.56193,0.05221
3372.50176,0.05224
3370.44158,0.05206
3368.38141,0.05190
3366.32124,0.05205
3364.26107,0.05246
3362.20089,0.05275
3360.14072,0.05286
3358.08055,0.05295
3356.02038,0.05301
3353.96021,0.05300
3351.90003,0.05298
3349.83986,0.05301
3347.77969,0.05309
3345.71952,0.05316
3343.65935,0.05330
3341.59917,0.05342
3339.53900,0.05336
3337.47883,0.05324
3335.41866,0.05330
3333.35849,0.05349
3331.29831,0.05372
3329.23814,0.05395
3327.17797,0.05414
3325.11780,0.05422
3323.05762,0.05431
3320.99745,0.05440
3318.93728,0.05432
3316.87711,0.05415
3314.81694,0.05398
3312.75676,0.05377
3310.69659,0.05372
3308.63642,0.05404
3306.57625,0.05439
3304.51608,0.05466
3302.45590,0.05502
3300.39573,0.05513
3298.33556,0.05490
3296.27539,0.05481
3294.21521,0.05493
3292.15504,0.05503
3290.09487,0.05495
3288.03470,0.05486
3285.97453,0.05499
3283.91435,0.05520
3281.85418,0.05520
3279.79401,0.05493
3277.73384,0.05459
3275.67367,0.05443
3273.61349,0.05447
3271.55332,0.05462
3269.49315,0.05485
3267.43298,0.05501
3265.37281,0.05490
3263.31263,0.05466
3261.25246,0.05464
3259.19229,0.05479
3257.13212,0.05484
3255.07194,0.05477
3253.01177,0.05473
3250.95160,0.05485
3248.89143,0.05494
3246.83126,0.05473
3244.77108,0.05444
3242.71091,0.05434
3240.65074,0.05432
3238.59057,0.05430
3236.53040,0.05427
3234.47022,0.05420
3232.41005,0.05412
3230.34988,0.05399
3228.28971,0.05380
3226.22954,0.05376
3224.16936,0.05390
3222.10919,0.05393
3220.04902,0.05376
3217.98885,0.05367
3215.92867,0.05369
3213.86850,0.05376
3211.80833,0.05380
3209.74816,0.05367
3207.68799,0.05346
3205.62781,0.05332
3203.56764,0.05322
3201.50747,0.05310
3199.44730,0.05293
3197.38713,0.05279
3195.32695,0.05279
3193.26678,0.05273
3191.20661,0.05255
3189.14644,0.05244
3187.08626,0.05231
3185.02609,0.05202
3182.96592,0.05174
3180.90575,0.05157
3178.84558,0.05142
3176.78540,0.05148
3174.72523,0.05172
3172.66506,0.05177
3170.60489,0.05154
3168.54472,0.05122
3166.48454,0.05105
3164.42437,0.05101
3162.36420,0.05092
3160.30403,0.05079
3158.24386,0.05074
3156.18368,0.05071
3154.12351,0.05054
3152.06334,0.05028
3150.00317,0.05005
3147.94299,0.04989
3145.88282,0.04973
3143.82265,0.04960
3141.76248,0.04954
3139.70231,0.04943
3137.64213,0.04921
3135.58196,0.04895
3133.52179,0.04868
3131.46162,0.04855
3129.40145,0.04848
3127.34127,0.04824
3125.28110,0.04788
3123.22093,0.04755
3121.16076,0.04730
3119.10058,0.04716
3117.04041,0.04710
3114.98024,0.04715
3112.92007,0.04721
3110.85990,0.04708
3108.79972,0.04678
3106.73955,0.04647
3104.67938,0.04616
3102.61921,0.04586
3100.55904,0.04575
3098.49886,0.04581
3096.43869,0.04577
3094.37852,0.04566
3092.31835,0.04556
3090.25818,0.04544
3088.19800,0.04537
3086.13783,0.04542
3084.07766,0.04538
3082.01749,0.04507
3079.95731,0.04477
3077.89714,0.04466
3075.83697,0.04457
3073.77680,0.04444
3071.71663,0.04437
3069.65645,0.04425
3067.59628,0.04389
3065.53611,0.04353
3063.47594,0.04343
3061.41577,0.04343
3059.35559,0.04321
3057.29542,0.04286
3055.23525,0.04270
3053.17508,0.04267
3051.11491,0.04250
3049.05473,0.04223
3046.99456,0.04193
3044.93439,0.04163
3042.87422,0.04148
3040.81404,0.04147
3038.75387,0.04145
3036.69370,0.04128
3034.63353,0.04095
3032.57336,0.04053
3030.51318,0.04020
3028.45301,0.03997
3026.39284,0.03978
3024.33267,0.03964
3022.27250,0.03953
3020.21232,0.03946
3018.15215,0.03937
3016.09198,0.03904
3014.03181,0.03851
3011.97163,0.03809
3009.91146,0.03798
3007.85129,0.03802
3005.79112,0.03793
3003.73095,0.03770
3001.67077,0.03755
2999.61060,0.03760
2997.55043,0.03748
2995.49026,0.03735
2993.43009,0.03726
2991.36991,0.03718
2989.30974,0.03704
2987.24957,0.03699
2985.18940,0.03711
2983.12923,0.03721
2981.06905,0.03714
2979.00888,0.03712
2976.94871,0.03719
2974.88854,0.03716
2972.82836,0.03708
2970.76819,0.03711
2968.70802,0.03723
2966.64785,0.03733
2964.58768,0.03744
2962.52750,0.03761
2960.46733,0.03777
2958.40716,0.03786
2956.34699,0.03783
2954.28682,0.03770
2952.22664,0.03760
2950.16647,0.03754
2948.10630,0.03750
2946.04613,0.03755
2943.98596,0.03765
2941.92578,0.03765
2939.86561,0.03754
2937.80544,0.03742
2935.74527,0.03741
2933.68509,0.03761
2931.62492,0.03784
2929.56475,0.03774
2927.50458,0.03738
2925.44441,0.03721
2923.38423,0.03725
2921.32406,0.03739
2919.26389,0.03745
2917.20372,0.03737
2915.14355,0.03721
2913.08337,0.03692
2911.02320,0.03662
2908.96303,0.03645
2906.90286,0.03626
2904.84268,0.03603
2902.78251,0.03586
2900.72234,0.03574
2898.66217,0.03568
2896.60200,0.03562
2894.54182,0.03547
2892.48165,0.03532
2890.42148,0.03520
2888.36131,0.03519
2886.30114,0.03523
2884.24096,0.03530
2882.18079,0.03541
2880.12062,0.03531
2878.06045,0.03497
2876.00028,0.03466
2873.94010,0.03446
2871.87993,0.03434
2869.81976,0.03423
2867.75959,0.03411
2865.69941,0.03402
2863.63924,0.03390
2861.57907,0.03376
2859.51890,0.03360
2857.45873,0.03337
2855.39855,0.03310
2853.33838,0.03289
2851.27821,0.03275
2849.21804,0.03271
2847.15787,0.03262
2845.09769,0.03237
2843.03752,0.03209
2840.97735,0.03184
2838.91718,0.03156
2836.85700,0.03131
2834.79683,0.03120
2832.73666,0.03108
2830.67649,0.03083
2828.61632,0.03059
2826.55614,0.03046
2824.49597,0.03037
2822.43580,0.03019
2820.37563,0.02990
2818.31546,0.02970
2816.25528,0.02965
2814.19511,0.02964
2812.13494,0.02956
2810.07477,0.02931
2808.01460,0.02896
2805.95442,0.02876
2803.89425,0.02867
2801.83408,0.02860
2799.77391,0.02857
2797.71373,0.02850
2795.65356,0.02828
2793.59339,0.02801
2791.53322,0.02784
2789.47305,0.02771
2787.41287,0.02758
2785.35270,0.02740
2783.29253,0.02725
2781.23236,0.02715
2779.17219,0.02706
2777.11201,0.02691
2775.05184,0.02670
2772.99167,0.02647
2770.93150,0.02633
2768.87133,0.02634
2766.81115,0.02627
2764.75098,0.02601
2762.69081,0.02572
2760.63064,0.02550
2758.57046,0.02540
2756.51029,0.02541
2754.45012,0.02550
2752.38995,0.02559
2750.32978,0.02551
2748.26960,0.02525
2746.20943,0.02499
2744.14926,0.02480
2742.08909,0.02466
2740.02892,0.02457
2737.96874,0.02457
2735.90857,0.02448
2733.84840,0.02423
2731.78823,0.02403
2729.72805,0.02398
2727.66788,0.02395
2725.60771,0.02384
2723.54754,0.02370
2721.48737,0.02360
2719.42719,0.02355
2717.36702,0.02353
2715.30685,0.02347
2713.24668,0.02329
2711.18651,0.02318
2709.12633,0.02314
2707.06616,0.02296
2705.00599,0.02270
2702.94582,0.02251
2700.88565,0.02240
2698.82547,0.02234
2696.76530,0.02232
2694.70513,0.02231
2692.64496,0.02224
2690.58478,0.02209
2688.52461,0.02191
2686.46444,0.02178
2684.40427,0.02170
2682.34410,0.02159
2680.28392,0.02153
2678.22375,0.02156
2676.16358,0.02147
2674.10341,0.02128
2672.04324,0.02116
2669.98306,0.02105
2667.92289,0.02096
2665.86272,0.02094
2663.80255,0.02089
2661.74238,0.02077
2659.68220,0.02063
2657.62203,0.02051
2655.56186,0.02050
2653.50169,0.02058
2651.44151,0.02053
2649.38134,0.02030
2647.32117,0.02011
2645.26100,0.02004
2643.20083,0.02010
2641.14065,0.02018
2639.08048,0.02010
2637.02031,0.01994
2634.96014,0.01979
2632.89997,0.01959
2630.83979,0.01946
2628.77962,0.01944
2626.71945,0.01935
2624.65928,0.01928
2622.59910,0.01929
2620.53893,0.01923
2618.47876,0.01913
2616.41859,0.01908
2614.35842,0.01912
2612.29824,0.01916
2610.23807,0.01900
2608.17790,0.01884
2606.11773,0.01884
2604.05756,0.01876
2601.99738,0.01866
2599.93721,0.01868
2597.87704,0.01865
2595.81687,0.01851
2593.75670,0.01843
2591.69652,0.01847
2589.63635,0.01847
2587.57618,0.01833
2585.51601,0.01823
2583.45583,0.01824
2581.39566,0.01824
2579.33549,0.01821
2577.27532,0.01821
2575.21515,0.01827
2573.15497,0.01827
2571.09480,0.01807
2569.03463,0.01801
2566.97446,0.01826
2564.91429,0.01846
2562.85411,0.01845
2560.79394,0.01841
2558.73377,0.01832
2556.67360,0.01819
2554.61342,0.01823
2552.55325,0.01842
2550.49308,0.01851
2548.43291,0.01838
2546.37274,0.01812
2544.31256,0.01792
2542.25239,0.01787
2540.19222,0.01799
2538.13205,0.01822
2536.07188,0.01837
2534.01170,0.01836
2531.95153,0.01829
2529.89136,0.01815
2527.83119,0.01814
2525.77102,0.01839
2523.71084,0.01855
2521.65067,0.01836
2519.59050,0.01811
2517.53033,0.01812
2515.47015,0.01825
2513.40998,0.01827
2511.34981,0.01825
2509.28964,0.01841
2507.22947,0.01870
2505.16929,0.01891
2503.10912,0.01895
2501.04895,0.01879
2498.98878,0.01845
2496.92861,0.01837
2494.86843,0.01864
2492.80826,0.01891
2490.74809,0.01905
2488.68792,0.01906
2486.62775,0.01895
2484.56757,0.01882
2482.50740,0.01878
2480.44723,0.01882
2478.38706,0.01892
2476.32688,0.01912
2474.26671,0.01938
2472.20654,0.01960
2470.14637,0.01975
2468.08620,0.01980
2466.02602,0.01983
2463.96585,0.01991
2461.90568,0.01996
2459.84551,0.01995
2457.78534,0.01981
2455.72516,0.01958
2453.66499,0.01958
2451.60482,0.01974
2449.54465,0.01984
2447.48447,0.01997
2445.42430,0.02011
2443.36413,0.02009
2441.30396,0.02006
2439.24379,0.02006
2437.18361,0.01993
2435.12344,0.01973
2433.06327,0.01964
2431.00310,0.01958
2428.94293,0.01973
2426.88275,0.02003
2424.82258,0.02005
2422.76241,0.01984
2420.70224,0.01969
2418.64207,0.01949
2416.58189,0.01932
2414.52172,0.01936
2412.46155,0.01943
2410.40138,0.01932
2408.34120,0.01923
2406.28103,0.01923
2404.22086,0.01919
2402.16069,0.01911
2400.10052,0.01904
2398.04034,0.01861
2395.98017,0.01878
2393.92000,0.01919
2391.85983,0.01939
2389.79966,0.01941
2387.73948,0.01935
2385.67931,0.01918
2383.61914,0.01879
2381.55897,0.01829
2379.49880,0.01789
2377.43862,0.01781
2375.37845,0.01792
2373.31828,0.01834
2371.25811,0.01896
2369.19793,0.01974
2367.13776,0.02090
2365.07759,0.02188
2363.01742,0.02152
2360.95725,0.02138
2358.89707,0.02107
2356.83690,0.02121
2354.77673,0.02120
2352.71656,0.02101
2350.65639,0.02204
2348.59621,0.02264
2346.53604,0.02022
2344.47587,0.01981
2342.41570,0.02077
2340.35552,0.02135
2338.29535,0.02142
2336.23518,0.02129
2334.17501,0.02105
2332.11484,0.02015
2330.05466,0.01928
2327.99449,0.01873
2325.93432,0.01867
2323.87415,0.01776
2321.81398,0.01705
2319.75380,0.01653
2317.69363,0.01661
2315.63346,0.01639
2313.57329,0.01589
2311.51312,0.01567
2309.45294,0.01573
2307.39277,0.01585
2305.33260,0.01608
2303.27243,0.01650
2301.21225,0.01658
2299.15208,0.01626
2297.09191,0.01597
2295.03174,0.01612
2292.97157,0.01665
2290.91139,0.01706
2288.85122,0.01711
2286.79105,0.01694
2284.73088,0.01652
2282.67071,0.01603
2280.61053,0.01594
2278.55036,0.01619
2276.49019,0.01637
2274.43002,0.01645
2272.36984,0.01613
2270.30967,0.01549
2268.24950,0.01539
2266.18933,0.01599
2264.12916,0.01648
2262.06898,0.01646
2260.00881,0.01617
2257.94864,0.01583
2255.88847,0.01544
2253.82830,0.01510
2251.76812,0.01473
2249.70795,0.01424
2247.64778,0.01412
2245.58761,0.01413
2243.52744,0.01403
2241.46726,0.01383
2239.40709,0.01395
2237.34692,0.01422
2235.28675,0.01396
2233.22657,0.01354
2231.16640,0.01364
2229.10623,0.01394
2227.04606,0.01393
2224.98589,0.01361
2222.92571,0.01324
2220.86554,0.01299
2218.80537,0.01284
2216.74520,0.01272
2214.68503,0.01254
2212.62485,0.01216
2210.56468,0.01193
2208.50451,0.01196
2206.44434,0.01200
2204.38417,0.01255
2202.32399,0.01330
2200.26382,0.01273
2198.20365,0.01168
2196.14348,0.01174
2194.08330,0.01175
2192.02313,0.01123
2189.96296,0.01098
2187.90279,0.01119
2185.84262,0.01158
2183.78244,0.01167
2181.72227,0.01131
2179.66210,0.01102
2177.60193,0.01131
2175.54176,0.01194
2173.48158,0.01213
2171.42141,0.01158
2169.36124,0.01089
2167.30107,0.01073
2165.24089,0.01088
2163.18072,0.01011
2161.12055,0.00829
2159.06038,0.00718
2157.00021,0.00782
2154.94003,0.00927
2152.87986,0.01021
2150.81969,0.01010
2148.75952,0.00917
2146.69935,0.00849
2144.63917,0.00865
2142.57900,0.00907
2140.51883,0.00912
2138.45866,0.00878
2136.39849,0.00879
2134.33831,0.00939
2132.27814,0.00992
2130.21797,0.01007
2128.15780,0.01036
2126.09762,0.01080
2124.03745,0.01074
2121.97728,0.01031
2119.91711,0.01017
2117.85694,0.01025
2115.79676,0.01019
2113.73659,0.00996
2111.67642,0.00978
2109.61625,0.00971
2107.55608,0.00950
2105.49590,0.00910
2103.43573,0.00890
2101.37556,0.00918
2099.31539,0.01034
2097.25521,0.01075
2095.19504,0.01025
2093.13487,0.00930
2091.07470,0.00862
2089.01453,0.00879
2086.95435,0.00944
2084.89418,0.00965
2082.83401,0.00962
2080.77384,0.01011
2078.71367,0.01068
2076.65349,0.01081
2074.59332,0.01076
2072.53315,0.01082
2070.47298,0.01075
2068.41281,0.01042
2066.35263,0.01013
2064.29246,0.00972
2062.23229,0.00895
2060.17212,0.00828
2058.11194,0.00828
2056.05177,0.00877
2053.99160,0.00920
2051.93143,0.00955
2049.87126,0.01012
2047.81108,0.01102
2045.75091,0.01200
2043.69074,0.01228
2041.63057,0.01174
2039.57040,0.01110
2037.51022,0.01054
2035.45005,0.01003
2033.38988,0.00981
2031.32971,0.00947
2029.26954,0.00879
2027.20936,0.00865
2025.14919,0.00924
2023.08902,0.00968
2021.02885,0.00969
2018.96867,0.00968
2016.90850,0.00986
2014.84833,0.01002
2012.78816,0.01017
2010.72799,0.01072
2008.66781,0.01108
2006.60764,0.01024
2004.54747,0.00898
2002.48730,0.00834
2000.42713,0.00793
1998.36695,0.00757
1996.30678,0.00774
1994.24661,0.00849
1992.18644,0.00884
1990.12626,0.00830
1988.06609,0.00786
1986.00592,0.00813
1983.94575,0.00911
1981.88558,0.01070
1979.82540,0.01225
1977.76523,0.01312
1975.70506,0.01300
1973.64489,0.01203
1971.58472,0.01106
1969.52454,0.01053
1967.46437,0.01022
1965.40420,0.00994
1963.34403,0.00966
1961.28386,0.00921
1959.22368,0.00871
1957.16351,0.00866
1955.10334,0.00895
1953.04317,0.00906
1950.98299,0.00899
1948.92282,0.00906
1946.86265,0.00914
1944.80248,0.00923
1942.74231,0.00962
1940.68213,0.00980
1938.62196,0.00960
1936.56179,0.00955
1934.50162,0.00974
1932.44145,0.00965
1930.38127,0.00928
1928.32110,0.00914
1926.26093,0.00916
1924.20076,0.00896
1922.14059,0.00875
1920.08041,0.00886
1918.02024,0.00919
1915.96007,0.00943
1913.89990,0.00970
1911.83972,0.01006
1909.77955,0.01024
1907.71938,0.01011
1905.65921,0.00997
1903.59904,0.00996
1901.53886,0.00991
1899.47869,0.00974
1897.41852,0.00962
1895.35835,0.00966
1893.29818,0.00981
1891.23800,0.01001
1889.17783,0.01012
1887.11766,0.01014
1885.05749,0.01017
1882.99731,0.01019
1880.93714,0.01024
1878.87697,0.01032
1876.81680,0.01040
1874.75663,0.01053
1872.69645,0.01087
1870.63628,0.01135
1868.57611,0.01160
1866.51594,0.01133
1864.45577,0.01092
1862.39559,0.01074
1860.33542,0.01072
1858.27525,0.01078
1856.21508,0.01087
1854.15491,0.01083
1852.09473,0.01071
1850.03456,0.01062
1847.97439,0.01044
1845.91422,0.01016
1843.85404,0.01003
1841.79387,0.01024
1839.73370,0.01063
1837.67353,0.01093
1835.61336,0.01092
1833.55318,0.01101
1831.49301,0.01158
1829.43284,0.01200
1827.37267,0.01192
1825.31250,0.01187
1823.25232,0.01203
1821.19215,0.01211
1819.13198,0.01182
1817.07181,0.01139
1815.01163,0.01123
1812.95146,0.01119
1810.89129,0.01100
1808.83112,0.01084
1806.77095,0.01091
1804.71077,0.01096
1802.65060,0.01082
1800.59043,0.01088
1798.53026,0.01107
1796.47009,0.01117
1794.40991,0.01135
1792.34974,0.01145
1790.28957,0.01117
1788.22940,0.01075
1786.16923,0.01046
1784.10905,0.01057
1782.04888,0.01101
1779.98871,0.01118
1777.92854,0.01102
1775.86836,0.01117
1773.80819,0.01174
1771.74802,0.01182
1769.68785,0.01108
1767.62768,0.01063
1765.56750,0.01096
1763.50733,0.01164
1761.44716,0.01211
1759.38699,0.01230
1757.32682,0.01251
1755.26664,0.01273
1753.20647,0.01292
1751.14630,0.01331
1749.08613,0.01388
1747.02596,0.01413
1744.96578,0.01412
1742.90561,0.01429
1740.84544,0.01449
1738.78527,0.01436
1736.72509,0.01407
1734.66492,0.01397
1732.60475,0.01404
1730.54458,0.01420
1728.48441,0.01416
1726.42423,0.01396
1724.36406,0.01373
1722.30389,0.01377
1720.24372,0.01429
1718.18355,0.01458
1716.12337,0.01370
1714.06320,0.01277
1712.00303,0.01237
1709.94286,0.01253
1707.88268,0.01299
1705.82251,0.01316
1703.76234,0.01309
1701.70217,0.01354
1699.64200,0.01422
1697.58182,0.01451
1695.52165,0.01485
1693.46148,0.01548
1691.40131,0.01614
1689.34114,0.01701
1687.28096,0.01834
1685.22079,0.02021
1683.16062,0.02140
1681.10045,0.02167
1679.04028,0.02218
1676.98010,0.02347
1674.91993,0.02515
1672.85976,0.02661
1670.79959,0.02781
1668.73941,0.02865
1666.67924,0.02906
1664.61907,0.02963
1662.55890,0.03035
1660.49873,0.03051
1658.43855,0.03043
1656.37838,0.03094
1654.31821,0.03198
1652.25804,0.03233
1650.19787,0.03219
1648.13769,0.03220
1646.07752,0.03227
1644.01735,0.03182
1641.95718,0.03142
1639.89701,0.03166
1637.83683,0.03241
1635.77666,0.03283
1633.71649,0.03244
1631.65632,0.03178
1629.59614,0.03144
1627.53597,0.03147
1625.47580,0.03159
1623.41563,0.03150
1621.35546,0.03107
1619.29528,0.03100
1617.23511,0.03140
1615.17494,0.03125
1613.11477,0.03059
1611.05460,0.03025
1608.99442,0.03025
1606.93425,0.03019
1604.87408,0.03011
1602.81391,0.02999
1600.75373,0.02972
1598.69356,0.02943
1596.63339,0.02920
1594.57322,0.02890
1592.51305,0.02839
1590.45287,0.02775
1588.39270,0.02716
1586.33253,0.02661
1584.27236,0.02598
1582.21219,0.02537
1580.15201,0.02514
1578.09184,0.02518
1576.03167,0.02457
1573.97150,0.02320
1571.91133,0.02231
1569.85115,0.02200
1567.79098,0.02139
1565.73081,0.02046
1563.67064,0.01992
1561.61046,0.02048
1559.55029,0.02121
1557.49012,0.01986
1555.42995,0.01804
1553.36978,0.01695
1551.30960,0.01639
1549.24943,0.01599
1547.18926,0.01575
1545.12909,0.01601
1543.06892,0.01679
1541.00874,0.01744
1538.94857,0.01653
1536.88840,0.01491
1534.82823,0.01414
1532.76805,0.01410
1530.70788,0.01382
1528.64771,0.01341
1526.58754,0.01288
1524.52737,0.01228
1522.46719,0.01186
1520.40702,0.01140
1518.34685,0.01109
1516.28668,0.01074
1514.22651,0.00995
1512.16633,0.00926
1510.10616,0.00939
1508.04599,0.01004
1505.98582,0.01008
1503.92565,0.00929
1501.86547,0.00857
1499.80530,0.00878
1497.74513,0.00939
1495.68496,0.00952
1493.62478,0.00954
1491.56461,0.00985
1489.50444,0.01001
1487.44427,0.00982
1485.38410,0.00965
1483.32392,0.00966
1481.26375,0.00979
1479.20358,0.01003
1477.14341,0.01047
1475.08324,0.01104
1473.02306,0.01153
1470.96289,0.01162
1468.90272,0.01151
1466.84255,0.01178
1464.78238,0.01222
1462.72220,0.01233
1460.66203,0.01259
1458.60186,0.01303
1456.54169,0.01287
1454.48151,0.01263
1452.42134,0.01274
1450.36117,0.01336
1448.30100,0.01415
1446.24083,0.01465
1444.18065,0.01486
1442.12048,0.01495
1440.06031,0.01505
1438.00014,0.01518
1435.93997,0.01525
1433.87979,0.01539
1431.81962,0.01578
1429.75945,0.01640
1427.69928,0.01692
1425.63910,0.01739
1423.57893,0.01785
1421.51876,0.01818
1419.45859,0.01845
1417.39842,0.01897
1415.33824,0.01979
1413.27807,0.02064
1411.21790,0.02128
1409.15773,0.02171
1407.09756,0.02207
1405.03738,0.02231
1402.97721,0.02236
1400.91704,0.02224
1398.85687,0.02184
1396.79670,0.02137
1394.73652,0.02119
1392.67635,0.02107
1390.61618,0.02088
1388.55601,0.02085
1386.49583,0.02097
1384.43566,0.02102
1382.37549,0.02096
1380.31532,0.02090
1378.25515,0.02101
1376.19497,0.02129
1374.13480,0.02129
1372.07463,0.02101
1370.01446,0.02092
1367.95429,0.02098
1365.89411,0.02093
1363.83394,0.02065
1361.77377,0.02031
1359.71360,0.02026
1357.65343,0.02041
1355.59325,0.02049
1353.53308,0.02038
1351.47291,0.02015
1349.41274,0.01984
1347.35256,0.01938
1345.29239,0.01883
1343.23222,0.01819
1341.17205,0.01734
1339.11188,0.01648
1337.05170,0.01623
1334.99153,0.01646
1332.93136,0.01653
1330.87119,0.01625
1328.81102,0.01593
1326.75084,0.01571
1324.69067,0.01548
1322.63050,0.01524
1320.57033,0.01505
1318.51015,0.01483
1316.44998,0.01460
1314.38981,0.01445
1312.32964,0.01431
1310.26947,0.01416
1308.20929,0.01399
1306.14912,0.01380
1304.08895,0.01371
1302.02878,0.01371
1299.96861,0.01365
1297.90843,0.01355
1295.84826,0.01358
1293.78809,0.01361
1291.72792,0.01344
1289.66775,0.01314
1287.60757,0.01290
1285.54740,0.01284
1283.48723,0.01293
1281.42706,0.01304
1279.36688,0.01310
1277.30671,0.01313
1275.24654,0.01315
1273.18637,0.01320
1271.12620,0.01321
1269.06602,0.01313
1267.00585,0.01307
1264.94568,0.01311
1262.88551,0.01333
1260.82534,0.01361
1258.76516,0.01379
1256.70499,0.01383
1254.64482,0.01384
1252.58465,0.01386
1250.52447,0.01387
1248.46430,0.01382
1246.40413,0.01363
1244.34396,0.01340
1242.28379,0.01327
1240.22361,0.01317
1238.16344,0.01299
1236.10327,0.01273
1234.04310,0.01247
1231.98293,0.01223
1229.92275,0.01197
1227.86258,0.01164
1225.80241,0.01126
1223.74224,0.01087
1221.68207,0.01045
1219.62189,0.01004
1217.56172,0.00970
1215.50155,0.00937
1213.44138,0.00901
1211.38120,0.00870
1209.32103,0.00855
1207.26086,0.00857
1205.20069,0.00866
1203.14052,0.00878
1201.08034,0.00901
1199.02017,0.00933
1196.96000,0.00990
1194.89983,0.01056
1192.83966,0.01124
1190.77948,0.01211
1188.71931,0.01320
1186.65914,0.01453
1184.59897,0.01618
1182.53880,0.01793
1180.47862,0.01962
1178.41845,0.02128
1176.35828,0.02273
1174.29811,0.02413
1172.23793,0.02575
1170.17776,0.02740
1168.11759,0.02890
1166.05742,0.03027
1163.99725,0.03167
1161.93707,0.03316
1159.87690,0.03468
1157.81673,0.03623
1155.75656,0.03769
1153.69639,0.03904
1151.63621,0.04038
1149.57604,0.04168
1147.51587,0.04285
1145.45570,0.04385
1143.39552,0.04460
1141.33535,0.04512
1139.27518,0.04559
1137.21501,0.04605
1135.15484,0.04650
1133.09466,0.04690
1131.03449,0.04728
1128.97432,0.04772
1126.91415,0.04832
1124.85398,0.04928
1122.79380,0.05056
1120.73363,0.05184
1118.67346,0.05302
1116.61329,0.05443
1114.55312,0.05621
1112.49294,0.05805
1110.43277,0.05977
1108.37260,0.06149
1106.31243,0.06332
1104.25225,0.06517
1102.19208,0.06694
1100.13191,0.06877
1098.07174,0.07069
1096.01157,0.07239
1093.95139,0.07389
1091.89122,0.07544
1089.83105,0.07717
1087.77088,0.07896
1085.71071,0.08058
1083.65053,0.08207
1081.59036,0.08353
1079.53019,0.08500
1077.47002,0.08650
1075.40985,0.08784
1073.34967,0.08882
1071.28950,0.08941
1069.22933,0.08962
1067.16916,0.08952
1065.10898,0.08918
1063.04881,0.08870
1060.98864,0.08810
1058.92847,0.08727
1056.86830,0.08631
1054.80812,0.08527
1052.74795,0.08399
1050.68778,0.08242
1048.62761,0.08072
1046.56744,0.07898
1044.50726,0.07715
1042.44709,0.07504
1040.38692,0.07266
1038.32675,0.07013
1036.26657,0.06741
1034.20640,0.06447
1032.14623,0.06179
1030.08606,0.05968
1028.02589,0.05778
1025.96571,0.05579
1023.90554,0.05378
1021.84537,0.05184
1019.78520,0.05001
1017.72503,0.04838
1015.66485,0.04714
1013.60468,0.04634
1011.54451,0.04572
1009.48434,0.04522
1007.42417,0.04493
1005.36399,0.04490
1003.30382,0.04535
1001.24365,0.04619
999.18348,0.04712
997.12330,0.04817
995.06313,0.04919
993.00296,0.05002
990.94279,0.05081
988.88262,0.05156
986.82244,0.05220
984.76227,0.05264
982.70210,0.05288
980.64193,0.05306
978.58176,0.05310
976.52158,0.05292
974.46141,0.05259
972.40124,0.05221
970.34107,0.05159
968.28089,0.05064
966.22072,0.04971
964.16055,0.04897
962.10038,0.04826
960.04021,0.04755
957.98003,0.04697
955.91986,0.04634
953.85969,0.04555
951.79952,0.04476
949.73935,0.04401
947.67917,0.04342
945.61900,0.04304
943.55883,0.04255
941.49866,0.04175
939.43849,0.04078
937.37831,0.03982
935.31814,0.03882
933.25797,0.03764
931.19780,0.03638
929.13762,0.03514
927.07745,0.03388
925.01728,0.03266
922.95711,0.03136
920.89694,0.02988
918.83676,0.02850
916.77659,0.02730
914.71642,0.02601
912.65625,0.02475
910.59608,0.02366
908.53590,0.02264
906.47573,0.02178
904.41556,0.02117
902.35539,0.02070
900.29522,0.02030
898.23504,0.02004
896.17487,0.01998
894.11470,0.02010
892.05453,0.02048
889.99435,0.02100
887.93418,0.02141
885.87401,0.02197
883.81384,0.02297
881.75367,0.02420
879.69349,0.02545
877.63332,0.02690
875.57315,0.02868
873.51298,0.03078
871.45281,0.03301
869.39263,0.03502
867.33246,0.03692
865.27229,0.03910
863.21212,0.04135
861.15194,0.04314
859.09177,0.04440
857.03160,0.04533
854.97143,0.04597
852.91126,0.04621
850.85108,0.04595
848.79091,0.04517
846.73074,0.04419
844.67057,0.04315
842.61040,0.04175
840.55022,0.04019
838.49005,0.03870
836.42988,0.03715
834.36971,0.03584
832.30954,0.03490
830.24936,0.03390
828.18919,0.03272
826.12902,0.03141
824.06885,0.03000
822.00867,0.02897
819.94850,0.02843
817.88833,0.02779
815.82816,0.02684
813.76799,0.02588
811.70781,0.02496
809.64764,0.02403
807.58747,0.02338
805.52730,0.02308
803.46713,0.02266
801.40695,0.02193
799.34678,0.02110
797.28661,0.02042
795.22644,0.01991
793.16627,0.01946
791.10609,0.01901
789.04592,0.01851
786.98575,0.01799
784.92558,0.01753
782.86540,0.01712
780.80523,0.01693
778.74506,0.01705
776.68489,0.01718
774.62472,0.01693
772.56454,0.01637
770.50437,0.01591
768.44420,0.01555
766.38403,0.01510
764.32386,0.01467
762.26368,0.01443
760.20351,0.01431
758.14334,0.01399
756.08317,0.01344
754.02299,0.01302
751.96282,0.01292
749.90265,0.01289
747.84248,0.01254
745.78231,0.01206
743.72213,0.01173
741.66196,0.01131
739.60179,0.01080
737.54162,0.01060
735.48145,0.01073
733.42127,0.01101
731.36110,0.01119
729.30093,0.01104
727.24076,0.01077
725.18059,0.01069
723.12041,0.01102
721.06024,0.01055
719.00007,0.01053
716.93990,0.01067
714.87972,0.01085
712.81955,0.01103
710.75938,0.01069
708.69921,0.01001
706.63904,0.00971
704.57886,0.01010
702.51869,0.01061
700.45852,0.01064
698.39835,0.01033
696.33818,0.00997
694.27800,0.00976
692.21783,0.00970
690.15766,0.00964
688.09749,0.00976
686.03731,0.01026
683.97714,0.01080
681.91697,0.01093
679.85680,0.01066
677.79663,0.01036
675.73645,0.01047
673.67628,0.01112
671.61611,0.01143
669.55594,0.00830
667.49577,0.00484
665.43559,0.01017
663.37542,0.01007
661.31525,0.00889
659.25508,0.00883
657.19491,0.00881
655.13473,0.00808
653.07456,0.00721
651.01439,0.00676
648.95422,0.00665
646.89404,0.00698
644.83387,0.00718
642.77370,0.00704
640.71353,0.00664
638.65336,0.00625
636.59318,0.00604
634.53301,0.00596
632.47284,0.00566
630.41267,0.00500
628.35250,0.00474
626.29232,0.00537
624.23215,0.00568
622.17198,0.00509
620.11181,0.00398
618.05164,0.00291
615.99146,0.00262
613.93129,0.00235
611.87112,0.00103
609.81095,0.00000
607.75077,0.00019
605.69060,0.00093
603.63043,0.00122
601.57026,0.00062
599.51009,0.00000
