3996.73391,0.00027
3994.67373,0.00027
3992.61356,0.00050
3990.55339,0.00088
3988.49322,0.00112
3986.43305,0.00115
3984.37287,0.00107
3982.31270,0.00092
3980.25253,0.00085
3978.19236,0.00097
3976.13219,0.00109
3974.07201,0.00117
3972.01184,0.00127
3969.95167,0.00144
3967.89150,0.00171
3965.83133,0.00190
3963.77115,0.00173
3961.71098,0.00138
3959.65081,0.00126
3957.59064,0.00144
3955.53046,0.00175
3953.47029,0.00197
3951.41012,0.00164
3949.34995,0.00065
3947.28978,0.00000
3945.22960,0.00040
3943.16943,0.00100
3941.10926,0.00120
3939.04909,0.00128
3936.98892,0.00127
3934.92874,0.00103
3932.86857,0.00086
3930.80840,0.00120
3928.74823,0.00180
3926.68805,0.00208
3924.62788,0.00179
3922.56771,0.00118
3920.50754,0.00079
3918.44737,0.00073
3916.38719,0.00111
3914.32702,0.00181
3912.26685,0.00234
3910.20668,0.00259
3908.14651,0.00267
3906.08633,0.00237
3904.02616,0.00140
3901.96599,0.00065
3899.90582,0.00101
3897.84565,0.00164
3895.78547,0.00183
3893.72530,0.00165
3891.66513,0.00133
3889.60496,0.00121
3887.54478,0.00118
3885.48461,0.00094
3883.42444,0.00064
3881.36427,0.00055
3879.30410,0.00074
3877.24392,0.00110
3875.18375,0.00131
3873.12358,0.00111
3871.06341,0.00070
3869.00324,0.00056
3866.94306,0.00068
3864.88289,0.00073
3862.82272,0.00065
3860.76255,0.00065
3858.70237,0.00057
3856.64220,0.00016
3854.58203,0.00000
3852.52186,0.00051
3850.46169,0.00131
3848.40151,0.00149
3846.34134,0.00145
3844.28117,0.00164
3842.22100,0.00180
3840.16083,0.00169
3838.10065,0.00152
3836.04048,0.00172
3833.98031,0.00208
3831.92014,0.00235
3829.85997,0.00266
3827.79979,0.00283
3825.73962,0.00271
3823.67945,0.00259
3821.61928,0.00268
3819.55910,0.00252
3817.49893,0.00236
3815.43876,0.00249
3813.37859,0.00280
3811.31842,0.00293
3809.25824,0.00298
3807.19807,0.00299
3805.13790,0.00314
3803.07773,0.00361
3801.01756,0.00393
3798.95738,0.00379
3796.89721,0.00367
3794.83704,0.00398
3792.77687,0.00448
3790.71670,0.00476
3788.65652,0.00493
3786.59635,0.00518
3784.53618,0.00532
3782.47601,0.00546
3780.41583,0.00579
3778.35566,0.00594
3776.29549,0.00579
3774.23532,0.00558
3772.17515,0.00535
3770.11497,0.00493
3768.05480,0.00442
3765.99463,0.00412
3763.93446,0.00400
3761.87429,0.00383
3759.81411,0.00339
3757.75394,0.00273
3755.69377,0.00243
3753.63360,0.00246
3751.57342,0.00194
3749.51325,0.00077
3747.45308,0.00014
3745.39291,0.00000
3743.33274,0.00068
3741.27256,0.00156
3739.21239,0.00177
3737.15222,0.00177
3735.09205,0.00168
3733.03188,0.00186
3730.97170,0.00244
3728.91153,0.00302
3726.85136,0.00322
3724.79119,0.00311
3722.73102,0.00312
3720.67084,0.00338
3718.61067,0.00342
3716.55050,0.00331
3714.49033,0.00374
3712.43015,0.00481
3710.36998,0.00532
3708.30981,0.00516
3706.24964,0.00519
3704.18947,0.00557
3702.12929,0.00587
3700.06912,0.00585
3698.00895,0.00580
3695.94878,0.00591
3693.88861,0.00618
3691.82843,0.00653
3689.76826,0.00650
3687.70809,0.00609
3685.64792,0.00586
3683.58775,0.00584
3681.52757,0.00600
3679.46740,0.00621
3677.40723,0.00627
3675.34706,0.00602
3673.28688,0.00557
3671.22671,0.00538
3669.16654,0.00563
3667.10637,0.00611
3665.04620,0.00652
3662.98602,0.00677
3660.92585,0.00686
3658.86568,0.00693
3656.80551,0.00711
3654.74534,0.00746
3652.68516,0.00798
3650.62499,0.00834
3648.56482,0.00802
3646.50465,0.00793
3644.44447,0.00806
3642.38430,0.00825
3640.32413,0.00855
3638.26396,0.00883
3636.20379,0.00908
3634.14361,0.00939
3632.08344,0.00974
3630.02327,0.01024
3627.96310,0.01080
3625.90293,0.01121
3623.84275,0.01137
3621.78258,0.01150
3619.72241,0.01170
3617.66224,0.01178
3615.60207,0.01158
3613.54189,0.01119
3611.48172,0.01101
3609.42155,0.01155
3607.36138,0.01255
3605.30120,0.01354
3603.24103,0.01443
3601.18086,0.01522
3599.12069,0.01572
3597.06052,0.01586
3595.00034,0.01591
3592.94017,0.01619
3590.88000,0.01674
3588.81983,0.01721
3586.75966,0.01751
3584.69948,0.01804
3582.63931,0.01869
3580.57914,0.01935
3578.51897,0.02009
3576.45879,0.02067
3574.39862,0.02094
3572.33845,0.02117
3570.27828,0.02143
3568.21811,0.02152
3566.15793,0.02173
3564.09776,0.02238
3562.03759,0.02297
3559.97742,0.02338
3557.91725,0.02381
3555.85707,0.02420
3553.79690,0.02456
3551.73673,0.02486
3549.67656,0.02495
3547.61639,0.02476
3545.55621,0.02473
3543.49604,0.02530
3541.43587,0.02621
3539.37570,0.02709
3537.31552,0.02774
3535.25535,0.02812
3533.19518,0.02847
3531.13501,0.02888
3529.07484,0.02914
3527.01466,0.02906
3524.95449,0.02899
3522.89432,0.02950
3520.83415,0.03047
3518.77398,0.03136
3516.71380,0.03191
3514.65363,0.03222
3512.59346,0.03246
3510.53329,0.03267
3508.47312,0.03287
3506.41294,0.03300
3504.35277,0.03306
3502.29260,0.03320
3500.23243,0.03380
3498.17225,0.03468
3496.11208,0.03533
3494.05191,0.03560
3491.99174,0.03580
3489.93157,0.03614
3487.87139,0.03646
3485.81122,0.03662
3483.75105,0.03683
3481.69088,0.03709
3479.63071,0.03731
3477.57053,0.03762
3475.51036,0.03804
3473.45019,0.03839
3471.39002,0.03871
3469.32984,0.03922
3467.26967,0.03980
3465.20950,0.04019
3463.14933,0.04033
3461.08916,0.04030
3459.02898,0.04034
3456.96881,0.04057
3454.90864,0.04094
3452.84847,0.04140
3450.78830,0.04179
3448.72812,0.04199
3446.66795,0.04205
3444.60778,0.04210
3442.54761,0.04221
3440.48744,0.04236
3438.42726,0.04273
3436.36709,0.04337
3434.30692,0.04395
3432.24675,0.04424
3430.18657,0.04441
3428.12640,0.04461
3426.06623,0.04469
3424.00606,0.04464
3421.94589,0.04464
3419.88571,0.04475
3417.82554,0.04516
3415.76537,0.04567
3413.70520,0.04600
3411.64503,0.04614
3409.58485,0.04612
3407.52468,0.04612
3405.46451,0.04631
3403.40434,0.04657
3401.34416,0.04671
3399.28399,0.04579
3397.22382,0.04589
3395.16365,0.04621
3393.10348,0.04640
3391.04330,0.04667
3388.98313,0.04713
3386.92296,0.04753
3384.86279,0.04774
3382.80262,0.04798
3380.74244,0.04828
3378.68227,0.04863
3376.62210,0.04892
3374.56193,0.04904
3372.50176,0.04903
3370.44158,0.04903
3368.38141,0.04899
3366.32124,0.04894
3364.26107,0.04909
3362.20089,0.04937
3360.14072,0.04956
3358.08055,0.04963
3356.02038,0.04960
3353.96021,0.04961
3351.90003,0.04964
3349.83986,0.04961
3347.77969,0.04967
3345.71952,0.04984
3343.65935,0.05001
3341.59917,0.05000
3339.53900,0.04987
3337.47883,0.04988
3335.41866,0.05012
3333.35849,0.05048
3331.29831,0.05085
3329.23814,0.05098
3327.17797,0.05087
3325.11780,0.05079
3323.05762,0.05081
3320.99745,0.05093
3318.93728,0.05108
3316.87711,0.05102
3314.81694,0.05061
3312.75676,0.05025
3310.69659,0.05033
3308.63642,0.05074
3306.57625,0.05116
3304.51608,0.05142
3302.45590,0.05162
3300.39573,0.05163
3298.33556,0.05137
3296.27539,0.05118
3294.21521,0.05112
3292.15504,0.05106
3290.09487,0.05112
3288.03470,0.05121
3285.97453,0.05120
3283.91435,0.05120
3281.85418,0.05131
3279.79401,0.05130
3277.73384,0.05112
3275.67367,0.05105
3273.61349,0.05115
3271.55332,0.05128
3269.49315,0.05135
3267.43298,0.05143
3265.37281,0.05156
3263.31263,0.05157
3261.25246,0.05142
3259.19229,0.05133
3257.13212,0.05121
3255.07194,0.05103
3253.01177,0.05094
3250.95160,0.05089
3248.89143,0.05081
3246.83126,0.05077
3244.77108,0.05078
3242.71091,0.05086
3240.65074,0.05082
3238.59057,0.05062
3236.53040,0.05050
3234.47022,0.05055
3232.41005,0.05065
3230.34988,0.05062
3228.28971,0.05038
3226.22954,0.05014
3224.16936,0.05005
3222.10919,0.04993
3220.04902,0.04974
3217.98885,0.04978
3215.92867,0.05001
3213.86850,0.05014
3211.80833,0.05005
3209.74816,0.04973
3207.68799,0.04953
3205.62781,0.04971
3203.56764,0.04986
3201.50747,0.04960
3199.44730,0.04919
3197.38713,0.04898
3195.32695,0.04894
3193.26678,0.04891
3191.20661,0.04886
3189.14644,0.04881
3187.08626,0.04865
3185.02609,0.04841
3182.96592,0.04837
3180.90575,0.04835
3178.84558,0.04814
3176.78540,0.04806
3174.72523,0.04817
3172.66506,0.04808
3170.60489,0.04775
3168.54472,0.04751
3166.48454,0.04742
3164.42437,0.04731
3162.36420,0.04719
3160.30403,0.04716
3158.24386,0.04723
3156.18368,0.04721
3154.12351,0.04689
3152.06334,0.04655
3150.00317,0.04639
3147.94299,0.04626
3145.88282,0.04611
3143.82265,0.04590
3141.76248,0.04572
3139.70231,0.04571
3137.64213,0.04569
3135.58196,0.04546
3133.52179,0.04516
3131.46162,0.04503
3129.40145,0.04498
3127.34127,0.04476
3125.28110,0.04443
3123.22093,0.04414
3121.16076,0.04396
3119.10058,0.04379
3117.04041,0.04353
3114.98024,0.04338
3112.92007,0.04344
3110.85990,0.04348
3108.79972,0.04335
3106.73955,0.04319
3104.67938,0.04294
3102.61921,0.04250
3100.55904,0.04218
3098.49886,0.04218
3096.43869,0.04222
3094.37852,0.04216
3092.31835,0.04207
3090.25818,0.04191
3088.19800,0.04170
3086.13783,0.04160
3084.07766,0.04148
3082.01749,0.04120
3079.95731,0.04101
3077.89714,0.04105
3075.83697,0.04104
3073.77680,0.04079
3071.71663,0.04048
3069.65645,0.04028
3067.59628,0.04011
3065.53611,0.03993
3063.47594,0.03986
3061.41577,0.03989
3059.35559,0.03979
3057.29542,0.03951
3055.23525,0.03927
3053.17508,0.03917
3051.11491,0.03905
3049.05473,0.03884
3046.99456,0.03864
3044.93439,0.03839
3042.87422,0.03816
3040.81404,0.03798
3038.75387,0.03780
3036.69370,0.03762
3034.63353,0.03739
3032.57336,0.03706
3030.51318,0.03676
3028.45301,0.03653
3026.39284,0.03635
3024.33267,0.03627
3022.27250,0.03626
3020.21232,0.03621
3018.15215,0.03601
3016.09198,0.03554
3014.03181,0.03502
3011.97163,0.03473
3009.91146,0.03471
3007.85129,0.03478
3005.79112,0.03467
3003.73095,0.03441
3001.67077,0.03423
2999.61060,0.03434
2997.55043,0.03430
2995.49026,0.03411
2993.43009,0.03391
2991.36991,0.03395
2989.30974,0.03405
2987.24957,0.03405
2985.18940,0.03412
2983.12923,0.03422
2981.06905,0.03416
2979.00888,0.03401
2976.94871,0.03401
2974.88854,0.03410
2972.82836,0.03414
2970.76819,0.03423
2968.70802,0.03433
2966.64785,0.03435
2964.58768,0.03436
2962.52750,0.03445
2960.46733,0.03460
2958.40716,0.03478
2956.34699,0.03491
2954.28682,0.03491
2952.22664,0.03481
2950.16647,0.03463
2948.10630,0.03449
2946.04613,0.03449
2943.98596,0.03457
2941.92578,0.03458
2939.86561,0.03455
2937.80544,0.03461
2935.74527,0.03476
2933.68509,0.03494
2931.62492,0.03501
2929.56475,0.03481
2927.50458,0.03446
2925.44441,0.03430
2923.38423,0.03431
2921.32406,0.03432
2919.26389,0.03437
2917.20372,0.03433
2915.14355,0.03416
2913.08337,0.03400
2911.02320,0.03384
2908.96303,0.03364
2906.90286,0.03344
2904.84268,0.03323
2902.78251,0.03302
2900.72234,0.03291
2898.66217,0.03292
2896.60200,0.03287
2894.54182,0.03268
2892.48165,0.03253
2890.42148,0.03249
2888.36131,0.03252
2886.30114,0.03257
2884.24096,0.03263
2882.18079,0.03269
2880.12062,0.03262
2878.06045,0.03240
2876.00028,0.03216
2873.94010,0.03194
2871.87993,0.03175
2869.81976,0.03162
2867.75959,0.03149
2865.69941,0.03128
2863.63924,0.03105
2861.57907,0.03093
2859.51890,0.03080
2857.45873,0.03058
2855.39855,0.03039
2853.33838,0.03030
2851.27821,0.03025
2849.21804,0.03019
2847.15787,0.03005
2845.09769,0.02980
2843.03752,0.02955
2840.97735,0.02929
2838.91718,0.02897
2836.85700,0.02866
2834.79683,0.02853
2832.73666,0.02844
2830.67649,0.02827
2828.61632,0.02802
2826.55614,0.02778
2824.49597,0.02761
2822.43580,0.02748
2820.37563,0.02730
2818.31546,0.02714
2816.25528,0.02704
2814.19511,0.02692
2812.13494,0.02680
2810.07477,0.02667
2808.01460,0.02651
2805.95442,0.02634
2803.89425,0.02615
2801.83408,0.02593
2799.77391,0.02579
2797.71373,0.02574
2795.65356,0.02560
2793.59339,0.02542
2791.53322,0.02534
2789.47305,0.02529
2787.41287,0.02514
2785.35270,0.02494
2783.29253,0.02482
2781.23236,0.02478
2779.17219,0.02468
2777.11201,0.02442
2775.05184,0.02411
2772.99167,0.02395
2770.93150,0.02385
2768.87133,0.02368
2766.81115,0.02352
2764.75098,0.02345
2762.69081,0.02340
2760.63064,0.02323
2758.57046,0.02305
2756.51029,0.02303
2754.45012,0.02307
2752.38995,0.02302
2750.32978,0.02284
2748.26960,0.02261
2746.20943,0.02234
2744.14926,0.02204
2742.08909,0.02189
2740.02892,0.02196
2737.96874,0.02207
2735.90857,0.02210
2733.84840,0.02197
2731.78823,0.02169
2729.72805,0.02151
2727.66788,0.02148
2725.60771,0.02138
2723.54754,0.02117
2721.48737,0.02098
2719.42719,0.02083
2717.36702,0.02075
2715.30685,0.02075
2713.24668,0.02067
2711.18651,0.02052
2709.12633,0.02041
2707.06616,0.02032
2705.00599,0.02027
2702.94582,0.02023
2700.88565,0.02018
2698.82547,0.02008
2696.76530,0.01991
2694.70513,0.01977
2692.64496,0.01967
2690.58478,0.01960
2688.52461,0.01952
2686.46444,0.01938
2684.40427,0.01926
2682.34410,0.01920
2680.28392,0.01917
2678.22375,0.01914
2676.16358,0.01902
2674.10341,0.01886
2672.04324,0.01871
2669.98306,0.01853
2667.92289,0.01849
2665.86272,0.01870
2663.80255,0.01881
2661.74238,0.01858
2659.68220,0.01829
2657.62203,0.01814
2655.56186,0.01812
2653.50169,0.01813
2651.44151,0.01813
2649.38134,0.01808
2647.32117,0.01795
2645.26100,0.01777
2643.20083,0.01763
2641.14065,0.01752
2639.08048,0.01740
2637.02031,0.01738
2634.96014,0.01741
2632.89997,0.01737
2630.83979,0.01728
2628.77962,0.01710
2626.71945,0.01692
2624.65928,0.01688
2622.59910,0.01688
2620.53893,0.01686
2618.47876,0.01693
2616.41859,0.01702
2614.35842,0.01693
2612.29824,0.01673
2610.23807,0.01664
2608.17790,0.01673
2606.11773,0.01680
2604.05756,0.01670
2601.99738,0.01661
2599.93721,0.01663
2597.87704,0.01657
2595.81687,0.01638
2593.75670,0.01624
2591.69652,0.01623
2589.63635,0.01630
2587.57618,0.01637
2585.51601,0.01637
2583.45583,0.01628
2581.39566,0.01620
2579.33549,0.01617
2577.27532,0.01615
2575.21515,0.01613
2573.15497,0.01609
2571.09480,0.01595
2569.03463,0.01585
2566.97446,0.01604
2564.91429,0.01623
2562.85411,0.01609
2560.79394,0.01598
2558.73377,0.01607
2556.67360,0.01604
2554.61342,0.01594
2552.55325,0.01607
2550.49308,0.01627
2548.43291,0.01626
2546.37274,0.01603
2544.31256,0.01586
2542.25239,0.01581
2540.19222,0.01575
2538.13205,0.01570
2536.07188,0.01570
2534.01170,0.01579
2531.95153,0.01602
2529.89136,0.01621
2527.83119,0.01631
2525.77102,0.01648
2523.71084,0.01654
2521.65067,0.01637
2519.59050,0.01626
2517.53033,0.01619
2515.47015,0.01607
2513.40998,0.01604
2511.34981,0.01611
2509.28964,0.01623
2507.22947,0.01643
2505.16929,0.01644
2503.10912,0.01634
2501.04895,0.01640
2498.98878,0.01635
2496.92861,0.01622
2494.86843,0.01642
2492.80826,0.01678
2490.74809,0.01695
2488.68792,0.01682
2486.62775,0.01660
2484.56757,0.01661
2482.50740,0.01684
2480.44723,0.01702
2478.38706,0.01705
2476.32688,0.01715
2474.26671,0.01733
2472.20654,0.01733
2470.14637,0.01727
2468.08620,0.01731
2466.02602,0.01727
2463.96585,0.01722
2461.90568,0.01741
2459.84551,0.01763
2457.78534,0.01755
2455.72516,0.01738
2453.66499,0.01736
2451.60482,0.01727
2449.54465,0.01717
2447.48447,0.01724
2445.42430,0.01743
2443.36413,0.01763
2441.30396,0.01778
2439.24379,0.01793
2437.18361,0.01789
2435.12344,0.01765
2433.06327,0.01743
2431.00310,0.01727
2428.94293,0.01738
2426.88275,0.01765
2424.82258,0.01758
2422.76241,0.01730
2420.70224,0.01716
2418.64207,0.01718
2416.58189,0.01727
2414.52172,0.01726
2412.46155,0.01703
2410.40138,0.01672
2408.34120,0.01662
2406.28103,0.01670
2404.22086,0.01668
2402.16069,0.01665
2400.10052,0.01673
2398.04034,0.01635
2395.98017,0.01650
2393.92000,0.01686
2391.85983,0.01706
2389.79966,0.01710
2387.73948,0.01705
2385.67931,0.01688
2383.61914,0.01653
2381.55897,0.01614
2379.49880,0.01597
2377.43862,0.01593
2375.37845,0.01584
2373.31828,0.01590
2371.25811,0.01635
2369.19793,0.01717
2367.13776,0.01825
2365.07759,0.01918
2363.01742,0.01946
2360.95725,0.01912
2358.89707,0.01848
2356.83690,0.01784
2354.77673,0.01748
2352.71656,0.01735
2350.65639,0.01753
2348.59621,0.01777
2346.53604,0.01762
2344.47587,0.01758
2342.41570,0.01811
2340.35552,0.01855
2338.29535,0.01853
2336.23518,0.01821
2334.17501,0.01776
2332.11484,0.01736
2330.05466,0.01726
2327.99449,0.01732
2325.93432,0.01710
2323.87415,0.01629
2321.81398,0.01509
2319.75380,0.01416
2317.69363,0.01369
2315.63346,0.01334
2313.57329,0.01293
2311.51312,0.01278
2309.45294,0.01297
2307.39277,0.01316
2305.33260,0.01331
2303.27243,0.01364
2301.21225,0.01398
2299.15208,0.01402
2297.09191,0.01395
2295.03174,0.01404
2292.97157,0.01411
2290.91139,0.01405
2288.85122,0.01396
2286.79105,0.01377
2284.73088,0.01358
2282.67071,0.01356
2280.61053,0.01361
2278.55036,0.01364
2276.49019,0.01370
2274.43002,0.01362
2272.36984,0.01323
2270.30967,0.01296
2268.24950,0.01316
2266.18933,0.01339
2264.12916,0.01336
2262.06898,0.01343
2260.00881,0.01362
2257.94864,0.01329
2255.88847,0.01251
2253.82830,0.01206
2251.76812,0.01207
2249.70795,0.01214
2247.64778,0.01244
2245.58761,0.01246
2243.52744,0.01185
2241.46726,0.01116
2239.40709,0.01134
2237.34692,0.01186
2235.28675,0.01189
2233.22657,0.01194
2231.16640,0.01224
2229.10623,0.01230
2227.04606,0.01178
2224.98589,0.01074
2222.92571,0.00999
2220.86554,0.01000
2218.80537,0.01031
2216.74520,0.01033
2214.68503,0.01029
2212.62485,0.01042
2210.56468,0.01044
2208.50451,0.01046
2206.44434,0.01041
2204.38417,0.01043
2202.32399,0.01067
2200.26382,0.01016
2198.20365,0.00952
2196.14348,0.00989
2194.08330,0.01020
2192.02313,0.01005
2189.96296,0.00991
2187.90279,0.00930
2185.84262,0.00834
2183.78244,0.00808
2181.72227,0.00850
2179.66210,0.00885
2177.60193,0.00908
2175.54176,0.00872
2173.48158,0.00796
2171.42141,0.00810
2169.36124,0.00877
2167.30107,0.00874
2165.24089,0.00853
2163.18072,0.00845
2161.12055,0.00725
2159.06038,0.00522
2157.00021,0.00470
2154.94003,0.00592
2152.87986,0.00750
2150.81969,0.00844
2148.75952,0.00820
2146.69935,0.00756
2144.63917,0.00756
2142.57900,0.00773
2140.51883,0.00751
2138.45866,0.00711
2136.39849,0.00672
2134.33831,0.00670
2132.27814,0.00714
2130.21797,0.00747
2128.15780,0.00743
2126.09762,0.00732
2124.03745,0.00739
2121.97728,0.00752
2119.91711,0.00765
2117.85694,0.00756
2115.79676,0.00737
2113.73659,0.00739
2111.67642,0.00733
2109.61625,0.00702
2107.55608,0.00677
2105.49590,0.00665
2103.43573,0.00659
2101.37556,0.00684
2099.31539,0.00801
2097.25521,0.00845
2095.19504,0.00791
2093.13487,0.00696
2091.07470,0.00646
2089.01453,0.00657
2086.95435,0.00685
2084.89418,0.00691
2082.83401,0.00693
2080.77384,0.00726
2078.71367,0.00776
2076.65349,0.00816
2074.59332,0.00835
2072.53315,0.00834
2070.47298,0.00846
2068.41281,0.00891
2066.35263,0.00908
2064.29246,0.00832
2062.23229,0.00705
2060.17212,0.00629
2058.11194,0.00622
2056.05177,0.00629
2053.99160,0.00672
2051.93143,0.00781
2049.87126,0.00902
2047.81108,0.00982
2045.75091,0.00997
2043.69074,0.00928
2041.63057,0.00868
2039.57040,0.00893
2037.51022,0.00943
2035.45005,0.00956
2033.38988,0.00877
2031.32971,0.00720
2029.26954,0.00607
2027.20936,0.00604
2025.14919,0.00665
2023.08902,0.00713
2021.02885,0.00725
2018.96867,0.00696
2016.90850,0.00663
2014.84833,0.00705
2012.78816,0.00799
2010.72799,0.00876
2008.66781,0.00905
2006.60764,0.00869
2004.54747,0.00773
2002.48730,0.00673
2000.42713,0.00628
1998.36695,0.00625
1996.30678,0.00602
1994.24661,0.00575
1992.18644,0.00590
1990.12626,0.00632
1988.06609,0.00670
1986.00592,0.00676
1983.94575,0.00672
1981.88558,0.00771
1979.82540,0.01011
1977.76523,0.01173
1975.70506,0.01103
1973.64489,0.00952
1971.58472,0.00871
1969.52454,0.00848
1967.46437,0.00824
1965.40420,0.00785
1963.34403,0.00764
1961.28386,0.00753
1959.22368,0.00715
1957.16351,0.00662
1955.10334,0.00618
1953.04317,0.00597
1950.98299,0.00608
1948.92282,0.00649
1946.86265,0.00712
1944.80248,0.00760
1942.74231,0.00769
1940.68213,0.00751
1938.62196,0.00721
1936.56179,0.00690
1934.50162,0.00699
1932.44145,0.00746
1930.38127,0.00771
1928.32110,0.00755
1926.26093,0.00727
1924.20076,0.00703
1922.14059,0.00687
1920.08041,0.00681
1918.02024,0.00681
1915.96007,0.00693
1913.89990,0.00737
1911.83972,0.00778
1909.77955,0.00782
1907.71938,0.00775
1905.65921,0.00790
1903.59904,0.00804
1901.53886,0.00791
1899.47869,0.00768
1897.41852,0.00762
1895.35835,0.00759
1893.29818,0.00749
1891.23800,0.00758
1889.17783,0.00776
1887.11766,0.00780
1885.05749,0.00779
1882.99731,0.00772
1880.93714,0.00765
1878.87697,0.00768
1876.81680,0.00789
1874.75663,0.00820
1872.69645,0.00857
1870.63628,0.00897
1868.57611,0.00909
1866.51594,0.00872
1864.45577,0.00834
1862.39559,0.00831
1860.33542,0.00850
1858.27525,0.00872
1856.21508,0.00886
1854.15491,0.00883
1852.09473,0.00871
1850.03456,0.00865
1847.97439,0.00858
1845.91422,0.00834
1843.85404,0.00808
1841.79387,0.00812
1839.73370,0.00837
1837.67353,0.00849
1835.61336,0.00831
1833.55318,0.00834
1831.49301,0.00897
1829.43284,0.00959
1827.37267,0.00977
1825.31250,0.00979
1823.25232,0.00989
1821.19215,0.01000
1819.13198,0.00985
1817.07181,0.00947
1815.01163,0.00915
1812.95146,0.00892
1810.89129,0.00864
1808.83112,0.00847
1806.77095,0.00852
1804.71077,0.00850
1802.65060,0.00831
1800.59043,0.00832
1798.53026,0.00849
1796.47009,0.00864
1794.40991,0.00891
1792.34974,0.00911
1790.28957,0.00893
1788.22940,0.00849
1786.16923,0.00811
1784.10905,0.00820
1782.04888,0.00870
1779.98871,0.00887
1777.92854,0.00873
1775.86836,0.00896
1773.80819,0.00955
1771.74802,0.00961
1769.68785,0.00886
1767.62768,0.00836
1765.56750,0.00867
1763.50733,0.00936
1761.44716,0.00980
1759.38699,0.00984
1757.32682,0.00984
1755.26664,0.00999
1753.20647,0.01039
1751.14630,0.01103
1749.08613,0.01160
1747.02596,0.01176
1744.96578,0.01174
1742.90561,0.01195
1740.84544,0.01223
1738.78527,0.01225
1736.72509,0.01214
1734.66492,0.01205
1732.60475,0.01183
1730.54458,0.01167
1728.48441,0.01149
1726.42423,0.01126
1724.36406,0.01097
1722.30389,0.01090
1720.24372,0.01144
1718.18355,0.01186
1716.12337,0.01102
1714.06320,0.01008
1712.00303,0.00977
1709.94286,0.01007
1707.88268,0.01062
1705.82251,0.01074
1703.76234,0.01057
1701.70217,0.01097
1699.64200,0.01154
1697.58182,0.01163
1695.52165,0.01172
1693.46148,0.01214
1691.40131,0.01274
1689.34114,0.01373
1687.28096,0.01526
1685.22079,0.01725
1683.16062,0.01833
1681.10045,0.01841
1679.04028,0.01883
1676.98010,0.02008
1674.91993,0.02175
1672.85976,0.02327
1670.79959,0.02457
1668.73941,0.02544
1666.67924,0.02578
1664.61907,0.02629
1662.55890,0.02692
1660.49873,0.02704
1658.43855,0.02706
1656.37838,0.02783
1654.31821,0.02909
1652.25804,0.02930
1650.19787,0.02896
1648.13769,0.02899
1646.07752,0.02907
1644.01735,0.02849
1641.95718,0.02801
1639.89701,0.02842
1637.83683,0.02938
1635.77666,0.02962
1633.71649,0.02886
1631.65632,0.02820
1629.59614,0.02808
1627.53597,0.02820
1625.47580,0.02825
1623.41563,0.02814
1621.35546,0.02784
1619.29528,0.02799
1617.23511,0.02848
1615.17494,0.02821
1613.11477,0.02746
1611.05460,0.02710
1608.99442,0.02710
1606.93425,0.02704
1604.87408,0.02693
1602.81391,0.02680
1600.75373,0.02655
1598.69356,0.02638
1596.63339,0.02631
1594.57322,0.02605
1592.51305,0.02549
1590.45287,0.02487
1588.39270,0.02433
1586.33253,0.02380
1584.27236,0.02317
1582.21219,0.02253
1580.15201,0.02229
1578.09184,0.02235
1576.03167,0.02177
1573.97150,0.02041
1571.91133,0.01957
1569.85115,0.01928
1567.79098,0.01857
1565.73081,0.01758
1563.67064,0.01720
1561.61046,0.01800
1559.55029,0.01868
1557.49012,0.01703
1555.42995,0.01510
1553.36978,0.01408
1551.30960,0.01364
1549.24943,0.01335
1547.18926,0.01318
1545.12909,0.01355
1543.06892,0.01450
1541.00874,0.01527
1538.94857,0.01434
1536.88840,0.01262
1534.82823,0.01175
1532.76805,0.01151
1530.70788,0.01101
1528.64771,0.01056
1526.58754,0.01025
1524.52737,0.00997
1522.46719,0.00975
1520.40702,0.00925
1518.34685,0.00879
1516.28668,0.00828
1514.22651,0.00747
1512.16633,0.00693
1510.10616,0.00722
1508.04599,0.00786
1505.98582,0.00771
1503.92565,0.00682
1501.86547,0.00617
1499.80530,0.00646
1497.74513,0.00704
1495.68496,0.00708
1493.62478,0.00710
1491.56461,0.00749
1489.50444,0.00763
1487.44427,0.00734
1485.38410,0.00711
1483.32392,0.00710
1481.26375,0.00726
1479.20358,0.00758
1477.14341,0.00803
1475.08324,0.00853
1473.02306,0.00890
1470.96289,0.00892
1468.90272,0.00883
1466.84255,0.00918
1464.78238,0.00966
1462.72220,0.00982
1460.66203,0.01030
1458.60186,0.01102
1456.54169,0.01090
1454.48151,0.01041
1452.42134,0.01030
1450.36117,0.01085
1448.30100,0.01165
1446.24083,0.01212
1444.18065,0.01232
1442.12048,0.01249
1440.06031,0.01269
1438.00014,0.01284
1435.93997,0.01279
1433.87979,0.01281
1431.81962,0.01316
1429.75945,0.01377
1427.69928,0.01430
1425.63910,0.01487
1423.57893,0.01546
1421.51876,0.01580
1419.45859,0.01597
1417.39842,0.01634
1415.33824,0.01712
1413.27807,0.01804
1411.21790,0.01878
1409.15773,0.01931
1407.09756,0.01972
1405.03738,0.01990
1402.97721,0.01987
1400.91704,0.01980
1398.85687,0.01960
1396.79670,0.01935
1394.73652,0.01926
1392.67635,0.01910
1390.61618,0.01885
1388.55601,0.01871
1386.49583,0.01868
1384.43566,0.01866
1382.37549,0.01862
1380.31532,0.01859
1378.25515,0.01873
1376.19497,0.01906
1374.13480,0.01913
1372.07463,0.01888
1370.01446,0.01876
1367.95429,0.01880
1365.89411,0.01881
1363.83394,0.01865
1361.77377,0.01835
1359.71360,0.01825
1357.65343,0.01832
1355.59325,0.01836
1353.53308,0.01830
1351.47291,0.01813
1349.41274,0.01787
1347.35256,0.01747
1345.29239,0.01691
1343.23222,0.01622
1341.17205,0.01545
1339.11188,0.01468
1337.05170,0.01435
1334.99153,0.01448
1332.93136,0.01454
1330.87119,0.01429
1328.81102,0.01393
1326.75084,0.01362
1324.69067,0.01332
1322.63050,0.01305
1320.57033,0.01287
1318.51015,0.01261
1316.44998,0.01228
1314.38981,0.01205
1312.32964,0.01192
1310.26947,0.01185
1308.20929,0.01174
1306.14912,0.01155
1304.08895,0.01143
1302.02878,0.01145
1299.96861,0.01146
1297.90843,0.01140
1295.84826,0.01138
1293.78809,0.01131
1291.72792,0.01104
1289.66775,0.01074
1287.60757,0.01060
1285.54740,0.01062
1283.48723,0.01066
1281.42706,0.01063
1279.36688,0.01055
1277.30671,0.01053
1275.24654,0.01062
1273.18637,0.01068
1271.12620,0.01064
1269.06602,0.01059
1267.00585,0.01061
1264.94568,0.01073
1262.88551,0.01091
1260.82534,0.01105
1258.76516,0.01117
1256.70499,0.01126
1254.64482,0.01126
1252.58465,0.01122
1250.52447,0.01119
1248.46430,0.01113
1246.40413,0.01094
1244.34396,0.01072
1242.28379,0.01062
1240.22361,0.01054
1238.16344,0.01039
1236.10327,0.01022
1234.04310,0.00999
1231.98293,0.00978
1229.92275,0.00960
1227.86258,0.00928
1225.80241,0.00888
1223.74224,0.00855
1221.68207,0.00822
1219.62189,0.00784
1217.56172,0.00747
1215.50155,0.00715
1213.44138,0.00682
1211.38120,0.00651
1209.32103,0.00630
1207.26086,0.00622
1205.20069,0.00628
1203.14052,0.00651
1201.08034,0.00679
1199.02017,0.00704
1196.96000,0.00760
1194.89983,0.00840
1192.83966,0.00927
1190.77948,0.01020
1188.71931,0.01134
1186.65914,0.01283
1184.59897,0.01462
1182.53880,0.01644
1180.47862,0.01816
1178.41845,0.01987
1176.35828,0.02141
1174.29811,0.02288
1172.23793,0.02458
1170.17776,0.02627
1168.11759,0.02775
1166.05742,0.02920
1163.99725,0.03073
1161.93707,0.03228
1159.87690,0.03374
1157.81673,0.03519
1155.75656,0.03667
1153.69639,0.03804
1151.63621,0.03931
1149.57604,0.04062
1147.51587,0.04185
1145.45570,0.04286
1143.39552,0.04363
1141.33535,0.04418
1139.27518,0.04448
1137.21501,0.04467
1135.15484,0.04494
1133.09466,0.04526
1131.03449,0.04559
1128.97432,0.04594
1126.91415,0.04636
1124.85398,0.04704
1122.79380,0.04809
1120.73363,0.04923
1118.67346,0.05038
1116.61329,0.05172
1114.55312,0.05333
1112.49294,0.05506
1110.43277,0.05678
1108.37260,0.05849
1106.31243,0.06029
1104.25225,0.06216
1102.19208,0.06400
1100.13191,0.06583
1098.07174,0.06766
1096.01157,0.06937
1093.95139,0.07095
1091.89122,0.07253
1089.83105,0.07417
1087.77088,0.07582
1085.71071,0.07737
1083.65053,0.07889
1081.59036,0.08049
1079.53019,0.08202
1077.47002,0.08346
1075.40985,0.08478
1073.34967,0.08575
1071.28950,0.08628
1069.22933,0.08650
1067.16916,0.08645
1065.10898,0.08614
1063.04881,0.08563
1060.98864,0.08493
1058.92847,0.08399
1056.86830,0.08298
1054.80812,0.08201
1052.74795,0.08086
1050.68778,0.07934
1048.62761,0.07759
1046.56744,0.07584
1044.50726,0.07413
1042.44709,0.07223
1040.38692,0.07000
1038.32675,0.06758
1036.26657,0.06489
1034.20640,0.06198
1032.14623,0.05943
1030.08606,0.05747
1028.02589,0.05565
1025.96571,0.05373
1023.90554,0.05183
1021.84537,0.04998
1019.78520,0.04813
1017.72503,0.04637
1015.66485,0.04498
1013.60468,0.04409
1011.54451,0.04335
1009.48434,0.04269
1007.42417,0.04229
1005.36399,0.04229
1003.30382,0.04282
1001.24365,0.04367
999.18348,0.04455
997.12330,0.04547
995.06313,0.04633
993.00296,0.04700
990.94279,0.04771
988.88262,0.04850
986.82244,0.04912
984.76227,0.04949
982.70210,0.04964
980.64193,0.04978
978.58176,0.04997
976.52158,0.05005
974.46141,0.04982
972.40124,0.04931
970.34107,0.04864
968.28089,0.04785
966.22072,0.04707
964.16055,0.04642
962.10038,0.04577
960.04021,0.04512
957.98003,0.04464
955.91986,0.04426
953.85969,0.04376
951.79952,0.04310
949.73935,0.04242
947.67917,0.04193
945.61900,0.04161
943.55883,0.04121
941.49866,0.04061
939.43849,0.03979
937.37831,0.03884
935.31814,0.03778
933.25797,0.03662
931.19780,0.03534
929.13762,0.03399
927.07745,0.03263
925.01728,0.03130
922.95711,0.03008
920.89694,0.02887
918.83676,0.02748
916.77659,0.02595
914.71642,0.02448
912.65625,0.02324
910.59608,0.02224
908.53590,0.02139
906.47573,0.02051
904.41556,0.01962
902.35539,0.01901
900.29522,0.01868
898.23504,0.01838
896.17487,0.01821
894.11470,0.01833
892.05453,0.01864
889.99435,0.01899
887.93418,0.01942
885.87401,0.02020
883.81384,0.02120
881.75367,0.02229
879.69349,0.02355
877.63332,0.02511
875.57315,0.02693
873.51298,0.02895
871.45281,0.03117
869.39263,0.03345
867.33246,0.03567
865.27229,0.03795
863.21212,0.04018
861.15194,0.04212
859.09177,0.04375
857.03160,0.04488
854.97143,0.04536
852.91126,0.04544
850.85108,0.04518
848.79091,0.04447
846.73074,0.04350
844.67057,0.04249
842.61040,0.04133
840.55022,0.03989
838.49005,0.03811
836.42988,0.03611
834.36971,0.03456
832.30954,0.03362
830.24936,0.03257
828.18919,0.03118
826.12902,0.02984
824.06885,0.02872
822.00867,0.02780
819.94850,0.02707
817.88833,0.02636
815.82816,0.02543
813.76799,0.02432
811.70781,0.02328
809.64764,0.02238
807.58747,0.02175
805.52730,0.02147
803.46713,0.02119
801.40695,0.02061
799.34678,0.01977
797.28661,0.01894
795.22644,0.01827
793.16627,0.01784
791.10609,0.01767
789.04592,0.01748
786.98575,0.01699
784.92558,0.01643
782.86540,0.01618
780.80523,0.01611
778.74506,0.01603
776.68489,0.01588
774.62472,0.01550
772.56454,0.01504
770.50437,0.01473
768.44420,0.01433
766.38403,0.01380
764.32386,0.01341
762.26368,0.01313
760.20351,0.01282
758.14334,0.01249
756.08317,0.01208
754.02299,0.01163
751.96282,0.01151
749.90265,0.01161
747.84248,0.01126
745.78231,0.01062
743.72213,0.01026
741.66196,0.00997
739.60179,0.00952
737.54162,0.00925
735.48145,0.00939
733.42127,0.00974
731.36110,0.00980
729.30093,0.00953
727.24076,0.00938
725.18059,0.00935
723.12041,0.00956
721.06024,0.00951
719.00007,0.00975
716.93990,0.00984
714.87972,0.00949
712.81955,0.00922
710.75938,0.00907
708.69921,0.00877
706.63904,0.00855
704.57886,0.00877
702.51869,0.00911
700.45852,0.00892
698.39835,0.00816
696.33818,0.00763
694.27800,0.00788
692.21783,0.00832
690.15766,0.00816
688.09749,0.00776
686.03731,0.00789
683.97714,0.00848
681.91697,0.00896
679.85680,0.00887
677.79663,0.00839
675.73645,0.00829
673.67628,0.00848
671.61611,0.00741
669.55594,0.00520
667.49577,0.00469
665.43559,0.00565
663.37542,0.00682
661.31525,0.00726
659.25508,0.00725
657.19491,0.00691
655.13473,0.00645
653.07456,0.00613
651.01439,0.00577
648.95422,0.00536
646.89404,0.00544
644.83387,0.00615
642.77370,0.00703
640.71353,0.00722
638.65336,0.00626
636.59318,0.00475
634.53301,0.00375
632.47284,0.00340
630.41267,0.00330
628.35250,0.00342
626.29232,0.00372
624.23215,0.00409
622.17198,0.00421
620.11181,0.00354
618.05164,0.00218
615.99146,0.00079
613.93129,0.00013
611.87112,0.00094
609.81095,0.00220
607.75077,0.00229
605.69060,0.00157
603.63043,0.00068
601.57026,0.00000
599.51009,0.00000
