3996.73391,0.00028
3994.67373,0.00032
3992.61356,0.00033
3990.55339,0.00039
3988.49322,0.00046
3986.43305,0.00052
3984.37287,0.00050
3982.31270,0.00043
3980.25253,0.00048
3978.19236,0.00063
3976.13219,0.00078
3974.07201,0.00094
3972.01184,0.00106
3969.95167,0.00114
3967.89150,0.00128
3965.83133,0.00137
3963.77115,0.00122
3961.71098,0.00096
3959.65081,0.00083
3957.59064,0.00088
3955.53046,0.00112
3953.47029,0.00146
3951.41012,0.00136
3949.34995,0.00058
3947.28978,0.00000
3945.22960,0.00031
3943.16943,0.00079
3941.10926,0.00094
3939.04909,0.00102
3936.98892,0.00101
3934.92874,0.00073
3932.86857,0.00040
3930.80840,0.00054
3928.74823,0.00103
3926.68805,0.00138
3924.62788,0.00132
3922.56771,0.00088
3920.50754,0.00053
3918.44737,0.00044
3916.38719,0.00084
3914.32702,0.00161
3912.26685,0.00209
3910.20668,0.00219
3908.14651,0.00217
3906.08633,0.00185
3904.02616,0.00092
3901.96599,0.00030
3899.90582,0.00073
3897.84565,0.00128
3895.78547,0.00137
3893.72530,0.00126
3891.66513,0.00113
3889.60496,0.00103
3887.54478,0.00087
3885.48461,0.00067
3883.42444,0.00064
3881.36427,0.00075
3879.30410,0.00089
3877.24392,0.00107
3875.18375,0.00112
3873.12358,0.00076
3871.06341,0.00021
3869.00324,0.00007
3866.94306,0.00035
3864.88289,0.00056
3862.82272,0.00048
3860.76255,0.00035
3858.70237,0.00025
3856.64220,0.00007
3854.58203,0.00038
3852.52186,0.00115
3850.46169,0.00171
3848.40151,0.00159
3846.34134,0.00142
3844.28117,0.00148
3842.22100,0.00147
3840.16083,0.00121
3838.10065,0.00098
3836.04048,0.00128
3833.98031,0.00190
3831.92014,0.00241
3829.85997,0.00281
3827.79979,0.00292
3825.73962,0.00269
3823.67945,0.00254
3821.61928,0.00267
3819.55910,0.00259
3817.49893,0.00264
3815.43876,0.00301
3813.37859,0.00326
3811.31842,0.00316
3809.25824,0.00305
3807.19807,0.00314
3805.13790,0.00359
3803.07773,0.00441
3801.01756,0.00481
3798.95738,0.00448
3796.89721,0.00421
3794.83704,0.00465
3792.77687,0.00532
3790.71670,0.00549
3788.65652,0.00545
3786.59635,0.00562
3784.53618,0.00579
3782.47601,0.00593
3780.41583,0.00625
3778.35566,0.00640
3776.29549,0.00630
3774.23532,0.00623
3772.17515,0.00621
3770.11497,0.00594
3768.05480,0.00544
3765.99463,0.00506
3763.93446,0.00487
3761.87429,0.00478
3759.81411,0.00449
3757.75394,0.00380
3755.69377,0.00336
3753.63360,0.00339
3751.57342,0.00290
3749.51325,0.00143
3747.45308,0.00039
3745.39291,0.00000
3743.33274,0.00080
3741.27256,0.00209
3739.21239,0.00256
3737.15222,0.00258
3735.09205,0.00251
3733.03188,0.00274
3730.97170,0.00340
3728.91153,0.00396
3726.85136,0.00403
3724.79119,0.00392
3722.73102,0.00413
3720.67084,0.00466
3718.61067,0.00479
3716.55050,0.00453
3714.49033,0.00463
3712.43015,0.00537
3710.36998,0.00586
3708.30981,0.00583
3706.24964,0.00599
3704.18947,0.00638
3702.12929,0.00661
3700.06912,0.00654
3698.00895,0.00645
3695.94878,0.00657
3693.88861,0.00696
3691.82843,0.00754
3689.76826,0.00758
3687.70809,0.00704
3685.64792,0.00674
3683.58775,0.00675
3681.52757,0.00683
3679.46740,0.00673
3677.40723,0.00633
3675.34706,0.00594
3673.28688,0.00595
3671.22671,0.00642
3669.16654,0.00704
3667.10637,0.00729
3665.04620,0.00730
3662.98602,0.00743
3660.92585,0.00759
3658.86568,0.00761
3656.80551,0.00755
3654.74534,0.00777
3652.68516,0.00850
3650.62499,0.00909
3648.56482,0.00869
3646.50465,0.00857
3644.44447,0.00884
3642.38430,0.00918
3640.32413,0.00967
3638.26396,0.01014
3636.20379,0.01048
3634.14361,0.01083
3632.08344,0.01119
3630.02327,0.01160
3627.96310,0.01184
3625.90293,0.01188
3623.84275,0.01198
3621.78258,0.01212
3619.72241,0.01218
3617.66224,0.01232
3615.60207,0.01253
3613.54189,0.01251
3611.48172,0.01233
3609.42155,0.01273
3607.36138,0.01365
3605.30120,0.01452
3603.24103,0.01535
3601.18086,0.01622
3599.12069,0.01685
3597.06052,0.01712
3595.00034,0.01734
3592.94017,0.01769
3590.88000,0.01807
3588.81983,0.01819
3586.75966,0.01831
3584.69948,0.01890
3582.63931,0.01974
3580.57914,0.02046
3578.51897,0.02095
3576.45879,0.02130
3574.39862,0.02167
3572.33845,0.02219
3570.27828,0.02261
3568.21811,0.02257
3566.15793,0.02237
3564.09776,0.02272
3562.03759,0.02338
3559.97742,0.02413
3557.91725,0.02482
3555.85707,0.02523
3553.79690,0.02551
3551.73673,0.02584
3549.67656,0.02596
3547.61639,0.02574
3545.55621,0.02572
3543.49604,0.02636
3541.43587,0.02726
3539.37570,0.02805
3537.31552,0.02867
3535.25535,0.02915
3533.19518,0.02956
3531.13501,0.02992
3529.07484,0.03008
3527.01466,0.02993
3524.95449,0.02989
3522.89432,0.03049
3520.83415,0.03147
3518.77398,0.03225
3516.71380,0.03274
3514.65363,0.03315
3512.59346,0.03345
3510.53329,0.03348
3508.47312,0.03341
3506.41294,0.03357
3504.35277,0.03389
3502.29260,0.03422
3500.23243,0.03487
3498.17225,0.03575
3496.11208,0.03630
3494.05191,0.03646
3491.99174,0.03657
3489.93157,0.03691
3487.87139,0.03739
3485.81122,0.03774
3483.75105,0.03804
3481.69088,0.03836
3479.63071,0.03860
3477.57053,0.03895
3475.51036,0.03938
3473.45019,0.03960
3471.39002,0.03972
3469.32984,0.04005
3467.26967,0.04055
3465.20950,0.04089
3463.14933,0.04099
3461.08916,0.04114
3459.02898,0.04156
3456.96881,0.04209
3454.90864,0.04254
3452.84847,0.04282
3450.78830,0.04304
3448.72812,0.04318
3446.66795,0.04308
3444.60778,0.04300
3442.54761,0.04321
3440.48744,0.04341
3438.42726,0.04362
3436.36709,0.04414
3434.30692,0.04474
3432.24675,0.04500
3430.18657,0.04513
3428.12640,0.04543
3426.06623,0.04557
3424.00606,0.04541
3421.94589,0.04540
3419.88571,0.04563
3417.82554,0.04608
3415.76537,0.04669
3413.70520,0.04720
3411.64503,0.04731
3409.58485,0.04723
3407.52468,0.04738
3405.46451,0.04768
3403.40434,0.04793
3401.34416,0.04798
3399.28399,0.04700
3397.22382,0.04710
3395.16365,0.04738
3393.10348,0.04746
3391.04330,0.04771
3388.98313,0.04831
3386.92296,0.04889
3384.86279,0.04924
3382.80262,0.04944
3380.74244,0.04951
3378.68227,0.04968
3376.62210,0.05000
3374.56193,0.05029
3372.50176,0.05037
3370.44158,0.05031
3368.38141,0.05014
3366.32124,0.04994
3364.26107,0.05003
3362.20089,0.05031
3360.14072,0.05044
3358.08055,0.05046
3356.02038,0.05055
3353.96021,0.05074
3351.90003,0.05092
3349.83986,0.05105
3347.77969,0.05114
3345.71952,0.05115
3343.65935,0.05115
3341.59917,0.05110
3339.53900,0.05097
3337.47883,0.05100
3335.41866,0.05126
3333.35849,0.05153
3331.29831,0.05176
3329.23814,0.05192
3327.17797,0.05189
3325.11780,0.05174
3323.05762,0.05177
3320.99745,0.05203
3318.93728,0.05222
3316.87711,0.05226
3314.81694,0.05217
3312.75676,0.05200
3310.69659,0.05186
3308.63642,0.05183
3306.57625,0.05196
3304.51608,0.05219
3302.45590,0.05240
3300.39573,0.05248
3298.33556,0.05241
3296.27539,0.05226
3294.21521,0.05210
3292.15504,0.05206
3290.09487,0.05223
3288.03470,0.05258
3285.97453,0.05279
3283.91435,0.05266
3281.85418,0.05247
3279.79401,0.05222
3277.73384,0.05190
3275.67367,0.05185
3273.61349,0.05201
3271.55332,0.05214
3269.49315,0.05228
3267.43298,0.05249
3265.37281,0.05253
3263.31263,0.05236
3261.25246,0.05215
3259.19229,0.05208
3257.13212,0.05208
3255.07194,0.05203
3253.01177,0.05200
3250.95160,0.05209
3248.89143,0.05227
3246.83126,0.05236
3244.77108,0.05230
3242.71091,0.05219
3240.65074,0.05211
3238.59057,0.05203
3236.53040,0.05187
3234.47022,0.05166
3232.41005,0.05153
3230.34988,0.05145
3228.28971,0.05136
3226.22954,0.05131
3224.16936,0.05132
3222.10919,0.05122
3220.04902,0.05094
3217.98885,0.05084
3215.92867,0.05100
3213.86850,0.05109
3211.80833,0.05100
3209.74816,0.05082
3207.68799,0.05066
3205.62781,0.05056
3203.56764,0.05047
3201.50747,0.05027
3199.44730,0.05002
3197.38713,0.04995
3195.32695,0.05003
3193.26678,0.05005
3191.20661,0.04990
3189.14644,0.04972
3187.08626,0.04962
3185.02609,0.04942
3182.96592,0.04926
3180.90575,0.04916
3178.84558,0.04896
3176.78540,0.04883
3174.72523,0.04884
3172.66506,0.04892
3170.60489,0.04897
3168.54472,0.04891
3166.48454,0.04879
3164.42437,0.04866
3162.36420,0.04849
3160.30403,0.04831
3158.24386,0.04828
3156.18368,0.04820
3154.12351,0.04788
3152.06334,0.04754
3150.00317,0.04744
3147.94299,0.04748
3145.88282,0.04741
3143.82265,0.04719
3141.76248,0.04702
3139.70231,0.04693
3137.64213,0.04687
3135.58196,0.04672
3133.52179,0.04644
3131.46162,0.04629
3129.40145,0.04627
3127.34127,0.04609
3125.28110,0.04564
3123.22093,0.04514
3121.16076,0.04488
3119.10058,0.04482
3117.04041,0.04476
3114.98024,0.04468
3112.92007,0.04462
3110.85990,0.04454
3108.79972,0.04444
3106.73955,0.04435
3104.67938,0.04410
3102.61921,0.04364
3100.55904,0.04330
3098.49886,0.04321
3096.43869,0.04315
3094.37852,0.04308
3092.31835,0.04320
3090.25818,0.04334
3088.19800,0.04329
3086.13783,0.04318
3084.07766,0.04299
3082.01749,0.04264
3079.95731,0.04229
3077.89714,0.04215
3075.83697,0.04213
3073.77680,0.04211
3071.71663,0.04204
3069.65645,0.04183
3067.59628,0.04149
3065.53611,0.04126
3063.47594,0.04130
3061.41577,0.04144
3059.35559,0.04136
3057.29542,0.04109
3055.23525,0.04081
3053.17508,0.04058
3051.11491,0.04039
3049.05473,0.04018
3046.99456,0.03994
3044.93439,0.03972
3042.87422,0.03961
3040.81404,0.03954
3038.75387,0.03940
3036.69370,0.03911
3034.63353,0.03874
3032.57336,0.03840
3030.51318,0.03818
3028.45301,0.03807
3026.39284,0.03801
3024.33267,0.03797
3022.27250,0.03788
3020.21232,0.03769
3018.15215,0.03740
3016.09198,0.03691
3014.03181,0.03631
3011.97163,0.03591
3009.91146,0.03592
3007.85129,0.03606
3005.79112,0.03606
3003.73095,0.03599
3001.67077,0.03596
2999.61060,0.03606
2997.55043,0.03590
2995.49026,0.03569
2993.43009,0.03559
2991.36991,0.03560
2989.30974,0.03548
2987.24957,0.03529
2985.18940,0.03528
2983.12923,0.03541
2981.06905,0.03551
2979.00888,0.03552
2976.94871,0.03556
2974.88854,0.03563
2972.82836,0.03567
2970.76819,0.03578
2968.70802,0.03586
2966.64785,0.03585
2964.58768,0.03589
2962.52750,0.03600
2960.46733,0.03609
2958.40716,0.03619
2956.34699,0.03627
2954.28682,0.03615
2952.22664,0.03599
2950.16647,0.03598
2948.10630,0.03606
2946.04613,0.03617
2943.98596,0.03630
2941.92578,0.03622
2939.86561,0.03597
2937.80544,0.03587
2935.74527,0.03598
2933.68509,0.03620
2931.62492,0.03641
2929.56475,0.03636
2927.50458,0.03609
2925.44441,0.03590
2923.38423,0.03592
2921.32406,0.03608
2919.26389,0.03621
2917.20372,0.03615
2915.14355,0.03600
2913.08337,0.03586
2911.02320,0.03562
2908.96303,0.03537
2906.90286,0.03526
2904.84268,0.03517
2902.78251,0.03499
2900.72234,0.03481
2898.66217,0.03475
2896.60200,0.03474
2894.54182,0.03464
2892.48165,0.03444
2890.42148,0.03432
2888.36131,0.03437
2886.30114,0.03443
2884.24096,0.03440
2882.18079,0.03438
2880.12062,0.03429
2878.06045,0.03408
2876.00028,0.03387
2873.94010,0.03372
2871.87993,0.03359
2869.81976,0.03343
2867.75959,0.03334
2865.69941,0.03324
2863.63924,0.03302
2861.57907,0.03280
2859.51890,0.03262
2857.45873,0.03240
2855.39855,0.03229
2853.33838,0.03230
2851.27821,0.03220
2849.21804,0.03205
2847.15787,0.03194
2845.09769,0.03172
2843.03752,0.03139
2840.97735,0.03110
2838.91718,0.03088
2836.85700,0.03072
2834.79683,0.03058
2832.73666,0.03037
2830.67649,0.03013
2828.61632,0.02999
2826.55614,0.02990
2824.49597,0.02983
2822.43580,0.02973
2820.37563,0.02953
2818.31546,0.02933
2816.25528,0.02922
2814.19511,0.02918
2812.13494,0.02908
2810.07477,0.02880
2808.01460,0.02843
2805.95442,0.02818
2803.89425,0.02804
2801.83408,0.02797
2799.77391,0.02793
2797.71373,0.02780
2795.65356,0.02764
2793.59339,0.02756
2791.53322,0.02754
2789.47305,0.02750
2787.41287,0.02733
2785.35270,0.02710
2783.29253,0.02698
2781.23236,0.02690
2779.17219,0.02677
2777.11201,0.02660
2775.05184,0.02636
2772.99167,0.02615
2770.93150,0.02601
2768.87133,0.02587
2766.81115,0.02576
2764.75098,0.02571
2762.69081,0.02562
2760.63064,0.02539
2758.57046,0.02516
2756.51029,0.02510
2754.45012,0.02518
2752.38995,0.02524
2750.32978,0.02517
2748.26960,0.02493
2746.20943,0.02465
2744.14926,0.02449
2742.08909,0.02447
2740.02892,0.02445
2737.96874,0.02434
2735.90857,0.02414
2733.84840,0.02398
2731.78823,0.02388
2729.72805,0.02386
2727.66788,0.02386
2725.60771,0.02378
2723.54754,0.02364
2721.48737,0.02338
2719.42719,0.02311
2717.36702,0.02300
2715.30685,0.02300
2713.24668,0.02298
2711.18651,0.02298
2709.12633,0.02291
2707.06616,0.02274
2705.00599,0.02261
2702.94582,0.02250
2700.88565,0.02236
2698.82547,0.02226
2696.76530,0.02216
2694.70513,0.02207
2692.64496,0.02200
2690.58478,0.02198
2688.52461,0.02201
2686.46444,0.02199
2684.40427,0.02191
2682.34410,0.02176
2680.28392,0.02160
2678.22375,0.02156
2676.16358,0.02151
2674.10341,0.02143
2672.04324,0.02134
2669.98306,0.02113
2667.92289,0.02096
2665.86272,0.02097
2663.80255,0.02102
2661.74238,0.02099
2659.68220,0.02088
2657.62203,0.02070
2655.56186,0.02053
2653.50169,0.02048
2651.44151,0.02050
2649.38134,0.02046
2647.32117,0.02037
2645.26100,0.02029
2643.20083,0.02018
2641.14065,0.02005
2639.08048,0.01999
2637.02031,0.02002
2634.96014,0.02010
2632.89997,0.02006
2630.83979,0.01987
2628.77962,0.01967
2626.71945,0.01950
2624.65928,0.01946
2622.59910,0.01951
2620.53893,0.01952
2618.47876,0.01948
2616.41859,0.01941
2614.35842,0.01933
2612.29824,0.01931
2610.23807,0.01927
2608.17790,0.01919
2606.11773,0.01907
2604.05756,0.01894
2601.99738,0.01898
2599.93721,0.01907
2597.87704,0.01906
2595.81687,0.01911
2593.75670,0.01927
2591.69652,0.01934
2589.63635,0.01931
2587.57618,0.01919
2585.51601,0.01901
2583.45583,0.01893
2581.39566,0.01894
2579.33549,0.01897
2577.27532,0.01900
2575.21515,0.01896
2573.15497,0.01884
2571.09480,0.01862
2569.03463,0.01849
2566.97446,0.01866
2564.91429,0.01890
2562.85411,0.01893
2560.79394,0.01891
2558.73377,0.01889
2556.67360,0.01888
2554.61342,0.01891
2552.55325,0.01896
2550.49308,0.01895
2548.43291,0.01891
2546.37274,0.01881
2544.31256,0.01869
2542.25239,0.01867
2540.19222,0.01865
2538.13205,0.01854
2536.07188,0.01853
2534.01170,0.01874
2531.95153,0.01895
2529.89136,0.01897
2527.83119,0.01885
2525.77102,0.01887
2523.71084,0.01905
2521.65067,0.01913
2519.59050,0.01913
2517.53033,0.01909
2515.47015,0.01894
2513.40998,0.01883
2511.34981,0.01896
2509.28964,0.01920
2507.22947,0.01933
2505.16929,0.01930
2503.10912,0.01926
2501.04895,0.01919
2498.98878,0.01894
2496.92861,0.01883
2494.86843,0.01908
2492.80826,0.01937
2490.74809,0.01956
2488.68792,0.01965
2486.62775,0.01962
2484.56757,0.01959
2482.50740,0.01970
2480.44723,0.01985
2478.38706,0.01989
2476.32688,0.01986
2474.26671,0.01995
2472.20654,0.02010
2470.14637,0.02014
2468.08620,0.02005
2466.02602,0.02004
2463.96585,0.02017
2461.90568,0.02027
2459.84551,0.02036
2457.78534,0.02043
2455.72516,0.02038
2453.66499,0.02030
2451.60482,0.02018
2449.54465,0.02012
2447.48447,0.02028
2445.42430,0.02056
2443.36413,0.02070
2441.30396,0.02064
2439.24379,0.02048
2437.18361,0.02037
2435.12344,0.02026
2433.06327,0.02008
2431.00310,0.01997
2428.94293,0.02004
2426.88275,0.02029
2424.82258,0.02041
2422.76241,0.02032
2420.70224,0.02029
2418.64207,0.02039
2416.58189,0.02047
2414.52172,0.02045
2412.46155,0.02020
2410.40138,0.01988
2408.34120,0.01972
2406.28103,0.01972
2404.22086,0.01984
2402.16069,0.02008
2400.10052,0.02021
2398.04034,0.01960
2395.98017,0.01953
2393.92000,0.01978
2391.85983,0.01998
2389.79966,0.02009
2387.73948,0.02013
2385.67931,0.02005
2383.61914,0.01975
2381.55897,0.01917
2379.49880,0.01852
2377.43862,0.01821
2375.37845,0.01801
2373.31828,0.01811
2371.25811,0.01854
2369.19793,0.01910
2367.13776,0.02004
2365.07759,0.02110
2363.01742,0.02097
2360.95725,0.02122
2358.89707,0.02052
2356.83690,0.02034
2354.77673,0.02057
2352.71656,0.02098
2350.65639,0.02284
2348.59621,0.02360
2346.53604,0.01988
2344.47587,0.01916
2342.41570,0.02042
2340.35552,0.02129
2338.29535,0.02153
2336.23518,0.02122
2334.17501,0.02092
2332.11484,0.02036
2330.05466,0.01991
2327.99449,0.01943
2325.93432,0.01947
2323.87415,0.01826
2321.81398,0.01696
2319.75380,0.01589
2317.69363,0.01616
2315.63346,0.01626
2313.57329,0.01596
2311.51312,0.01597
2309.45294,0.01616
2307.39277,0.01631
2305.33260,0.01647
2303.27243,0.01687
2301.21225,0.01723
2299.15208,0.01738
2297.09191,0.01724
2295.03174,0.01711
2292.97157,0.01720
2290.91139,0.01725
2288.85122,0.01716
2286.79105,0.01701
2284.73088,0.01681
2282.67071,0.01669
2280.61053,0.01675
2278.55036,0.01679
2276.49019,0.01662
2274.43002,0.01647
2272.36984,0.01620
2270.30967,0.01583
2268.24950,0.01579
2266.18933,0.01612
2264.12916,0.01646
2262.06898,0.01651
2260.00881,0.01621
2257.94864,0.01584
2255.88847,0.01567
2253.82830,0.01567
2251.76812,0.01529
2249.70795,0.01439
2247.64778,0.01426
2245.58761,0.01457
2243.52744,0.01437
2241.46726,0.01393
2239.40709,0.01379
2237.34692,0.01403
2235.28675,0.01436
2233.22657,0.01458
2231.16640,0.01487
2229.10623,0.01493
2227.04606,0.01447
2224.98589,0.01410
2222.92571,0.01404
2220.86554,0.01363
2218.80537,0.01299
2216.74520,0.01287
2214.68503,0.01309
2212.62485,0.01326
2210.56468,0.01339
2208.50451,0.01322
2206.44434,0.01290
2204.38417,0.01310
2202.32399,0.01368
2200.26382,0.01339
2198.20365,0.01239
2196.14348,0.01205
2194.08330,0.01212
2192.02313,0.01202
2189.96296,0.01183
2187.90279,0.01160
2185.84262,0.01137
2183.78244,0.01110
2181.72227,0.01110
2179.66210,0.01162
2177.60193,0.01197
2175.54176,0.01157
2173.48158,0.01136
2171.42141,0.01176
2169.36124,0.01198
2167.30107,0.01197
2165.24089,0.01173
2163.18072,0.01070
2161.12055,0.00919
2159.06038,0.00782
2157.00021,0.00739
2154.94003,0.00872
2152.87986,0.01044
2150.81969,0.01108
2148.75952,0.01077
2146.69935,0.00991
2144.63917,0.00951
2142.57900,0.00997
2140.51883,0.01041
2138.45866,0.01026
2136.39849,0.00981
2134.33831,0.00975
2132.27814,0.01029
2130.21797,0.01079
2128.15780,0.01087
2126.09762,0.01081
2124.03745,0.01078
2121.97728,0.01081
2119.91711,0.01099
2117.85694,0.01095
2115.79676,0.01053
2113.73659,0.01039
2111.67642,0.01076
2109.61625,0.01101
2107.55608,0.01089
2105.49590,0.01059
2103.43573,0.01036
2101.37556,0.01053
2099.31539,0.01144
2097.25521,0.01153
2095.19504,0.01094
2093.13487,0.01010
2091.07470,0.00958
2089.01453,0.00946
2086.95435,0.00945
2084.89418,0.00959
2082.83401,0.00988
2080.77384,0.01034
2078.71367,0.01077
2076.65349,0.01104
2074.59332,0.01131
2072.53315,0.01143
2070.47298,0.01114
2068.41281,0.01086
2066.35263,0.01092
2064.29246,0.01079
2062.23229,0.01014
2060.17212,0.00952
2058.11194,0.00930
2056.05177,0.00942
2053.99160,0.00994
2051.93143,0.01064
2049.87126,0.01123
2047.81108,0.01175
2045.75091,0.01222
2043.69074,0.01209
2041.63057,0.01142
2039.57040,0.01142
2037.51022,0.01205
2035.45005,0.01208
2033.38988,0.01112
2031.32971,0.00986
2029.26954,0.00937
2027.20936,0.01009
2025.14919,0.01143
2023.08902,0.01202
2021.02885,0.01130
2018.96867,0.01060
2016.90850,0.01070
2014.84833,0.01086
2012.78816,0.01101
2010.72799,0.01168
2008.66781,0.01225
2006.60764,0.01195
2004.54747,0.01093
2002.48730,0.00966
2000.42713,0.00876
1998.36695,0.00857
1996.30678,0.00871
1994.24661,0.00906
1992.18644,0.00930
1990.12626,0.00889
1988.06609,0.00834
1986.00592,0.00823
1983.94575,0.00890
1981.88558,0.01057
1979.82540,0.01245
1977.76523,0.01358
1975.70506,0.01383
1973.64489,0.01330
1971.58472,0.01226
1969.52454,0.01113
1967.46437,0.01056
1965.40420,0.01072
1963.34403,0.01074
1961.28386,0.01018
1959.22368,0.00968
1957.16351,0.00935
1955.10334,0.00887
1953.04317,0.00859
1950.98299,0.00905
1948.92282,0.01001
1946.86265,0.01067
1944.80248,0.01089
1942.74231,0.01101
1940.68213,0.01091
1938.62196,0.01058
1936.56179,0.01040
1934.50162,0.01059
1932.44145,0.01078
1930.38127,0.01059
1928.32110,0.01035
1926.26093,0.01031
1924.20076,0.01029
1922.14059,0.01010
1920.08041,0.00995
1918.02024,0.01018
1915.96007,0.01070
1913.89990,0.01121
1911.83972,0.01142
1909.77955,0.01128
1907.71938,0.01107
1905.65921,0.01109
1903.59904,0.01115
1901.53886,0.01103
1899.47869,0.01086
1897.41852,0.01070
1895.35835,0.01051
1893.29818,0.01053
1891.23800,0.01094
1889.17783,0.01132
1887.11766,0.01135
1885.05749,0.01123
1882.99731,0.01109
1880.93714,0.01104
1878.87697,0.01122
1876.81680,0.01156
1874.75663,0.01182
1872.69645,0.01199
1870.63628,0.01219
1868.57611,0.01226
1866.51594,0.01200
1864.45577,0.01170
1862.39559,0.01168
1860.33542,0.01180
1858.27525,0.01191
1856.21508,0.01204
1854.15491,0.01221
1852.09473,0.01230
1850.03456,0.01224
1847.97439,0.01200
1845.91422,0.01157
1843.85404,0.01122
1841.79387,0.01130
1839.73370,0.01168
1837.67353,0.01196
1835.61336,0.01193
1833.55318,0.01202
1831.49301,0.01260
1829.43284,0.01308
1827.37267,0.01307
1825.31250,0.01302
1823.25232,0.01318
1821.19215,0.01331
1819.13198,0.01315
1817.07181,0.01282
1815.01163,0.01260
1812.95146,0.01251
1810.89129,0.01233
1808.83112,0.01213
1806.77095,0.01214
1804.71077,0.01227
1802.65060,0.01232
1800.59043,0.01247
1798.53026,0.01265
1796.47009,0.01272
1794.40991,0.01287
1792.34974,0.01297
1790.28957,0.01271
1788.22940,0.01227
1786.16923,0.01195
1784.10905,0.01213
1782.04888,0.01272
1779.98871,0.01294
1777.92854,0.01264
1775.86836,0.01259
1773.80819,0.01303
1771.74802,0.01310
1769.68785,0.01245
1767.62768,0.01206
1765.56750,0.01237
1763.50733,0.01288
1761.44716,0.01314
1759.38699,0.01327
1757.32682,0.01356
1755.26664,0.01383
1753.20647,0.01403
1751.14630,0.01441
1749.08613,0.01489
1747.02596,0.01503
1744.96578,0.01501
1742.90561,0.01527
1740.84544,0.01567
1738.78527,0.01585
1736.72509,0.01587
1734.66492,0.01581
1732.60475,0.01557
1730.54458,0.01540
1728.48441,0.01517
1726.42423,0.01491
1724.36406,0.01469
1722.30389,0.01467
1720.24372,0.01511
1718.18355,0.01543
1716.12337,0.01465
1714.06320,0.01377
1712.00303,0.01333
1709.94286,0.01338
1707.88268,0.01372
1705.82251,0.01382
1703.76234,0.01374
1701.70217,0.01427
1699.64200,0.01508
1697.58182,0.01539
1695.52165,0.01548
1693.46148,0.01580
1691.40131,0.01642
1689.34114,0.01743
1687.28096,0.01884
1685.22079,0.02068
1683.16062,0.02180
1681.10045,0.02195
1679.04028,0.02229
1676.98010,0.02343
1674.91993,0.02513
1672.85976,0.02675
1670.79959,0.02808
1668.73941,0.02880
1666.67924,0.02898
1664.61907,0.02948
1662.55890,0.03026
1660.49873,0.03044
1658.43855,0.03034
1656.37838,0.03093
1654.31821,0.03216
1652.25804,0.03264
1650.19787,0.03255
1648.13769,0.03253
1646.07752,0.03240
1644.01735,0.03168
1641.95718,0.03117
1639.89701,0.03159
1637.83683,0.03267
1635.77666,0.03318
1633.71649,0.03256
1631.65632,0.03178
1629.59614,0.03148
1627.53597,0.03152
1625.47580,0.03158
1623.41563,0.03144
1621.35546,0.03109
1619.29528,0.03123
1617.23511,0.03184
1615.17494,0.03168
1613.11477,0.03094
1611.05460,0.03059
1608.99442,0.03064
1606.93425,0.03062
1604.87408,0.03056
1602.81391,0.03048
1600.75373,0.03024
1598.69356,0.02991
1596.63339,0.02959
1594.57322,0.02922
1592.51305,0.02870
1590.45287,0.02813
1588.39270,0.02758
1586.33253,0.02705
1584.27236,0.02642
1582.21219,0.02578
1580.15201,0.02553
1578.09184,0.02564
1576.03167,0.02513
1573.97150,0.02378
1571.91133,0.02290
1569.85115,0.02261
1567.79098,0.02189
1565.73081,0.02086
1563.67064,0.02045
1561.61046,0.02126
1559.55029,0.02202
1557.49012,0.02042
1555.42995,0.01847
1553.36978,0.01743
1551.30960,0.01703
1549.24943,0.01677
1547.18926,0.01659
1545.12909,0.01685
1543.06892,0.01761
1541.00874,0.01828
1538.94857,0.01746
1536.88840,0.01591
1534.82823,0.01514
1532.76805,0.01500
1530.70788,0.01461
1528.64771,0.01415
1526.58754,0.01367
1524.52737,0.01326
1522.46719,0.01304
1520.40702,0.01257
1518.34685,0.01204
1516.28668,0.01145
1514.22651,0.01059
1512.16633,0.01002
1510.10616,0.01032
1508.04599,0.01119
1505.98582,0.01143
1503.92565,0.01065
1501.86547,0.00985
1499.80530,0.00995
1497.74513,0.01041
1495.68496,0.01048
1493.62478,0.01059
1491.56461,0.01105
1489.50444,0.01124
1487.44427,0.01091
1485.38410,0.01063
1483.32392,0.01068
1481.26375,0.01095
1479.20358,0.01126
1477.14341,0.01162
1475.08324,0.01209
1473.02306,0.01254
1470.96289,0.01264
1468.90272,0.01253
1466.84255,0.01282
1464.78238,0.01322
1462.72220,0.01327
1460.66203,0.01364
1458.60186,0.01428
1456.54169,0.01416
1454.48151,0.01376
1452.42134,0.01374
1450.36117,0.01438
1448.30100,0.01530
1446.24083,0.01584
1444.18065,0.01602
1442.12048,0.01616
1440.06031,0.01630
1438.00014,0.01636
1435.93997,0.01633
1433.87979,0.01650
1431.81962,0.01691
1429.75945,0.01745
1427.69928,0.01793
1425.63910,0.01849
1423.57893,0.01910
1421.51876,0.01957
1419.45859,0.01994
1417.39842,0.02042
1415.33824,0.02109
1413.27807,0.02183
1411.21790,0.02245
1409.15773,0.02295
1407.09756,0.02338
1405.03738,0.02364
1402.97721,0.02366
1400.91704,0.02358
1398.85687,0.02330
1396.79670,0.02297
1394.73652,0.02289
1392.67635,0.02280
1390.61618,0.02264
1388.55601,0.02257
1386.49583,0.02260
1384.43566,0.02259
1382.37549,0.02255
1380.31532,0.02254
1378.25515,0.02266
1376.19497,0.02292
1374.13480,0.02299
1372.07463,0.02282
1370.01446,0.02276
1367.95429,0.02280
1365.89411,0.02279
1363.83394,0.02262
1361.77377,0.02233
1359.71360,0.02226
1357.65343,0.02244
1355.59325,0.02256
1353.53308,0.02245
1351.47291,0.02218
1349.41274,0.02179
1347.35256,0.02129
1345.29239,0.02074
1343.23222,0.02012
1341.17205,0.01934
1339.11188,0.01853
1337.05170,0.01817
1334.99153,0.01824
1332.93136,0.01823
1330.87119,0.01790
1328.81102,0.01751
1326.75084,0.01721
1324.69067,0.01693
1322.63050,0.01665
1320.57033,0.01646
1318.51015,0.01624
1316.44998,0.01598
1314.38981,0.01573
1312.32964,0.01554
1310.26947,0.01540
1308.20929,0.01524
1306.14912,0.01503
1304.08895,0.01493
1302.02878,0.01493
1299.96861,0.01489
1297.90843,0.01481
1295.84826,0.01477
1293.78809,0.01471
1291.72792,0.01449
1289.66775,0.01420
1287.60757,0.01402
1285.54740,0.01400
1283.48723,0.01402
1281.42706,0.01398
1279.36688,0.01396
1277.30671,0.01405
1275.24654,0.01415
1273.18637,0.01414
1271.12620,0.01406
1269.06602,0.01403
1267.00585,0.01405
1264.94568,0.01413
1262.88551,0.01432
1260.82534,0.01451
1258.76516,0.01465
1256.70499,0.01474
1254.64482,0.01476
1252.58465,0.01471
1250.52447,0.01467
1248.46430,0.01460
1246.40413,0.01445
1244.34396,0.01431
1242.28379,0.01422
1240.22361,0.01405
1238.16344,0.01382
1236.10327,0.01363
1234.04310,0.01345
1231.98293,0.01323
1229.92275,0.01299
1227.86258,0.01269
1225.80241,0.01233
1223.74224,0.01200
1221.68207,0.01166
1219.62189,0.01130
1217.56172,0.01099
1215.50155,0.01073
1213.44138,0.01045
1211.38120,0.01019
1209.32103,0.01002
1207.26086,0.01004
1205.20069,0.01023
1203.14052,0.01045
1201.08034,0.01066
1199.02017,0.01094
1196.96000,0.01161
1194.89983,0.01247
1192.83966,0.01342
1190.77948,0.01447
1188.71931,0.01570
1186.65914,0.01726
1184.59897,0.01918
1182.53880,0.02113
1180.47862,0.02304
1178.41845,0.02495
1176.35828,0.02662
1174.29811,0.02817
1172.23793,0.02997
1170.17776,0.03184
1168.11759,0.03346
1166.05742,0.03488
1163.99725,0.03631
1161.93707,0.03782
1159.87690,0.03938
1157.81673,0.04092
1155.75656,0.04237
1153.69639,0.04365
1151.63621,0.04484
1149.57604,0.04613
1147.51587,0.04740
1145.45570,0.04840
1143.39552,0.04903
1141.33535,0.04943
1139.27518,0.04965
1137.21501,0.04968
1135.15484,0.04971
1133.09466,0.04988
1131.03449,0.05011
1128.97432,0.05035
1126.91415,0.05068
1124.85398,0.05121
1122.79380,0.05207
1120.73363,0.05318
1118.67346,0.05439
1116.61329,0.05570
1114.55312,0.05726
1112.49294,0.05896
1110.43277,0.06060
1108.37260,0.06231
1106.31243,0.06432
1104.25225,0.06637
1102.19208,0.06812
1100.13191,0.06974
1098.07174,0.07146
1096.01157,0.07316
1093.95139,0.07475
1091.89122,0.07639
1089.83105,0.07821
1087.77088,0.07999
1085.71071,0.08152
1083.65053,0.08295
1081.59036,0.08450
1079.53019,0.08603
1077.47002,0.08746
1075.40985,0.08871
1073.34967,0.08953
1071.28950,0.08998
1069.22933,0.09012
1067.16916,0.08995
1065.10898,0.08946
1063.04881,0.08877
1060.98864,0.08805
1058.92847,0.08727
1056.86830,0.08634
1054.80812,0.08514
1052.74795,0.08361
1050.68778,0.08193
1048.62761,0.08028
1046.56744,0.07868
1044.50726,0.07708
1042.44709,0.07523
1040.38692,0.07296
1038.32675,0.07045
1036.26657,0.06779
1034.20640,0.06501
1032.14623,0.06252
1030.08606,0.06052
1028.02589,0.05868
1025.96571,0.05671
1023.90554,0.05471
1021.84537,0.05282
1019.78520,0.05109
1017.72503,0.04947
1015.66485,0.04808
1013.60468,0.04710
1011.54451,0.04644
1009.48434,0.04600
1007.42417,0.04572
1005.36399,0.04562
1003.30382,0.04592
1001.24365,0.04655
999.18348,0.04730
997.12330,0.04819
995.06313,0.04909
993.00296,0.04976
990.94279,0.05038
988.88262,0.05106
986.82244,0.05157
984.76227,0.05192
982.70210,0.05223
980.64193,0.05237
978.58176,0.05224
976.52158,0.05189
974.46141,0.05161
972.40124,0.05132
970.34107,0.05076
968.28089,0.05005
966.22072,0.04932
964.16055,0.04859
962.10038,0.04794
960.04021,0.04737
957.98003,0.04697
955.91986,0.04673
953.85969,0.04640
951.79952,0.04599
949.73935,0.04571
947.67917,0.04542
945.61900,0.04502
943.55883,0.04453
941.49866,0.04401
939.43849,0.04336
937.37831,0.04247
935.31814,0.04130
933.25797,0.03995
931.19780,0.03866
929.13762,0.03743
927.07745,0.03617
925.01728,0.03493
922.95711,0.03364
920.89694,0.03219
918.83676,0.03072
916.77659,0.02932
914.71642,0.02791
912.65625,0.02659
910.59608,0.02539
908.53590,0.02419
906.47573,0.02312
904.41556,0.02236
902.35539,0.02192
900.29522,0.02159
898.23504,0.02121
896.17487,0.02101
894.11470,0.02102
892.05453,0.02117
889.99435,0.02158
887.93418,0.02211
885.87401,0.02278
883.81384,0.02377
881.75367,0.02505
879.69349,0.02641
877.63332,0.02787
875.57315,0.02972
873.51298,0.03198
871.45281,0.03441
869.39263,0.03682
867.33246,0.03917
865.27229,0.04149
863.21212,0.04381
861.15194,0.04591
859.09177,0.04753
857.03160,0.04865
854.97143,0.04909
852.91126,0.04893
850.85108,0.04853
848.79091,0.04781
846.73074,0.04669
844.67057,0.04533
842.61040,0.04388
840.55022,0.04255
838.49005,0.04113
836.42988,0.03949
834.36971,0.03796
832.30954,0.03664
830.24936,0.03544
828.18919,0.03418
826.12902,0.03279
824.06885,0.03140
822.00867,0.03031
819.94850,0.02960
817.88833,0.02895
815.82816,0.02802
813.76799,0.02701
811.70781,0.02605
809.64764,0.02520
807.58747,0.02452
805.52730,0.02387
803.46713,0.02333
801.40695,0.02289
799.34678,0.02212
797.28661,0.02106
795.22644,0.02035
793.16627,0.02009
791.10609,0.01994
789.04592,0.01957
786.98575,0.01904
784.92558,0.01870
782.86540,0.01846
780.80523,0.01819
778.74506,0.01802
776.68489,0.01793
774.62472,0.01761
772.56454,0.01699
770.50437,0.01649
768.44420,0.01627
766.38403,0.01603
764.32386,0.01570
762.26368,0.01538
760.20351,0.01509
758.14334,0.01482
756.08317,0.01436
754.02299,0.01381
751.96282,0.01359
749.90265,0.01371
747.84248,0.01362
745.78231,0.01309
743.72213,0.01259
741.66196,0.01226
739.60179,0.01193
737.54162,0.01184
735.48145,0.01199
733.42127,0.01196
731.36110,0.01176
729.30093,0.01166
727.24076,0.01142
725.18059,0.01083
723.12041,0.01077
721.06024,0.01037
719.00007,0.01097
716.93990,0.01119
714.87972,0.01084
712.81955,0.01083
710.75938,0.01099
708.69921,0.01083
706.63904,0.01051
704.57886,0.01047
702.51869,0.01074
700.45852,0.01100
698.39835,0.01087
696.33818,0.01033
694.27800,0.01001
692.21783,0.01021
690.15766,0.01050
688.09749,0.01062
686.03731,0.01076
683.97714,0.01095
681.91697,0.01103
679.85680,0.01091
677.79663,0.01068
675.73645,0.01059
673.67628,0.01132
671.61611,0.01231
669.55594,0.00817
667.49577,0.00288
665.43559,0.01096
663.37542,0.01167
661.31525,0.01078
659.25508,0.01049
657.19491,0.00994
655.13473,0.00908
653.07456,0.00842
651.01439,0.00819
648.95422,0.00825
646.89404,0.00863
644.83387,0.00861
642.77370,0.00858
640.71353,0.00843
638.65336,0.00745
636.59318,0.00607
634.53301,0.00550
632.47284,0.00560
630.41267,0.00523
628.35250,0.00445
626.29232,0.00438
624.23215,0.00518
622.17198,0.00595
620.11181,0.00541
618.05164,0.00378
615.99146,0.00282
613.93129,0.00269
611.87112,0.00224
609.81095,0.00128
607.75077,0.00031
605.69060,0.00000
603.63043,-0.00033
601.57026,-0.00044
599.51009,0.00000
