3996.73391,-0.00098
3994.67373,-0.00109
3992.61356,-0.00090
3990.55339,-0.00045
3988.49322,-0.00022
3986.43305,-0.00029
3984.37287,-0.00036
3982.31270,-0.00037
3980.25253,-0.00043
3978.19236,-0.00056
3976.13219,-0.00061
3974.07201,-0.00041
3972.01184,-0.00015
3969.95167,-0.00006
3967.89150,0.00007
3965.83133,0.00033
3963.77115,0.00044
3961.71098,0.00031
3959.65081,0.00016
3957.59064,0.00013
3955.53046,0.00025
3953.47029,0.00041
3951.41012,0.00033
3949.34995,0.00002
3947.28978,0.00000
3945.22960,0.00030
3943.16943,0.00033
3941.10926,0.00016
3939.04909,0.00021
3936.98892,0.00034
3934.92874,0.00032
3932.86857,0.00035
3930.80840,0.00068
3928.74823,0.00099
3926.68805,0.00103
3924.62788,0.00090
3922.56771,0.00064
3920.50754,0.00039
3918.44737,0.00028
3916.38719,0.00061
3914.32702,0.00123
3912.26685,0.00161
3910.20668,0.00167
3908.14651,0.00159
3906.08633,0.00126
3904.02616,0.00050
3901.96599,0.00000
3899.90582,0.00048
3897.84565,0.00117
3895.78547,0.00131
3893.72530,0.00114
3891.66513,0.00103
3889.60496,0.00098
3887.54478,0.00085
3885.48461,0.00078
3883.42444,0.00081
3881.36427,0.00081
3879.30410,0.00091
3877.24392,0.00104
3875.18375,0.00099
3873.12358,0.00071
3871.06341,0.00039
3869.00324,0.00039
3866.94306,0.00045
3864.88289,0.00046
3862.82272,0.00069
3860.76255,0.00099
3858.70237,0.00080
3856.64220,0.00007
3854.58203,0.00000
3852.52186,0.00115
3850.46169,0.00216
3848.40151,0.00190
3846.34134,0.00126
3844.28117,0.00108
3842.22100,0.00123
3840.16083,0.00125
3838.10065,0.00121
3836.04048,0.00153
3833.98031,0.00199
3831.92014,0.00224
3829.85997,0.00232
3827.79979,0.00227
3825.73962,0.00208
3823.67945,0.00203
3821.61928,0.00235
3819.55910,0.00240
3817.49893,0.00216
3815.43876,0.00227
3813.37859,0.00255
3811.31842,0.00255
3809.25824,0.00249
3807.19807,0.00245
3805.13790,0.00227
3803.07773,0.00234
3801.01756,0.00285
3798.95738,0.00308
3796.89721,0.00295
3794.83704,0.00311
3792.77687,0.00346
3790.71670,0.00351
3788.65652,0.00344
3786.59635,0.00354
3784.53618,0.00374
3782.47601,0.00398
3780.41583,0.00428
3778.35566,0.00444
3776.29549,0.00424
3774.23532,0.00385
3772.17515,0.00356
3770.11497,0.00336
3768.05480,0.00321
3765.99463,0.00314
3763.93446,0.00300
3761.87429,0.00273
3759.81411,0.00238
3757.75394,0.00190
3755.69377,0.00138
3753.63360,0.00096
3751.57342,0.00054
3749.51325,0.00011
3747.45308,0.00000
3745.39291,0.00002
3743.33274,0.00065
3741.27256,0.00122
3739.21239,0.00108
3737.15222,0.00089
3735.09205,0.00091
3733.03188,0.00118
3730.97170,0.00146
3728.91153,0.00145
3726.85136,0.00134
3724.79119,0.00156
3722.73102,0.00218
3720.67084,0.00279
3718.61067,0.00284
3716.55050,0.00253
3714.49033,0.00250
3712.43015,0.00303
3710.36998,0.00351
3708.30981,0.00372
3706.24964,0.00388
3704.18947,0.00392
3702.12929,0.00384
3700.06912,0.00378
3698.00895,0.00370
3695.94878,0.00356
3693.88861,0.00363
3691.82843,0.00414
3689.76826,0.00474
3687.70809,0.00486
3685.64792,0.00469
3683.58775,0.00455
3681.52757,0.00442
3679.46740,0.00421
3677.40723,0.00421
3675.34706,0.00458
3673.28688,0.00476
3671.22671,0.00493
3669.16654,0.00538
3667.10637,0.00548
3665.04620,0.00520
3662.98602,0.00500
3660.92585,0.00494
3658.86568,0.00499
3656.80551,0.00511
3654.74534,0.00522
3652.68516,0.00547
3650.62499,0.00601
3648.56482,0.00641
3646.50465,0.00659
3644.44447,0.00650
3642.38430,0.00644
3640.32413,0.00653
3638.26396,0.00651
3636.20379,0.00648
3634.14361,0.00661
3632.08344,0.00676
3630.02327,0.00705
3627.96310,0.00756
3625.90293,0.00779
3623.84275,0.00758
3621.78258,0.00741
3619.72241,0.00751
3617.66224,0.00760
3615.60207,0.00743
3613.54189,0.00717
3611.48172,0.00706
3609.42155,0.00734
3607.36138,0.00798
3605.30120,0.00865
3603.24103,0.00920
3601.18086,0.00969
3599.12069,0.00991
3597.06052,0.00975
3595.00034,0.00965
3592.94017,0.00994
3590.88000,0.01026
3588.81983,0.01030
3586.75966,0.01049
3584.69948,0.01101
3582.63931,0.01150
3580.57914,0.01199
3578.51897,0.01258
3576.45879,0.01300
3574.39862,0.01308
3572.33845,0.01299
3570.27828,0.01284
3568.21811,0.01274
3566.15793,0.01303
3564.09776,0.01362
3562.03759,0.01400
3559.97742,0.01419
3557.91725,0.01430
3555.85707,0.01431
3553.79690,0.01432
3551.73673,0.01437
3549.67656,0.01428
3547.61639,0.01399
3545.55621,0.01393
3543.49604,0.01450
3541.43587,0.01531
3539.37570,0.01594
3537.31552,0.01632
3535.25535,0.01654
3533.19518,0.01672
3531.13501,0.01688
3529.07484,0.01692
3527.01466,0.01671
3524.95449,0.01661
3522.89432,0.01708
3520.83415,0.01788
3518.77398,0.01847
3516.71380,0.01872
3514.65363,0.01883
3512.59346,0.01889
3510.53329,0.01882
3508.47312,0.01868
3506.41294,0.01862
3504.35277,0.01866
3502.29260,0.01884
3500.23243,0.01929
3498.17225,0.01980
3496.11208,0.02010
3494.05191,0.02014
3491.99174,0.02012
3489.93157,0.02023
3487.87139,0.02036
3485.81122,0.02039
3483.75105,0.02054
3481.69088,0.02091
3479.63071,0.02119
3477.57053,0.02142
3475.51036,0.02176
3473.45019,0.02197
3471.39002,0.02201
3469.32984,0.02208
3467.26967,0.02220
3465.20950,0.02239
3463.14933,0.02263
3461.08916,0.02269
3459.02898,0.02260
3456.96881,0.02261
3454.90864,0.02287
3452.84847,0.02330
3450.78830,0.02359
3448.72812,0.02360
3446.66795,0.02356
3444.60778,0.02359
3442.54761,0.02349
3440.48744,0.02324
3438.42726,0.02325
3436.36709,0.02357
3434.30692,0.02389
3432.24675,0.02411
3430.18657,0.02426
3428.12640,0.02430
3426.06623,0.02419
3424.00606,0.02409
3421.94589,0.02423
3419.88571,0.02445
3417.82554,0.02461
3415.76537,0.02481
3413.70520,0.02506
3411.64503,0.02517
3409.58485,0.02505
3407.52468,0.02504
3405.46451,0.02523
3403.40434,0.02519
3401.34416,0.02485
3399.28399,0.02415
3397.22382,0.02455
3395.16365,0.02499
3393.10348,0.02505
3391.04330,0.02502
3388.98313,0.02523
3386.92296,0.02557
3384.86279,0.02577
3382.80262,0.02587
3380.74244,0.02604
3378.68227,0.02627
3376.62210,0.02638
3374.56193,0.02644
3372.50176,0.02655
3370.44158,0.02648
3368.38141,0.02616
3366.32124,0.02593
3364.26107,0.02601
3362.20089,0.02616
3360.14072,0.02629
3358.08055,0.02645
3356.02038,0.02652
3353.96021,0.02644
3351.90003,0.02633
3349.83986,0.02632
3347.77969,0.02641
3345.71952,0.02646
3343.65935,0.02643
3341.59917,0.02638
3339.53900,0.02628
3337.47883,0.02626
3335.41866,0.02640
3333.35849,0.02666
3331.29831,0.02697
3329.23814,0.02719
3327.17797,0.02719
3325.11780,0.02706
3323.05762,0.02695
3320.99745,0.02696
3318.93728,0.02695
3316.87711,0.02679
3314.81694,0.02657
3312.75676,0.02635
3310.69659,0.02626
3308.63642,0.02647
3306.57625,0.02681
3304.51608,0.02703
3302.45590,0.02720
3300.39573,0.02727
3298.33556,0.02712
3296.27539,0.02685
3294.21521,0.02662
3292.15504,0.02654
3290.09487,0.02669
3288.03470,0.02688
3285.97453,0.02689
3283.91435,0.02687
3281.85418,0.02699
3279.79401,0.02703
3277.73384,0.02681
3275.67367,0.02658
3273.61349,0.02664
3271.55332,0.02690
3269.49315,0.02707
3267.43298,0.02711
3265.37281,0.02712
3263.31263,0.02708
3261.25246,0.02707
3259.19229,0.02725
3257.13212,0.02735
3255.07194,0.02716
3253.01177,0.02690
3250.95160,0.02676
3248.89143,0.02671
3246.83126,0.02666
3244.77108,0.02670
3242.71091,0.02681
3240.65074,0.02688
3238.59057,0.02693
3236.53040,0.02699
3234.47022,0.02702
3232.41005,0.02699
3230.34988,0.02686
3228.28971,0.02670
3226.22954,0.02666
3224.16936,0.02669
3222.10919,0.02658
3220.04902,0.02634
3217.98885,0.02636
3215.92867,0.02662
3213.86850,0.02673
3211.80833,0.02656
3209.74816,0.02638
3207.68799,0.02636
3205.62781,0.02647
3203.56764,0.02654
3201.50747,0.02647
3199.44730,0.02634
3197.38713,0.02627
3195.32695,0.02624
3193.26678,0.02618
3191.20661,0.02613
3189.14644,0.02617
3187.08626,0.02618
3185.02609,0.02612
3182.96592,0.02613
3180.90575,0.02607
3178.84558,0.02592
3176.78540,0.02595
3174.72523,0.02613
3172.66506,0.02625
3170.60489,0.02623
3168.54472,0.02612
3166.48454,0.02611
3164.42437,0.02618
3162.36420,0.02617
3160.30403,0.02610
3158.24386,0.02604
3156.18368,0.02589
3154.12351,0.02566
3152.06334,0.02553
3150.00317,0.02557
3147.94299,0.02559
3145.88282,0.02554
3143.82265,0.02550
3141.76248,0.02538
3139.70231,0.02526
3137.64213,0.02526
3135.58196,0.02523
3133.52179,0.02509
3131.46162,0.02505
3129.40145,0.02507
3127.34127,0.02495
3125.28110,0.02483
3123.22093,0.02468
3121.16076,0.02450
3119.10058,0.02439
3117.04041,0.02433
3114.98024,0.02430
3112.92007,0.02444
3110.85990,0.02459
3108.79972,0.02456
3106.73955,0.02442
3104.67938,0.02421
3102.61921,0.02394
3100.55904,0.02378
3098.49886,0.02379
3096.43869,0.02383
3094.37852,0.02380
3092.31835,0.02372
3090.25818,0.02359
3088.19800,0.02353
3086.13783,0.02366
3084.07766,0.02380
3082.01749,0.02381
3079.95731,0.02379
3077.89714,0.02374
3075.83697,0.02358
3073.77680,0.02352
3071.71663,0.02369
3069.65645,0.02373
3067.59628,0.02341
3065.53611,0.02315
3063.47594,0.02325
3061.41577,0.02338
3059.35559,0.02327
3057.29542,0.02302
3055.23525,0.02282
3053.17508,0.02273
3051.11491,0.02268
3049.05473,0.02257
3046.99456,0.02247
3044.93439,0.02237
3042.87422,0.02234
3040.81404,0.02238
3038.75387,0.02236
3036.69370,0.02226
3034.63353,0.02211
3032.57336,0.02198
3030.51318,0.02193
3028.45301,0.02193
3026.39284,0.02189
3024.33267,0.02185
3022.27250,0.02180
3020.21232,0.02169
3018.15215,0.02156
3016.09198,0.02137
3014.03181,0.02108
3011.97163,0.02088
3009.91146,0.02091
3007.85129,0.02093
3005.79112,0.02082
3003.73095,0.02074
3001.67077,0.02074
2999.61060,0.02078
2997.55043,0.02070
2995.49026,0.02059
2993.43009,0.02046
2991.36991,0.02052
2989.30974,0.02062
2987.24957,0.02064
2985.18940,0.02066
2983.12923,0.02067
2981.06905,0.02067
2979.00888,0.02066
2976.94871,0.02068
2974.88854,0.02065
2972.82836,0.02052
2970.76819,0.02036
2968.70802,0.02026
2966.64785,0.02025
2964.58768,0.02028
2962.52750,0.02039
2960.46733,0.02051
2958.40716,0.02056
2956.34699,0.02048
2954.28682,0.02033
2952.22664,0.02027
2950.16647,0.02024
2948.10630,0.02013
2946.04613,0.02006
2943.98596,0.02003
2941.92578,0.01987
2939.86561,0.01962
2937.80544,0.01952
2935.74527,0.01968
2933.68509,0.01989
2931.62492,0.01995
2929.56475,0.01982
2927.50458,0.01964
2925.44441,0.01963
2923.38423,0.01975
2921.32406,0.01988
2919.26389,0.01997
2917.20372,0.02003
2915.14355,0.02007
2913.08337,0.01994
2911.02320,0.01963
2908.96303,0.01934
2906.90286,0.01918
2904.84268,0.01914
2902.78251,0.01905
2900.72234,0.01893
2898.66217,0.01893
2896.60200,0.01905
2894.54182,0.01907
2892.48165,0.01891
2890.42148,0.01877
2888.36131,0.01877
2886.30114,0.01876
2884.24096,0.01871
2882.18079,0.01871
2880.12062,0.01869
2878.06045,0.01861
2876.00028,0.01850
2873.94010,0.01832
2871.87993,0.01816
2869.81976,0.01803
2867.75959,0.01791
2865.69941,0.01781
2863.63924,0.01773
2861.57907,0.01775
2859.51890,0.01785
2857.45873,0.01785
2855.39855,0.01781
2853.33838,0.01779
2851.27821,0.01770
2849.21804,0.01763
2847.15787,0.01762
2845.09769,0.01756
2843.03752,0.01751
2840.97735,0.01743
2838.91718,0.01718
2836.85700,0.01696
2834.79683,0.01694
2832.73666,0.01702
2830.67649,0.01705
2828.61632,0.01702
2826.55614,0.01700
2824.49597,0.01696
2822.43580,0.01683
2820.37563,0.01664
2818.31546,0.01653
2816.25528,0.01657
2814.19511,0.01664
2812.13494,0.01669
2810.07477,0.01667
2808.01460,0.01656
2805.95442,0.01645
2803.89425,0.01642
2801.83408,0.01644
2799.77391,0.01640
2797.71373,0.01626
2795.65356,0.01615
2793.59339,0.01613
2791.53322,0.01614
2789.47305,0.01614
2787.41287,0.01617
2785.35270,0.01622
2783.29253,0.01626
2781.23236,0.01624
2779.17219,0.01615
2777.11201,0.01605
2775.05184,0.01599
2772.99167,0.01588
2770.93150,0.01577
2768.87133,0.01572
2766.81115,0.01568
2764.75098,0.01561
2762.69081,0.01549
2760.63064,0.01539
2758.57046,0.01539
2756.51029,0.01545
2754.45012,0.01551
2752.38995,0.01557
2750.32978,0.01554
2748.26960,0.01539
2746.20943,0.01529
2744.14926,0.01530
2742.08909,0.01531
2740.02892,0.01524
2737.96874,0.01509
2735.90857,0.01501
2733.84840,0.01501
2731.78823,0.01502
2729.72805,0.01510
2727.66788,0.01511
2725.60771,0.01494
2723.54754,0.01480
2721.48737,0.01481
2719.42719,0.01482
2717.36702,0.01480
2715.30685,0.01483
2713.24668,0.01482
2711.18651,0.01473
2709.12633,0.01458
2707.06616,0.01439
2705.00599,0.01434
2702.94582,0.01442
2700.88565,0.01446
2698.82547,0.01444
2696.76530,0.01439
2694.70513,0.01440
2692.64496,0.01447
2690.58478,0.01447
2688.52461,0.01439
2686.46444,0.01423
2684.40427,0.01407
2682.34410,0.01405
2680.28392,0.01413
2678.22375,0.01420
2676.16358,0.01419
2674.10341,0.01415
2672.04324,0.01410
2669.98306,0.01401
2667.92289,0.01396
2665.86272,0.01401
2663.80255,0.01405
2661.74238,0.01400
2659.68220,0.01390
2657.62203,0.01389
2655.56186,0.01389
2653.50169,0.01379
2651.44151,0.01371
2649.38134,0.01367
2647.32117,0.01363
2645.26100,0.01359
2643.20083,0.01353
2641.14065,0.01346
2639.08048,0.01344
2637.02031,0.01348
2634.96014,0.01359
2632.89997,0.01363
2630.83979,0.01358
2628.77962,0.01344
2626.71945,0.01329
2624.65928,0.01325
2622.59910,0.01321
2620.53893,0.01313
2618.47876,0.01318
2616.41859,0.01333
2614.35842,0.01337
2612.29824,0.01329
2610.23807,0.01318
2608.17790,0.01313
2606.11773,0.01313
2604.05756,0.01310
2601.99738,0.01307
2599.93721,0.01306
2597.87704,0.01297
2595.81687,0.01283
2593.75670,0.01280
2591.69652,0.01283
2589.63635,0.01285
2587.57618,0.01294
2585.51601,0.01302
2583.45583,0.01291
2581.39566,0.01284
2579.33549,0.01290
2577.27532,0.01284
2575.21515,0.01266
2573.15497,0.01263
2571.09480,0.01261
2569.03463,0.01251
2566.97446,0.01249
2564.91429,0.01253
2562.85411,0.01258
2560.79394,0.01262
2558.73377,0.01259
2556.67360,0.01252
2554.61342,0.01246
2552.55325,0.01252
2550.49308,0.01262
2548.43291,0.01261
2546.37274,0.01248
2544.31256,0.01236
2542.25239,0.01245
2540.19222,0.01254
2538.13205,0.01251
2536.07188,0.01259
2534.01170,0.01273
2531.95153,0.01282
2529.89136,0.01291
2527.83119,0.01297
2525.77102,0.01295
2523.71084,0.01280
2521.65067,0.01250
2519.59050,0.01238
2517.53033,0.01257
2515.47015,0.01269
2513.40998,0.01268
2511.34981,0.01277
2509.28964,0.01292
2507.22947,0.01306
2505.16929,0.01314
2503.10912,0.01307
2501.04895,0.01289
2498.98878,0.01258
2496.92861,0.01240
2494.86843,0.01260
2492.80826,0.01291
2490.74809,0.01304
2488.68792,0.01290
2486.62775,0.01265
2484.56757,0.01261
2482.50740,0.01270
2480.44723,0.01283
2478.38706,0.01307
2476.32688,0.01322
2474.26671,0.01313
2472.20654,0.01300
2470.14637,0.01298
2468.08620,0.01296
2466.02602,0.01288
2463.96585,0.01288
2461.90568,0.01308
2459.84551,0.01330
2457.78534,0.01331
2455.72516,0.01329
2453.66499,0.01330
2451.60482,0.01316
2449.54465,0.01304
2447.48447,0.01315
2445.42430,0.01326
2443.36413,0.01325
2441.30396,0.01333
2439.24379,0.01354
2437.18361,0.01357
2435.12344,0.01340
2433.06327,0.01327
2431.00310,0.01315
2428.94293,0.01310
2426.88275,0.01312
2424.82258,0.01310
2422.76241,0.01316
2420.70224,0.01323
2418.64207,0.01308
2416.58189,0.01283
2414.52172,0.01273
2412.46155,0.01265
2410.40138,0.01247
2408.34120,0.01234
2406.28103,0.01235
2404.22086,0.01255
2402.16069,0.01277
2400.10052,0.01283
2398.04034,0.01310
2395.98017,0.01331
2393.92000,0.01334
2391.85983,0.01314
2389.79966,0.01282
2387.73948,0.01248
2385.67931,0.01209
2383.61914,0.01165
2381.55897,0.01137
2379.49880,0.01139
2377.43862,0.01151
2375.37845,0.01153
2373.31828,0.01173
2371.25811,0.01224
2369.19793,0.01292
2367.13776,0.01356
2365.07759,0.01341
2363.01742,0.01213
2360.95725,0.01155
2358.89707,0.01198
2356.83690,0.01285
2354.77673,0.01287
2352.71656,0.01218
2350.65639,0.01200
2348.59621,0.01206
2346.53604,0.01139
2344.47587,0.01187
2342.41570,0.01282
2340.35552,0.01348
2338.29535,0.01361
2336.23518,0.01331
2334.17501,0.01310
2332.11484,0.01294
2330.05466,0.01250
2327.99449,0.01178
2325.93432,0.01159
2323.87415,0.01145
2321.81398,0.01132
2319.75380,0.01099
2317.69363,0.01091
2315.63346,0.01079
2313.57329,0.01062
2311.51312,0.01056
2309.45294,0.01058
2307.39277,0.01076
2305.33260,0.01120
2303.27243,0.01165
2301.21225,0.01170
2299.15208,0.01146
2297.09191,0.01136
2295.03174,0.01168
2292.97157,0.01218
2290.91139,0.01251
2288.85122,0.01267
2286.79105,0.01268
2284.73088,0.01253
2282.67071,0.01236
2280.61053,0.01234
2278.55036,0.01242
2276.49019,0.01257
2274.43002,0.01287
2272.36984,0.01300
2270.30967,0.01272
2268.24950,0.01244
2266.18933,0.01240
2264.12916,0.01248
2262.06898,0.01261
2260.00881,0.01264
2257.94864,0.01250
2255.88847,0.01244
2253.82830,0.01241
2251.76812,0.01198
2249.70795,0.01164
2247.64778,0.01210
2245.58761,0.01269
2243.52744,0.01232
2241.46726,0.01155
2239.40709,0.01151
2237.34692,0.01197
2235.28675,0.01219
2233.22657,0.01241
2231.16640,0.01275
2229.10623,0.01282
2227.04606,0.01264
2224.98589,0.01247
2222.92571,0.01205
2220.86554,0.01137
2218.80537,0.01113
2216.74520,0.01151
2214.68503,0.01207
2212.62485,0.01237
2210.56468,0.01222
2208.50451,0.01203
2206.44434,0.01220
2204.38417,0.01270
2202.32399,0.01304
2200.26382,0.01248
2198.20365,0.01194
2196.14348,0.01236
2194.08330,0.01230
2192.02313,0.01146
2189.96296,0.01135
2187.90279,0.01166
2185.84262,0.01121
2183.78244,0.01056
2181.72227,0.01067
2179.66210,0.01133
2177.60193,0.01202
2175.54176,0.01211
2173.48158,0.01154
2171.42141,0.01108
2169.36124,0.01111
2167.30107,0.01137
2165.24089,0.01154
2163.18072,0.01109
2161.12055,0.00990
2159.06038,0.00913
2157.00021,0.00965
2154.94003,0.01070
2152.87986,0.01139
2150.81969,0.01150
2148.75952,0.01104
2146.69935,0.01060
2144.63917,0.01080
2142.57900,0.01115
2140.51883,0.01131
2138.45866,0.01144
2136.39849,0.01141
2134.33831,0.01121
2132.27814,0.01104
2130.21797,0.01096
2128.15780,0.01101
2126.09762,0.01111
2124.03745,0.01114
2121.97728,0.01134
2119.91711,0.01170
2117.85694,0.01171
2115.79676,0.01139
2113.73659,0.01140
2111.67642,0.01162
2109.61625,0.01162
2107.55608,0.01153
2105.49590,0.01135
2103.43573,0.01110
2101.37556,0.01131
2099.31539,0.01208
2097.25521,0.01222
2095.19504,0.01192
2093.13487,0.01125
2091.07470,0.01059
2089.01453,0.01047
2086.95435,0.01068
2084.89418,0.01093
2082.83401,0.01132
2080.77384,0.01189
2078.71367,0.01238
2076.65349,0.01237
2074.59332,0.01195
2072.53315,0.01166
2070.47298,0.01170
2068.41281,0.01198
2066.35263,0.01200
2064.29246,0.01139
2062.23229,0.01076
2060.17212,0.01044
2058.11194,0.01031
2056.05177,0.01060
2053.99160,0.01152
2051.93143,0.01258
2049.87126,0.01305
2047.81108,0.01295
2045.75091,0.01284
2043.69074,0.01269
2041.63057,0.01262
2039.57040,0.01331
2037.51022,0.01413
2035.45005,0.01395
2033.38988,0.01263
2031.32971,0.01088
2029.26954,0.01042
2027.20936,0.01193
2025.14919,0.01339
2023.08902,0.01330
2021.02885,0.01247
2018.96867,0.01158
2016.90850,0.01097
2014.84833,0.01111
2012.78816,0.01154
2010.72799,0.01193
2008.66781,0.01262
2006.60764,0.01300
2004.54747,0.01211
2002.48730,0.01081
2000.42713,0.01040
1998.36695,0.01054
1996.30678,0.01053
1994.24661,0.01062
1992.18644,0.01106
1990.12626,0.01142
1988.06609,0.01138
1986.00592,0.01121
1983.94575,0.01133
1981.88558,0.01185
1979.82540,0.01288
1977.76523,0.01394
1975.70506,0.01355
1973.64489,0.01203
1971.58472,0.01132
1969.52454,0.01158
1967.46437,0.01198
1965.40420,0.01208
1963.34403,0.01166
1961.28386,0.01104
1959.22368,0.01062
1957.16351,0.01027
1955.10334,0.00988
1953.04317,0.00978
1950.98299,0.01023
1948.92282,0.01086
1946.86265,0.01128
1944.80248,0.01154
1942.74231,0.01164
1940.68213,0.01138
1938.62196,0.01105
1936.56179,0.01108
1934.50162,0.01128
1932.44145,0.01108
1930.38127,0.01065
1928.32110,0.01055
1926.26093,0.01046
1924.20076,0.01010
1922.14059,0.01003
1920.08041,0.01026
1918.02024,0.01041
1915.96007,0.01063
1913.89990,0.01098
1911.83972,0.01108
1909.77955,0.01082
1907.71938,0.01074
1905.65921,0.01109
1903.59904,0.01139
1901.53886,0.01123
1899.47869,0.01078
1897.41852,0.01042
1895.35835,0.01032
1893.29818,0.01039
1891.23800,0.01058
1889.17783,0.01070
1887.11766,0.01055
1885.05749,0.01029
1882.99731,0.01020
1880.93714,0.01034
1878.87697,0.01053
1876.81680,0.01070
1874.75663,0.01087
1872.69645,0.01107
1870.63628,0.01136
1868.57611,0.01152
1866.51594,0.01126
1864.45577,0.01079
1862.39559,0.01047
1860.33542,0.01038
1858.27525,0.01045
1856.21508,0.01059
1854.15491,0.01058
1852.09473,0.01043
1850.03456,0.01039
1847.97439,0.01032
1845.91422,0.00997
1843.85404,0.00962
1841.79387,0.00970
1839.73370,0.01001
1837.67353,0.01014
1835.61336,0.01002
1833.55318,0.01009
1831.49301,0.01059
1829.43284,0.01096
1827.37267,0.01088
1825.31250,0.01072
1823.25232,0.01074
1821.19215,0.01077
1819.13198,0.01059
1817.07181,0.01034
1815.01163,0.01024
1812.95146,0.01012
1810.89129,0.00981
1808.83112,0.00956
1806.77095,0.00960
1804.71077,0.00967
1802.65060,0.00967
1800.59043,0.00978
1798.53026,0.00992
1796.47009,0.00993
1794.40991,0.00995
1792.34974,0.00996
1790.28957,0.00980
1788.22940,0.00949
1786.16923,0.00915
1784.10905,0.00914
1782.04888,0.00952
1779.98871,0.00980
1777.92854,0.00984
1775.86836,0.01001
1773.80819,0.01029
1771.74802,0.01013
1769.68785,0.00953
1767.62768,0.00920
1765.56750,0.00936
1763.50733,0.00968
1761.44716,0.00978
1759.38699,0.00964
1757.32682,0.00958
1755.26664,0.00971
1753.20647,0.00993
1751.14630,0.01017
1749.08613,0.01035
1747.02596,0.01036
1744.96578,0.01030
1742.90561,0.01040
1740.84544,0.01062
1738.78527,0.01076
1736.72509,0.01089
1734.66492,0.01100
1732.60475,0.01094
1730.54458,0.01088
1728.48441,0.01082
1726.42423,0.01070
1724.36406,0.01055
1722.30389,0.01063
1720.24372,0.01116
1718.18355,0.01161
1716.12337,0.01113
1714.06320,0.01052
1712.00303,0.01028
1709.94286,0.01049
1707.88268,0.01095
1705.82251,0.01113
1703.76234,0.01094
1701.70217,0.01106
1699.64200,0.01147
1697.58182,0.01171
1695.52165,0.01177
1693.46148,0.01186
1691.40131,0.01204
1689.34114,0.01248
1687.28096,0.01329
1685.22079,0.01438
1683.16062,0.01479
1681.10045,0.01455
1679.04028,0.01463
1676.98010,0.01539
1674.91993,0.01647
1672.85976,0.01735
1670.79959,0.01790
1668.73941,0.01802
1666.67924,0.01796
1664.61907,0.01818
1662.55890,0.01844
1660.49873,0.01831
1658.43855,0.01819
1656.37838,0.01868
1654.31821,0.01963
1652.25804,0.01989
1650.19787,0.01961
1648.13769,0.01939
1646.07752,0.01917
1644.01735,0.01871
1641.95718,0.01861
1639.89701,0.01917
1637.83683,0.01996
1635.77666,0.02003
1633.71649,0.01929
1631.65632,0.01873
1629.59614,0.01865
1627.53597,0.01878
1625.47580,0.01884
1623.41563,0.01865
1621.35546,0.01825
1619.29528,0.01832
1617.23511,0.01879
1615.17494,0.01864
1613.11477,0.01808
1611.05460,0.01784
1608.99442,0.01784
1606.93425,0.01767
1604.87408,0.01750
1602.81391,0.01748
1600.75373,0.01746
1598.69356,0.01738
1596.63339,0.01729
1594.57322,0.01715
1592.51305,0.01694
1590.45287,0.01669
1588.39270,0.01644
1586.33253,0.01621
1584.27236,0.01597
1582.21219,0.01568
1580.15201,0.01561
1578.09184,0.01578
1576.03167,0.01555
1573.97150,0.01480
1571.91133,0.01437
1569.85115,0.01430
1567.79098,0.01390
1565.73081,0.01323
1563.67064,0.01291
1561.61046,0.01348
1559.55029,0.01406
1557.49012,0.01295
1555.42995,0.01162
1553.36978,0.01099
1551.30960,0.01083
1549.24943,0.01076
1547.18926,0.01074
1545.12909,0.01104
1543.06892,0.01172
1541.00874,0.01231
1538.94857,0.01180
1536.88840,0.01074
1534.82823,0.01019
1532.76805,0.01006
1530.70788,0.00984
1528.64771,0.00966
1526.58754,0.00948
1524.52737,0.00928
1522.46719,0.00920
1520.40702,0.00893
1518.34685,0.00869
1516.28668,0.00846
1514.22651,0.00798
1512.16633,0.00763
1510.10616,0.00793
1508.04599,0.00872
1505.98582,0.00908
1503.92565,0.00868
1501.86547,0.00823
1499.80530,0.00849
1497.74513,0.00913
1495.68496,0.00946
1493.62478,0.00960
1491.56461,0.00985
1489.50444,0.00990
1487.44427,0.00973
1485.38410,0.00962
1483.32392,0.00965
1481.26375,0.00975
1479.20358,0.00985
1477.14341,0.00998
1475.08324,0.01022
1473.02306,0.01048
1470.96289,0.01046
1468.90272,0.01030
1466.84255,0.01044
1464.78238,0.01060
1462.72220,0.01047
1460.66203,0.01067
1458.60186,0.01106
1456.54169,0.01071
1454.48151,0.01015
1452.42134,0.01007
1450.36117,0.01056
1448.30100,0.01122
1446.24083,0.01155
1444.18065,0.01158
1442.12048,0.01154
1440.06031,0.01156
1438.00014,0.01157
1435.93997,0.01145
1433.87979,0.01140
1431.81962,0.01156
1429.75945,0.01180
1427.69928,0.01188
1425.63910,0.01194
1423.57893,0.01201
1421.51876,0.01195
1419.45859,0.01176
1417.39842,0.01167
1415.33824,0.01191
1413.27807,0.01225
1411.21790,0.01241
1409.15773,0.01248
1407.09756,0.01260
1405.03738,0.01267
1402.97721,0.01259
1400.91704,0.01236
1398.85687,0.01197
1396.79670,0.01168
1394.73652,0.01177
1392.67635,0.01192
1390.61618,0.01193
1388.55601,0.01193
1386.49583,0.01200
1384.43566,0.01213
1382.37549,0.01224
1380.31532,0.01226
1378.25515,0.01232
1376.19497,0.01249
1374.13480,0.01246
1372.07463,0.01223
1370.01446,0.01213
1367.95429,0.01215
1365.89411,0.01213
1363.83394,0.01193
1361.77377,0.01165
1359.71360,0.01162
1357.65343,0.01178
1355.59325,0.01191
1353.53308,0.01193
1351.47291,0.01186
1349.41274,0.01175
1347.35256,0.01166
1345.29239,0.01161
1343.23222,0.01148
1341.17205,0.01114
1339.11188,0.01074
1337.05170,0.01075
1334.99153,0.01111
1332.93136,0.01136
1330.87119,0.01134
1328.81102,0.01129
1326.75084,0.01136
1324.69067,0.01140
1322.63050,0.01131
1320.57033,0.01120
1318.51015,0.01111
1316.44998,0.01106
1314.38981,0.01105
1312.32964,0.01104
1310.26947,0.01104
1308.20929,0.01106
1306.14912,0.01110
1304.08895,0.01120
1302.02878,0.01128
1299.96861,0.01131
1297.90843,0.01133
1295.84826,0.01138
1293.78809,0.01145
1291.72792,0.01138
1289.66775,0.01118
1287.60757,0.01106
1285.54740,0.01108
1283.48723,0.01120
1281.42706,0.01135
1279.36688,0.01147
1277.30671,0.01152
1275.24654,0.01150
1273.18637,0.01146
1271.12620,0.01145
1269.06602,0.01143
1267.00585,0.01140
1264.94568,0.01145
1262.88551,0.01163
1260.82534,0.01179
1258.76516,0.01185
1256.70499,0.01182
1254.64482,0.01168
1252.58465,0.01157
1250.52447,0.01161
1248.46430,0.01166
1246.40413,0.01156
1244.34396,0.01140
1242.28379,0.01133
1240.22361,0.01135
1238.16344,0.01133
1236.10327,0.01124
1234.04310,0.01107
1231.98293,0.01097
1229.92275,0.01095
1227.86258,0.01083
1225.80241,0.01065
1223.74224,0.01053
1221.68207,0.01039
1219.62189,0.01026
1217.56172,0.01018
1215.50155,0.01009
1213.44138,0.00993
1211.38120,0.00975
1209.32103,0.00963
1207.26086,0.00956
1205.20069,0.00951
1203.14052,0.00947
1201.08034,0.00943
1199.02017,0.00937
1196.96000,0.00941
1194.89983,0.00939
1192.83966,0.00925
1190.77948,0.00909
1188.71931,0.00899
1186.65914,0.00901
1184.59897,0.00920
1182.53880,0.00939
1180.47862,0.00951
1178.41845,0.00966
1176.35828,0.00968
1174.29811,0.00963
1172.23793,0.00975
1170.17776,0.00995
1168.11759,0.01010
1166.05742,0.01025
1163.99725,0.01044
1161.93707,0.01069
1159.87690,0.01095
1157.81673,0.01120
1155.75656,0.01146
1153.69639,0.01171
1151.63621,0.01198
1149.57604,0.01232
1147.51587,0.01261
1145.45570,0.01274
1143.39552,0.01278
1141.33535,0.01293
1139.27518,0.01328
1137.21501,0.01366
1135.15484,0.01403
1133.09466,0.01448
1131.03449,0.01496
1128.97432,0.01544
1126.91415,0.01595
1124.85398,0.01649
1122.79380,0.01718
1120.73363,0.01794
1118.67346,0.01856
1116.61329,0.01912
1114.55312,0.01983
1112.49294,0.02054
1110.43277,0.02110
1108.37260,0.02162
1106.31243,0.02226
1104.25225,0.02295
1102.19208,0.02351
1100.13191,0.02411
1098.07174,0.02473
1096.01157,0.02519
1093.95139,0.02555
1091.89122,0.02591
1089.83105,0.02639
1087.77088,0.02699
1085.71071,0.02742
1083.65053,0.02757
1081.59036,0.02775
1079.53019,0.02807
1077.47002,0.02847
1075.40985,0.02890
1073.34967,0.02928
1071.28950,0.02956
1069.22933,0.02973
1067.16916,0.02976
1065.10898,0.02960
1063.04881,0.02939
1060.98864,0.02928
1058.92847,0.02917
1056.86830,0.02901
1054.80812,0.02877
1052.74795,0.02839
1050.68778,0.02792
1048.62761,0.02745
1046.56744,0.02698
1044.50726,0.02653
1042.44709,0.02597
1040.38692,0.02520
1038.32675,0.02431
1036.26657,0.02325
1034.20640,0.02204
1032.14623,0.02108
1030.08606,0.02054
1028.02589,0.02006
1025.96571,0.01942
1023.90554,0.01877
1021.84537,0.01824
1019.78520,0.01778
1017.72503,0.01729
1015.66485,0.01696
1013.60468,0.01687
1011.54451,0.01681
1009.48434,0.01673
1007.42417,0.01670
1005.36399,0.01670
1003.30382,0.01693
1001.24365,0.01750
999.18348,0.01810
997.12330,0.01859
995.06313,0.01896
993.00296,0.01920
990.94279,0.01967
988.88262,0.02032
986.82244,0.02079
984.76227,0.02102
982.70210,0.02098
980.64193,0.02075
978.58176,0.02050
976.52158,0.02030
974.46141,0.02021
972.40124,0.02004
970.34107,0.01957
968.28089,0.01884
966.22072,0.01805
964.16055,0.01731
962.10038,0.01670
960.04021,0.01618
957.98003,0.01568
955.91986,0.01512
953.85969,0.01446
951.79952,0.01370
949.73935,0.01294
947.67917,0.01250
945.61900,0.01237
943.55883,0.01217
941.49866,0.01173
939.43849,0.01113
937.37831,0.01051
935.31814,0.01006
933.25797,0.00982
931.19780,0.00955
929.13762,0.00924
927.07745,0.00913
925.01728,0.00913
922.95711,0.00900
920.89694,0.00875
918.83676,0.00859
916.77659,0.00856
914.71642,0.00843
912.65625,0.00811
910.59608,0.00784
908.53590,0.00765
906.47573,0.00752
904.41556,0.00754
902.35539,0.00771
900.29522,0.00779
898.23504,0.00783
896.17487,0.00811
894.11470,0.00851
892.05453,0.00882
889.99435,0.00910
887.93418,0.00920
885.87401,0.00921
883.81384,0.00944
881.75367,0.00982
879.69349,0.00993
877.63332,0.00987
875.57315,0.01002
873.51298,0.01037
871.45281,0.01077
869.39263,0.01108
867.33246,0.01127
865.27229,0.01141
863.21212,0.01146
861.15194,0.01132
859.09177,0.01124
857.03160,0.01130
854.97143,0.01114
852.91126,0.01095
850.85108,0.01104
848.79091,0.01124
846.73074,0.01134
844.67057,0.01123
842.61040,0.01096
840.55022,0.01078
838.49005,0.01058
836.42988,0.01021
834.36971,0.00991
832.30954,0.00985
830.24936,0.00991
828.18919,0.00985
826.12902,0.00953
824.06885,0.00931
822.00867,0.00939
819.94850,0.00932
817.88833,0.00896
815.82816,0.00868
813.76799,0.00854
811.70781,0.00828
809.64764,0.00784
807.58747,0.00775
805.52730,0.00810
803.46713,0.00835
801.40695,0.00837
799.34678,0.00823
797.28661,0.00793
795.22644,0.00774
793.16627,0.00775
791.10609,0.00773
789.04592,0.00753
786.98575,0.00728
784.92558,0.00721
782.86540,0.00718
780.80523,0.00706
778.74506,0.00716
776.68489,0.00757
774.62472,0.00775
772.56454,0.00743
770.50437,0.00712
768.44420,0.00701
766.38403,0.00681
764.32386,0.00675
762.26368,0.00697
760.20351,0.00710
758.14334,0.00711
756.08317,0.00711
754.02299,0.00695
751.96282,0.00686
749.90265,0.00708
747.84248,0.00716
745.78231,0.00673
743.72213,0.00613
741.66196,0.00572
739.60179,0.00559
737.54162,0.00568
735.48145,0.00591
733.42127,0.00614
731.36110,0.00623
729.30093,0.00620
727.24076,0.00608
725.18059,0.00585
723.12041,0.00561
721.06024,0.00575
719.00007,0.00619
716.93990,0.00623
714.87972,0.00595
712.81955,0.00582
710.75938,0.00591
708.69921,0.00598
706.63904,0.00592
704.57886,0.00582
702.51869,0.00591
700.45852,0.00612
698.39835,0.00590
696.33818,0.00537
694.27800,0.00533
692.21783,0.00569
690.15766,0.00572
688.09749,0.00538
686.03731,0.00528
683.97714,0.00565
681.91697,0.00608
679.85680,0.00614
677.79663,0.00563
675.73645,0.00489
673.67628,0.00487
671.61611,0.00603
669.55594,0.00617
667.49577,0.00490
665.43559,0.00689
663.37542,0.00615
661.31525,0.00553
659.25508,0.00534
657.19491,0.00480
655.13473,0.00428
653.07456,0.00409
651.01439,0.00401
648.95422,0.00388
646.89404,0.00383
644.83387,0.00385
642.77370,0.00419
640.71353,0.00436
638.65336,0.00355
636.59318,0.00219
634.53301,0.00151
632.47284,0.00165
630.41267,0.00165
628.35250,0.00157
626.29232,0.00269
624.23215,0.00440
622.17198,0.00478
620.11181,0.00322
618.05164,0.00112
615.99146,0.00086
613.93129,0.00188
611.87112,0.00186
609.81095,0.00109
607.75077,0.00087
605.69060,0.00129
603.63043,0.00111
601.57026,0.00000
599.51009,0.00000
