3996.73391,0.00013
3994.67374,0.00037
3992.61357,0.00056
3990.55339,0.00071
3988.49322,0.00076
3986.43305,0.00063
3984.37288,0.00031
3982.31271,0.00000
3980.25253,0.00004
3978.19236,0.00037
3976.13219,0.00067
3974.07202,0.00072
3972.01184,0.00046
3969.95167,0.00014
3967.89150,0.00004
3965.83133,0.00010
3963.77116,0.00011
3961.71098,0.00007
3959.65081,0.00011
3957.59064,0.00021
3955.53047,0.00031
3953.47030,0.00039
3951.41012,0.00043
3949.34995,0.00044
3947.28978,0.00048
3945.22961,0.00063
3943.16943,0.00088
3941.10926,0.00105
3939.04909,0.00098
3936.98892,0.00072
3934.92875,0.00049
3932.86857,0.00044
3930.80840,0.00053
3928.74823,0.00057
3926.68806,0.00050
3924.62789,0.00053
3922.56771,0.00076
3920.50754,0.00091
3918.44737,0.00083
3916.38720,0.00081
3914.32703,0.00100
3912.26685,0.00119
3910.20668,0.00117
3908.14651,0.00092
3906.08634,0.00072
3904.02616,0.00080
3901.96599,0.00108
3899.90582,0.00132
3897.84565,0.00123
3895.78548,0.00092
3893.72530,0.00097
3891.66513,0.00141
3889.60496,0.00153
3887.54479,0.00125
3885.48462,0.00114
3883.42444,0.00119
3881.36427,0.00123
3879.30410,0.00129
3877.24393,0.00119
3875.18376,0.00099
3873.12358,0.00096
3871.06341,0.00121
3869.00324,0.00161
3866.94307,0.00169
3864.88289,0.00149
3862.82272,0.00132
3860.76255,0.00116
3858.70238,0.00070
3856.64221,0.00007
3854.58203,0.00024
3852.52186,0.00138
3850.46169,0.00188
3848.40152,0.00147
3846.34135,0.00105
3844.28117,0.00072
3842.22100,0.00028
3840.16083,0.00007
3838.10066,0.00039
3836.04048,0.00081
3833.98031,0.00104
3831.92014,0.00116
3829.85997,0.00111
3827.79980,0.00085
3825.73962,0.00057
3823.67945,0.00044
3821.61928,0.00067
3819.55911,0.00105
3817.49894,0.00113
3815.43876,0.00120
3813.37859,0.00126
3811.31842,0.00100
3809.25825,0.00085
3807.19808,0.00101
3805.13790,0.00101
3803.07773,0.00093
3801.01756,0.00125
3798.95739,0.00162
3796.89721,0.00175
3794.83704,0.00180
3792.77687,0.00167
3790.71670,0.00141
3788.65653,0.00126
3786.59635,0.00146
3784.53618,0.00192
3782.47601,0.00213
3780.41584,0.00200
3778.35567,0.00178
3776.29549,0.00160
3774.23532,0.00148
3772.17515,0.00136
3770.11498,0.00125
3768.05481,0.00122
3765.99463,0.00130
3763.93446,0.00130
3761.87429,0.00104
3759.81412,0.00075
3757.75394,0.00063
3755.69377,0.00056
3753.63360,0.00068
3751.57343,0.00092
3749.51326,0.00071
3747.45308,0.00019
3745.39291,0.00010
3743.33274,0.00057
3741.27257,0.00073
3739.21240,0.00046
3737.15222,0.00049
3735.09205,0.00092
3733.03188,0.00136
3730.97171,0.00132
3728.91153,0.00093
3726.85136,0.00058
3724.79119,0.00056
3722.73102,0.00090
3720.67085,0.00119
3718.61067,0.00122
3716.55050,0.00084
3714.49033,0.00036
3712.43016,0.00052
3710.36999,0.00110
3708.30981,0.00143
3706.24964,0.00111
3704.18947,0.00079
3702.12930,0.00098
3700.06913,0.00134
3698.00895,0.00149
3695.94878,0.00150
3693.88861,0.00155
3691.82844,0.00148
3689.76826,0.00146
3687.70809,0.00160
3685.64792,0.00170
3683.58775,0.00153
3681.52758,0.00134
3679.46740,0.00123
3677.40723,0.00132
3675.34706,0.00164
3673.28689,0.00178
3671.22672,0.00181
3669.16654,0.00219
3667.10637,0.00237
3665.04620,0.00214
3662.98603,0.00196
3660.92586,0.00172
3658.86568,0.00131
3656.80551,0.00116
3654.74534,0.00127
3652.68517,0.00125
3650.62499,0.00144
3648.56482,0.00220
3646.50465,0.00287
3644.44448,0.00272
3642.38431,0.00230
3640.32413,0.00223
3638.26396,0.00232
3636.20379,0.00234
3634.14362,0.00235
3632.08345,0.00235
3630.02327,0.00252
3627.96310,0.00290
3625.90293,0.00323
3623.84276,0.00333
3621.78258,0.00330
3619.72241,0.00322
3617.66224,0.00310
3615.60207,0.00278
3613.54190,0.00234
3611.48172,0.00231
3609.42155,0.00270
3607.36138,0.00331
3605.30121,0.00388
3603.24104,0.00406
3601.18086,0.00403
3599.12069,0.00409
3597.06052,0.00435
3595.00035,0.00457
3592.94018,0.00487
3590.88000,0.00504
3588.81983,0.00507
3586.75966,0.00500
3584.69949,0.00487
3582.63931,0.00472
3580.57914,0.00477
3578.51897,0.00505
3576.45880,0.00534
3574.39863,0.00553
3572.33845,0.00561
3570.27828,0.00563
3568.21811,0.00572
3566.15794,0.00592
3564.09777,0.00600
3562.03759,0.00600
3559.97742,0.00615
3557.91725,0.00630
3555.85708,0.00627
3553.79690,0.00635
3551.73673,0.00658
3549.67656,0.00660
3547.61639,0.00645
3545.55622,0.00655
3543.49604,0.00687
3541.43587,0.00719
3539.37570,0.00743
3537.31553,0.00754
3535.25536,0.00757
3533.19518,0.00765
3531.13501,0.00761
3529.07484,0.00736
3527.01467,0.00730
3524.95450,0.00760
3522.89432,0.00787
3520.83415,0.00789
3518.77398,0.00786
3516.71381,0.00791
3514.65363,0.00797
3512.59346,0.00805
3510.53329,0.00834
3508.47312,0.00876
3506.41295,0.00900
3504.35277,0.00900
3502.29260,0.00899
3500.23243,0.00910
3498.17226,0.00928
3496.11209,0.00949
3494.05191,0.00966
3491.99174,0.00968
3489.93157,0.00967
3487.87140,0.00977
3485.81123,0.00994
3483.75105,0.01008
3481.69088,0.01011
3479.63071,0.01010
3477.57054,0.01019
3475.51036,0.01036
3473.45019,0.01045
3471.39002,0.01048
3469.32985,0.01057
3467.26968,0.01072
3465.20950,0.01082
3463.14933,0.01087
3461.08916,0.01098
3459.02899,0.01110
3456.96882,0.01118
3454.90864,0.01121
3452.84847,0.01122
3450.78830,0.01123
3448.72813,0.01123
3446.66795,0.01135
3444.60778,0.01154
3442.54761,0.01165
3440.48744,0.01165
3438.42727,0.01168
3436.36709,0.01192
3434.30692,0.01217
3432.24675,0.01223
3430.18658,0.01223
3428.12641,0.01224
3426.06623,0.01233
3424.00606,0.01255
3421.94589,0.01271
3419.88572,0.01266
3417.82555,0.01260
3415.76537,0.01261
3413.70520,0.01266
3411.64503,0.01280
3409.58486,0.01286
3407.52468,0.01268
3405.46451,0.01258
3403.40434,0.01274
3401.34417,0.01286
3399.28400,0.01270
3397.22382,0.01277
3395.16365,0.01288
3393.10348,0.01311
3391.04331,0.01341
3388.98314,0.01352
3386.92296,0.01350
3384.86279,0.01351
3382.80262,0.01356
3380.74245,0.01365
3378.68228,0.01373
3376.62210,0.01373
3374.56193,0.01374
3372.50176,0.01379
3370.44159,0.01376
3368.38141,0.01365
3366.32124,0.01365
3364.26107,0.01372
3362.20090,0.01382
3360.14073,0.01406
3358.08055,0.01424
3356.02038,0.01420
3353.96021,0.01414
3351.90004,0.01416
3349.83987,0.01417
3347.77969,0.01422
3345.71952,0.01445
3343.65935,0.01463
3341.59918,0.01452
3339.53900,0.01442
3337.47883,0.01444
3335.41866,0.01441
3333.35849,0.01435
3331.29832,0.01437
3329.23814,0.01445
3327.17797,0.01466
3325.11780,0.01495
3323.05763,0.01505
3320.99746,0.01496
3318.93728,0.01490
3316.87711,0.01478
3314.81694,0.01457
3312.75677,0.01443
3310.69660,0.01441
3308.63642,0.01449
3306.57625,0.01468
3304.51608,0.01491
3302.45591,0.01507
3300.39573,0.01507
3298.33556,0.01499
3296.27539,0.01496
3294.21522,0.01502
3292.15505,0.01511
3290.09487,0.01517
3288.03470,0.01522
3285.97453,0.01528
3283.91436,0.01526
3281.85419,0.01524
3279.79401,0.01527
3277.73384,0.01525
3275.67367,0.01529
3273.61350,0.01539
3271.55333,0.01531
3269.49315,0.01512
3267.43298,0.01507
3265.37281,0.01511
3263.31264,0.01517
3261.25246,0.01532
3259.19229,0.01547
3257.13212,0.01543
3255.07195,0.01535
3253.01178,0.01540
3250.95160,0.01545
3248.89143,0.01538
3246.83126,0.01538
3244.77109,0.01551
3242.71092,0.01553
3240.65074,0.01541
3238.59057,0.01539
3236.53040,0.01560
3234.47023,0.01584
3232.41005,0.01588
3230.34988,0.01577
3228.28971,0.01565
3226.22954,0.01557
3224.16937,0.01553
3222.10919,0.01556
3220.04902,0.01567
3217.98885,0.01574
3215.92868,0.01573
3213.86851,0.01568
3211.80833,0.01570
3209.74816,0.01591
3207.68799,0.01612
3205.62782,0.01600
3203.56765,0.01567
3201.50747,0.01539
3199.44730,0.01523
3197.38713,0.01530
3195.32696,0.01564
3193.26678,0.01588
3191.20661,0.01584
3189.14644,0.01577
3187.08627,0.01586
3185.02610,0.01596
3182.96592,0.01605
3180.90575,0.01611
3178.84558,0.01602
3176.78541,0.01582
3174.72524,0.01572
3172.66506,0.01576
3170.60489,0.01580
3168.54472,0.01577
3166.48455,0.01568
3164.42437,0.01553
3162.36420,0.01542
3160.30403,0.01539
3158.24386,0.01531
3156.18369,0.01524
3154.12351,0.01528
3152.06334,0.01526
3150.00317,0.01512
3147.94300,0.01506
3145.88283,0.01521
3143.82265,0.01537
3141.76248,0.01539
3139.70231,0.01529
3137.64214,0.01516
3135.58197,0.01513
3133.52179,0.01529
3131.46162,0.01539
3129.40145,0.01529
3127.34128,0.01514
3125.28110,0.01507
3123.22093,0.01501
3121.16076,0.01491
3119.10059,0.01487
3117.04042,0.01500
3114.98024,0.01514
3112.92007,0.01506
3110.85990,0.01491
3108.79973,0.01499
3106.73956,0.01514
3104.67938,0.01505
3102.61921,0.01484
3100.55904,0.01470
3098.49887,0.01459
3096.43870,0.01460
3094.37852,0.01473
3092.31835,0.01477
3090.25818,0.01466
3088.19801,0.01454
3086.13783,0.01443
3084.07766,0.01436
3082.01749,0.01438
3079.95732,0.01438
3077.89715,0.01443
3075.83697,0.01454
3073.77680,0.01454
3071.71663,0.01442
3069.65646,0.01425
3067.59629,0.01411
3065.53611,0.01406
3063.47594,0.01403
3061.41577,0.01397
3059.35560,0.01397
3057.29542,0.01401
3055.23525,0.01404
3053.17508,0.01410
3051.11491,0.01409
3049.05474,0.01393
3046.99456,0.01372
3044.93439,0.01362
3042.87422,0.01356
3040.81405,0.01354
3038.75388,0.01360
3036.69370,0.01353
3034.63353,0.01327
3032.57336,0.01315
3030.51319,0.01328
3028.45302,0.01346
3026.39284,0.01350
3024.33267,0.01335
3022.27250,0.01319
3020.21233,0.01314
3018.15215,0.01304
3016.09198,0.01286
3014.03181,0.01270
3011.97164,0.01265
3009.91147,0.01268
3007.85129,0.01261
3005.79112,0.01249
3003.73095,0.01244
3001.67078,0.01239
2999.61061,0.01233
2997.55043,0.01227
2995.49026,0.01220
2993.43009,0.01213
2991.36992,0.01212
2989.30975,0.01219
2987.24957,0.01232
2985.18940,0.01233
2983.12923,0.01225
2981.06906,0.01231
2979.00888,0.01237
2976.94871,0.01218
2974.88854,0.01192
2972.82837,0.01185
2970.76820,0.01181
2968.70802,0.01173
2966.64785,0.01174
2964.58768,0.01172
2962.52751,0.01149
2960.46734,0.01129
2958.40716,0.01132
2956.34699,0.01144
2954.28682,0.01162
2952.22665,0.01174
2950.16647,0.01162
2948.10630,0.01143
2946.04613,0.01135
2943.98596,0.01136
2941.92579,0.01144
2939.86561,0.01150
2937.80544,0.01147
2935.74527,0.01137
2933.68510,0.01132
2931.62493,0.01137
2929.56475,0.01140
2927.50458,0.01139
2925.44441,0.01134
2923.38424,0.01120
2921.32407,0.01117
2919.26389,0.01125
2917.20372,0.01122
2915.14355,0.01106
2913.08338,0.01081
2911.02320,0.01062
2908.96303,0.01062
2906.90286,0.01077
2904.84269,0.01087
2902.78252,0.01076
2900.72234,0.01060
2898.66217,0.01048
2896.60200,0.01038
2894.54183,0.01028
2892.48166,0.01011
2890.42148,0.00998
2888.36131,0.01004
2886.30114,0.01020
2884.24097,0.01031
2882.18080,0.01029
2880.12062,0.01021
2878.06045,0.01010
2876.00028,0.01003
2873.94011,0.01009
2871.87993,0.01014
2869.81976,0.01001
2867.75959,0.00981
2865.69942,0.00958
2863.63925,0.00943
2861.57907,0.00955
2859.51890,0.00973
2857.45873,0.00972
2855.39856,0.00965
2853.33839,0.00964
2851.27821,0.00952
2849.21804,0.00933
2847.15787,0.00925
2845.09770,0.00920
2843.03752,0.00917
2840.97735,0.00912
2838.91718,0.00905
2836.85701,0.00898
2834.79684,0.00895
2832.73666,0.00886
2830.67649,0.00873
2828.61632,0.00872
2826.55615,0.00884
2824.49598,0.00891
2822.43580,0.00883
2820.37563,0.00876
2818.31546,0.00874
2816.25529,0.00858
2814.19512,0.00848
2812.13494,0.00854
2810.07477,0.00862
2808.01460,0.00865
2805.95443,0.00862
2803.89425,0.00848
2801.83408,0.00830
2799.77391,0.00818
2797.71374,0.00810
2795.65357,0.00813
2793.59339,0.00826
2791.53322,0.00830
2789.47305,0.00825
2787.41288,0.00819
2785.35271,0.00811
2783.29253,0.00803
2781.23236,0.00797
2779.17219,0.00794
2777.11202,0.00787
2775.05184,0.00776
2772.99167,0.00764
2770.93150,0.00758
2768.87133,0.00766
2766.81116,0.00779
2764.75098,0.00781
2762.69081,0.00768
2760.63064,0.00752
2758.57047,0.00750
2756.51030,0.00757
2754.45012,0.00764
2752.38995,0.00762
2750.32978,0.00759
2748.26961,0.00758
2746.20944,0.00747
2744.14926,0.00728
2742.08909,0.00715
2740.02892,0.00718
2737.96875,0.00729
2735.90857,0.00734
2733.84840,0.00724
2731.78823,0.00718
2729.72806,0.00728
2727.66789,0.00727
2725.60771,0.00702
2723.54754,0.00678
2721.48737,0.00671
2719.42720,0.00676
2717.36703,0.00679
2715.30685,0.00676
2713.24668,0.00675
2711.18651,0.00674
2709.12634,0.00672
2707.06617,0.00678
2705.00599,0.00687
2702.94582,0.00678
2700.88565,0.00661
2698.82548,0.00649
2696.76530,0.00642
2694.70513,0.00645
2692.64496,0.00647
2690.58479,0.00642
2688.52462,0.00641
2686.46444,0.00644
2684.40427,0.00645
2682.34410,0.00653
2680.28393,0.00658
2678.22376,0.00646
2676.16358,0.00635
2674.10341,0.00637
2672.04324,0.00635
2669.98307,0.00623
2667.92289,0.00620
2665.86272,0.00622
2663.80255,0.00610
2661.74238,0.00598
2659.68221,0.00605
2657.62203,0.00616
2655.56186,0.00620
2653.50169,0.00623
2651.44152,0.00620
2649.38135,0.00602
2647.32117,0.00584
2645.26100,0.00581
2643.20083,0.00580
2641.14066,0.00571
2639.08049,0.00562
2637.02031,0.00555
2634.96014,0.00545
2632.89997,0.00541
2630.83980,0.00545
2628.77962,0.00545
2626.71945,0.00540
2624.65928,0.00532
2622.59911,0.00520
2620.53894,0.00514
2618.47876,0.00512
2616.41859,0.00516
2614.35842,0.00521
2612.29825,0.00521
2610.23808,0.00516
2608.17790,0.00499
2606.11773,0.00482
2604.05756,0.00484
2601.99739,0.00490
2599.93722,0.00497
2597.87704,0.00504
2595.81687,0.00507
2593.75670,0.00509
2591.69653,0.00509
2589.63635,0.00506
2587.57618,0.00496
2585.51601,0.00477
2583.45584,0.00468
2581.39567,0.00481
2579.33549,0.00498
2577.27532,0.00507
2575.21515,0.00503
2573.15498,0.00473
2571.09481,0.00451
2569.03463,0.00462
2566.97446,0.00465
2564.91429,0.00452
2562.85412,0.00455
2560.79394,0.00469
2558.73377,0.00480
2556.67360,0.00505
2554.61343,0.00525
2552.55326,0.00522
2550.49308,0.00514
2548.43291,0.00501
2546.37274,0.00494
2544.31257,0.00487
2542.25240,0.00465
2540.19222,0.00445
2538.13205,0.00453
2536.07188,0.00481
2534.01171,0.00485
2531.95154,0.00456
2529.89136,0.00424
2527.83119,0.00412
2525.77102,0.00439
2523.71085,0.00487
2521.65067,0.00523
2519.59050,0.00528
2517.53033,0.00503
2515.47016,0.00477
2513.40999,0.00475
2511.34981,0.00480
2509.28964,0.00476
2507.22947,0.00480
2505.16930,0.00480
2503.10913,0.00455
2501.04895,0.00435
2498.98878,0.00440
2496.92861,0.00454
2494.86844,0.00460
2492.80827,0.00451
2490.74809,0.00444
2488.68792,0.00452
2486.62775,0.00477
2484.56758,0.00504
2482.50740,0.00509
2480.44723,0.00502
2478.38706,0.00490
2476.32689,0.00479
2474.26672,0.00479
2472.20654,0.00476
2470.14637,0.00476
2468.08620,0.00498
2466.02603,0.00529
2463.96586,0.00553
2461.90568,0.00558
2459.84551,0.00550
2457.78534,0.00544
2455.72517,0.00528
2453.66499,0.00509
2451.60482,0.00499
2449.54465,0.00484
2447.48448,0.00469
2445.42431,0.00465
2443.36413,0.00476
2441.30396,0.00514
2439.24379,0.00538
2437.18362,0.00526
2435.12345,0.00516
2433.06327,0.00511
2431.00310,0.00493
2428.94293,0.00490
2426.88276,0.00514
2424.82259,0.00513
2422.76241,0.00479
2420.70224,0.00460
2418.64207,0.00461
2416.58190,0.00466
2414.52172,0.00476
2412.46155,0.00484
2410.40138,0.00495
2408.34121,0.00512
2406.28104,0.00514
2404.22086,0.00490
2402.16069,0.00468
2400.10052,0.00469
2398.04035,0.00442
2395.98018,0.00455
2393.92000,0.00481
2391.85983,0.00506
2389.79966,0.00526
2387.73949,0.00528
2385.67931,0.00507
2383.61914,0.00485
2381.55897,0.00476
2379.49880,0.00476
2377.43863,0.00470
2375.37845,0.00514
2373.31828,0.00504
2371.25811,0.00445
2369.19794,0.00498
2367.13777,0.00570
2365.07759,0.00587
2363.01742,0.00801
2360.95725,0.00738
2358.89708,0.00793
2356.83691,0.00898
2354.77673,0.00981
2352.71656,0.00876
2350.65639,0.00325
2348.59622,0.00047
2346.53604,0.00828
2344.47587,0.00933
2342.41570,0.00751
2340.35553,0.00719
2338.29536,0.00721
2336.23518,0.00756
2334.17501,0.00765
2332.11484,0.00761
2330.05467,0.00695
2327.99450,0.00736
2325.93432,0.00639
2323.87415,0.00664
2321.81398,0.00650
2319.75381,0.00700
2317.69364,0.00565
2315.63346,0.00504
2313.57329,0.00517
2311.51312,0.00495
2309.45295,0.00483
2307.39277,0.00485
2305.33260,0.00488
2303.27243,0.00474
2301.21226,0.00490
2299.15209,0.00504
2297.09191,0.00550
2295.03174,0.00625
2292.97157,0.00653
2290.91140,0.00636
2288.85123,0.00603
2286.79105,0.00556
2284.73088,0.00504
2282.67071,0.00475
2280.61054,0.00482
2278.55036,0.00503
2276.49019,0.00506
2274.43002,0.00477
2272.36985,0.00466
2270.30968,0.00485
2268.24950,0.00497
2266.18933,0.00488
2264.12916,0.00485
2262.06899,0.00479
2260.00882,0.00455
2257.94864,0.00430
2255.88847,0.00449
2253.82830,0.00470
2251.76813,0.00465
2249.70796,0.00446
2247.64778,0.00447
2245.58761,0.00450
2243.52744,0.00439
2241.46727,0.00435
2239.40709,0.00439
2237.34692,0.00421
2235.28675,0.00429
2233.22658,0.00447
2231.16641,0.00438
2229.10623,0.00457
2227.04606,0.00484
2224.98589,0.00463
2222.92572,0.00429
2220.86555,0.00391
2218.80537,0.00360
2216.74520,0.00402
2214.68503,0.00491
2212.62486,0.00499
2210.56469,0.00399
2208.50451,0.00322
2206.44434,0.00346
2204.38417,0.00409
2202.32400,0.00445
2200.26382,0.00451
2198.20365,0.00442
2196.14348,0.00399
2194.08331,0.00396
2192.02314,0.00468
2189.96296,0.00492
2187.90279,0.00427
2185.84262,0.00373
2183.78245,0.00360
2181.72228,0.00357
2179.66210,0.00370
2177.60193,0.00370
2175.54176,0.00370
2173.48159,0.00439
2171.42141,0.00521
2169.36124,0.00532
2167.30107,0.00507
2165.24090,0.00519
2163.18073,0.00546
2161.12055,0.00458
2159.06038,0.00258
2157.00021,0.00174
2154.94004,0.00239
2152.87987,0.00301
2150.81969,0.00296
2148.75952,0.00258
2146.69935,0.00267
2144.63918,0.00354
2142.57901,0.00410
2140.51883,0.00380
2138.45866,0.00303
2136.39849,0.00231
2134.33832,0.00212
2132.27814,0.00240
2130.21797,0.00258
2128.15780,0.00260
2126.09763,0.00288
2124.03746,0.00324
2121.97728,0.00311
2119.91711,0.00283
2117.85694,0.00292
2115.79677,0.00296
2113.73660,0.00308
2111.67642,0.00369
2109.61625,0.00407
2107.55608,0.00374
2105.49591,0.00334
2103.43573,0.00331
2101.37556,0.00344
2099.31539,0.00361
2097.25522,0.00335
2095.19505,0.00323
2093.13487,0.00339
2091.07470,0.00327
2089.01453,0.00301
2086.95436,0.00300
2084.89419,0.00322
2082.83401,0.00330
2080.77384,0.00307
2078.71367,0.00322
2076.65350,0.00382
2074.59333,0.00401
2072.53315,0.00346
2070.47298,0.00274
2068.41281,0.00274
2066.35264,0.00345
2064.29246,0.00402
2062.23229,0.00433
2060.17212,0.00461
2058.11195,0.00448
2056.05178,0.00391
2053.99160,0.00355
2051.93143,0.00378
2049.87126,0.00391
2047.81109,0.00336
2045.75092,0.00293
2043.69074,0.00278
2041.63057,0.00234
2039.57040,0.00212
2037.51023,0.00262
2035.45006,0.00355
2033.38988,0.00403
2031.32971,0.00385
2029.26954,0.00358
2027.20937,0.00306
2025.14919,0.00229
2023.08902,0.00182
2021.02885,0.00191
2018.96868,0.00293
2016.90851,0.00411
2014.84833,0.00450
2012.78816,0.00458
2010.72799,0.00424
2008.66782,0.00355
2006.60765,0.00355
2004.54747,0.00400
2002.48730,0.00393
2000.42713,0.00325
1998.36696,0.00278
1996.30678,0.00276
1994.24661,0.00240
1992.18644,0.00195
1990.12627,0.00229
1988.06610,0.00274
1986.00592,0.00255
1983.94575,0.00248
1981.88558,0.00314
1979.82541,0.00392
1977.76524,0.00429
1975.70506,0.00464
1973.64489,0.00472
1971.58472,0.00370
1969.52455,0.00241
1967.46438,0.00193
1965.40420,0.00182
1963.34403,0.00171
1961.28386,0.00185
1959.22369,0.00211
1957.16351,0.00231
1955.10334,0.00243
1953.04317,0.00252
1950.98300,0.00249
1948.92283,0.00242
1946.86265,0.00260
1944.80248,0.00299
1942.74231,0.00336
1940.68214,0.00341
1938.62197,0.00307
1936.56179,0.00272
1934.50162,0.00277
1932.44145,0.00296
1930.38128,0.00276
1928.32111,0.00247
1926.26093,0.00250
1924.20076,0.00259
1922.14059,0.00251
1920.08042,0.00219
1918.02024,0.00200
1915.96007,0.00238
1913.89990,0.00303
1911.83973,0.00345
1909.77956,0.00336
1907.71938,0.00276
1905.65921,0.00215
1903.59904,0.00207
1901.53887,0.00259
1899.47870,0.00320
1897.41852,0.00348
1895.35835,0.00337
1893.29818,0.00323
1891.23801,0.00328
1889.17783,0.00333
1887.11766,0.00327
1885.05749,0.00320
1882.99732,0.00302
1880.93715,0.00272
1878.87697,0.00255
1876.81680,0.00267
1874.75663,0.00278
1872.69646,0.00270
1870.63629,0.00260
1868.57611,0.00259
1866.51594,0.00254
1864.45577,0.00253
1862.39560,0.00261
1860.33543,0.00260
1858.27525,0.00249
1856.21508,0.00251
1854.15491,0.00277
1852.09474,0.00295
1850.03456,0.00290
1847.97439,0.00287
1845.91422,0.00303
1843.85405,0.00319
1841.79388,0.00309
1839.73370,0.00282
1837.67353,0.00269
1835.61336,0.00276
1833.55319,0.00293
1831.49302,0.00322
1829.43284,0.00346
1827.37267,0.00346
1825.31250,0.00345
1823.25233,0.00349
1821.19216,0.00332
1819.13198,0.00302
1817.07181,0.00291
1815.01164,0.00300
1812.95147,0.00306
1810.89129,0.00302
1808.83112,0.00300
1806.77095,0.00295
1804.71078,0.00283
1802.65061,0.00278
1800.59043,0.00290
1798.53026,0.00298
1796.47009,0.00294
1794.40992,0.00299
1792.34975,0.00311
1790.28957,0.00311
1788.22940,0.00305
1786.16923,0.00310
1784.10906,0.00323
1782.04888,0.00332
1779.98871,0.00321
1777.92854,0.00302
1775.86837,0.00304
1773.80820,0.00337
1771.74802,0.00368
1769.68785,0.00356
1767.62768,0.00327
1765.56751,0.00312
1763.50734,0.00314
1761.44716,0.00324
1759.38699,0.00330
1757.32682,0.00335
1755.26665,0.00341
1753.20648,0.00347
1751.14630,0.00355
1749.08613,0.00357
1747.02596,0.00353
1744.96579,0.00354
1742.90561,0.00360
1740.84544,0.00367
1738.78527,0.00370
1736.72510,0.00374
1734.66493,0.00397
1732.60475,0.00425
1730.54458,0.00421
1728.48441,0.00393
1726.42424,0.00375
1724.36407,0.00371
1722.30389,0.00365
1720.24372,0.00372
1718.18355,0.00417
1716.12338,0.00463
1714.06320,0.00459
1712.00303,0.00422
1709.94286,0.00402
1707.88269,0.00410
1705.82252,0.00431
1703.76234,0.00455
1701.70217,0.00479
1699.64200,0.00493
1697.58183,0.00493
1695.52166,0.00487
1693.46148,0.00479
1691.40131,0.00479
1689.34114,0.00498
1687.28097,0.00536
1685.22080,0.00586
1683.16062,0.00615
1681.10045,0.00613
1679.04028,0.00606
1676.98011,0.00622
1674.91993,0.00661
1672.85976,0.00701
1670.79959,0.00736
1668.73942,0.00763
1666.67925,0.00765
1664.61907,0.00762
1662.55890,0.00762
1660.49873,0.00743
1658.43856,0.00720
1656.37839,0.00732
1654.31821,0.00783
1652.25804,0.00814
1650.19787,0.00803
1648.13770,0.00792
1646.07753,0.00799
1644.01735,0.00793
1641.95718,0.00775
1639.89701,0.00774
1637.83684,0.00803
1635.77666,0.00835
1633.71649,0.00825
1631.65632,0.00786
1629.59615,0.00761
1627.53598,0.00760
1625.47580,0.00763
1623.41563,0.00758
1621.35546,0.00738
1619.29529,0.00728
1617.23512,0.00739
1615.17494,0.00735
1613.11477,0.00711
1611.05460,0.00701
1608.99443,0.00708
1606.93425,0.00710
1604.87408,0.00704
1602.81391,0.00692
1600.75374,0.00678
1598.69357,0.00668
1596.63339,0.00667
1594.57322,0.00670
1592.51305,0.00670
1590.45288,0.00665
1588.39271,0.00657
1586.33253,0.00642
1584.27236,0.00621
1582.21219,0.00604
1580.15202,0.00595
1578.09185,0.00597
1576.03167,0.00601
1573.97150,0.00586
1571.91133,0.00573
1569.85116,0.00579
1567.79098,0.00575
1565.73081,0.00553
1563.67064,0.00548
1561.61047,0.00592
1559.55030,0.00652
1557.49012,0.00620
1555.42995,0.00530
1553.36978,0.00474
1551.30961,0.00468
1549.24944,0.00469
1547.18926,0.00459
1545.12909,0.00458
1543.06892,0.00482
1541.00875,0.00507
1538.94858,0.00487
1536.88840,0.00441
1534.82823,0.00424
1532.76806,0.00430
1530.70789,0.00423
1528.64771,0.00414
1526.58754,0.00422
1524.52737,0.00438
1522.46720,0.00451
1520.40703,0.00447
1518.34685,0.00440
1516.28668,0.00436
1514.22651,0.00412
1512.16634,0.00379
1510.10617,0.00374
1508.04599,0.00412
1505.98582,0.00448
1503.92565,0.00430
1501.86548,0.00391
1499.80530,0.00388
1497.74513,0.00412
1495.68496,0.00419
1493.62479,0.00401
1491.56462,0.00395
1489.50444,0.00413
1487.44427,0.00429
1485.38410,0.00417
1483.32393,0.00398
1481.26376,0.00396
1479.20358,0.00402
1477.14341,0.00409
1475.08324,0.00422
1473.02307,0.00435
1470.96290,0.00436
1468.90272,0.00424
1466.84255,0.00420
1464.78238,0.00422
1462.72221,0.00419
1460.66203,0.00427
1458.60186,0.00452
1456.54169,0.00455
1454.48152,0.00431
1452.42135,0.00411
1450.36117,0.00419
1448.30100,0.00438
1446.24083,0.00441
1444.18066,0.00431
1442.12049,0.00421
1440.06031,0.00418
1438.00014,0.00428
1435.93997,0.00443
1433.87980,0.00445
1431.81963,0.00442
1429.75945,0.00443
1427.69928,0.00439
1425.63911,0.00437
1423.57894,0.00443
1421.51876,0.00448
1419.45859,0.00451
1417.39842,0.00459
1415.33825,0.00469
1413.27808,0.00472
1411.21790,0.00469
1409.15773,0.00465
1407.09756,0.00463
1405.03739,0.00455
1402.97722,0.00443
1400.91704,0.00441
1398.85687,0.00448
1396.79670,0.00456
1394.73653,0.00462
1392.67635,0.00451
1390.61618,0.00434
1388.55601,0.00428
1386.49584,0.00433
1384.43567,0.00436
1382.37549,0.00435
1380.31532,0.00437
1378.25515,0.00446
1376.19498,0.00461
1374.13481,0.00467
1372.07463,0.00456
1370.01446,0.00440
1367.95429,0.00429
1365.89412,0.00425
1363.83395,0.00426
1361.77377,0.00427
1359.71360,0.00429
1357.65343,0.00433
1355.59326,0.00433
1353.53308,0.00429
1351.47291,0.00429
1349.41274,0.00435
1347.35257,0.00439
1345.29240,0.00441
1343.23222,0.00443
1341.17205,0.00437
1339.11188,0.00426
1337.05171,0.00421
1334.99154,0.00426
1332.93136,0.00434
1330.87119,0.00443
1328.81102,0.00452
1326.75085,0.00453
1324.69067,0.00447
1322.63050,0.00447
1320.57033,0.00455
1318.51016,0.00457
1316.44999,0.00455
1314.38981,0.00450
1312.32964,0.00444
1310.26947,0.00447
1308.20930,0.00460
1306.14913,0.00471
1304.08895,0.00469
1302.02878,0.00455
1299.96861,0.00447
1297.90844,0.00453
1295.84827,0.00468
1293.78809,0.00478
1291.72792,0.00480
1289.66775,0.00484
1287.60758,0.00493
1285.54740,0.00494
1283.48723,0.00492
1281.42706,0.00494
1279.36689,0.00493
1277.30672,0.00496
1275.24654,0.00509
1273.18637,0.00518
1271.12620,0.00513
1269.06603,0.00495
1267.00586,0.00475
1264.94568,0.00468
1262.88551,0.00484
1260.82534,0.00505
1258.76517,0.00519
1256.70500,0.00529
1254.64482,0.00533
1252.58465,0.00533
1250.52448,0.00529
1248.46431,0.00516
1246.40413,0.00499
1244.34396,0.00491
1242.28379,0.00494
1240.22362,0.00508
1238.16345,0.00514
1236.10327,0.00502
1234.04310,0.00485
1231.98293,0.00480
1229.92276,0.00481
1227.86259,0.00478
1225.80241,0.00477
1223.74224,0.00482
1221.68207,0.00480
1219.62190,0.00468
1217.56172,0.00452
1215.50155,0.00443
1213.44138,0.00442
1211.38121,0.00440
1209.32104,0.00435
1207.26086,0.00424
1205.20069,0.00407
1203.14052,0.00391
1201.08035,0.00386
1199.02018,0.00395
1196.96000,0.00406
1194.89983,0.00410
1192.83966,0.00407
1190.77949,0.00403
1188.71932,0.00399
1186.65914,0.00406
1184.59897,0.00424
1182.53880,0.00430
1180.47863,0.00423
1178.41845,0.00428
1176.35828,0.00448
1174.29811,0.00474
1172.23794,0.00486
1170.17777,0.00482
1168.11759,0.00484
1166.05742,0.00503
1163.99725,0.00529
1161.93708,0.00552
1159.87691,0.00572
1157.81673,0.00590
1155.75656,0.00612
1153.69639,0.00638
1151.63622,0.00656
1149.57605,0.00663
1147.51587,0.00684
1145.45570,0.00730
1143.39553,0.00778
1141.33536,0.00821
1139.27518,0.00860
1137.21501,0.00886
1135.15484,0.00912
1133.09467,0.00953
1131.03450,0.01005
1128.97432,0.01050
1126.91415,0.01091
1124.85398,0.01151
1122.79381,0.01224
1120.73364,0.01297
1118.67346,0.01365
1116.61329,0.01423
1114.55312,0.01476
1112.49295,0.01538
1110.43277,0.01600
1108.37260,0.01649
1106.31243,0.01695
1104.25226,0.01746
1102.19209,0.01801
1100.13191,0.01856
1098.07174,0.01902
1096.01157,0.01933
1093.95140,0.01965
1091.89123,0.02007
1089.83105,0.02052
1087.77088,0.02087
1085.71071,0.02111
1083.65054,0.02139
1081.59037,0.02179
1079.53019,0.02218
1077.47002,0.02251
1075.40985,0.02291
1073.34968,0.02335
1071.28950,0.02366
1069.22933,0.02382
1067.16916,0.02394
1065.10899,0.02409
1063.04882,0.02411
1060.98864,0.02393
1058.92847,0.02372
1056.86830,0.02352
1054.80813,0.02316
1052.74796,0.02262
1050.68778,0.02205
1048.62761,0.02147
1046.56744,0.02080
1044.50727,0.02008
1042.44710,0.01928
1040.38692,0.01845
1038.32675,0.01775
1036.26658,0.01716
1034.20641,0.01653
1032.14623,0.01578
1030.08606,0.01503
1028.02589,0.01431
1025.96572,0.01366
1023.90555,0.01324
1021.84537,0.01299
1019.78520,0.01270
1017.72503,0.01244
1015.66486,0.01229
1013.60469,0.01217
1011.54451,0.01207
1009.48434,0.01212
1007.42417,0.01247
1005.36400,0.01290
1003.30382,0.01324
1001.24365,0.01369
999.18348,0.01426
997.12331,0.01483
995.06314,0.01528
993.00296,0.01566
990.94279,0.01609
988.88262,0.01662
986.82245,0.01710
984.76228,0.01746
982.70210,0.01766
980.64193,0.01761
978.58176,0.01756
976.52159,0.01782
974.46142,0.01799
972.40124,0.01768
970.34107,0.01722
968.28090,0.01685
966.22073,0.01636
964.16055,0.01584
962.10038,0.01542
960.04021,0.01493
957.98004,0.01433
955.91987,0.01382
953.85969,0.01349
951.79952,0.01321
949.73935,0.01293
947.67918,0.01251
945.61901,0.01198
943.55883,0.01145
941.49866,0.01107
939.43849,0.01081
937.37832,0.01059
935.31814,0.01044
933.25797,0.01025
931.19780,0.00997
929.13763,0.00980
927.07746,0.00981
925.01728,0.00975
922.95711,0.00945
920.89694,0.00914
918.83677,0.00903
916.77660,0.00910
914.71642,0.00924
912.65625,0.00919
910.59608,0.00880
908.53591,0.00841
906.47574,0.00842
904.41556,0.00866
902.35539,0.00878
900.29522,0.00878
898.23505,0.00878
896.17487,0.00890
894.11470,0.00922
892.05453,0.00954
889.99436,0.00963
887.93419,0.00969
885.87401,0.01004
883.81384,0.01062
881.75367,0.01103
879.69350,0.01107
877.63333,0.01100
875.57315,0.01112
873.51298,0.01148
871.45281,0.01186
869.39264,0.01206
867.33247,0.01222
865.27229,0.01233
863.21212,0.01239
861.15195,0.01258
859.09178,0.01281
857.03160,0.01277
854.97143,0.01263
852.91126,0.01275
850.85109,0.01289
848.79092,0.01278
846.73074,0.01257
844.67057,0.01238
842.61040,0.01210
840.55023,0.01170
838.49006,0.01152
836.42988,0.01155
834.36971,0.01146
832.30954,0.01132
830.24937,0.01113
828.18919,0.01086
826.12902,0.01068
824.06885,0.01059
822.00868,0.01045
819.94851,0.01017
817.88833,0.00996
815.82816,0.00988
813.76799,0.00983
811.70782,0.00983
809.64765,0.00983
807.58747,0.00977
805.52730,0.00956
803.46713,0.00929
801.40696,0.00926
799.34679,0.00928
797.28661,0.00921
795.22644,0.00921
793.16627,0.00921
791.10610,0.00910
789.04592,0.00895
786.98575,0.00888
784.92558,0.00903
782.86541,0.00918
780.80524,0.00918
778.74506,0.00937
776.68489,0.00954
774.62472,0.00939
772.56455,0.00930
770.50438,0.00921
768.44420,0.00893
766.38403,0.00884
764.32386,0.00891
762.26369,0.00892
760.20352,0.00897
758.14334,0.00904
756.08317,0.00912
754.02300,0.00914
751.96283,0.00893
749.90265,0.00879
747.84248,0.00875
745.78231,0.00873
743.72214,0.00891
741.66197,0.00894
739.60179,0.00865
737.54162,0.00850
735.48145,0.00867
733.42128,0.00871
731.36111,0.00873
729.30093,0.00914
727.24076,0.00961
725.18059,0.00989
723.12042,0.00984
721.06024,0.01010
719.00007,0.00917
716.93990,0.00891
714.87973,0.00918
712.81956,0.00930
710.75938,0.00925
708.69921,0.00885
706.63904,0.00848
704.57887,0.00861
702.51870,0.00912
700.45852,0.00947
698.39835,0.00935
696.33818,0.00904
694.27801,0.00889
692.21784,0.00880
690.15766,0.00822
688.09749,0.00722
686.03732,0.00659
683.97715,0.00664
681.91697,0.00716
679.85680,0.00791
677.79663,0.00861
675.73646,0.00872
673.67629,0.00609
671.61611,0.00000
669.55594,0.00428
667.49577,0.01497
665.43560,0.00093
663.37543,0.00345
661.31525,0.00656
659.25508,0.00603
657.19491,0.00597
655.13474,0.00703
653.07457,0.00768
651.01439,0.00766
648.95422,0.00760
646.89405,0.00680
644.83388,0.00629
642.77370,0.00575
640.71353,0.00513
638.65336,0.00442
636.59319,0.00348
634.53302,0.00301
632.47284,0.00364
630.41267,0.00464
628.35250,0.00483
626.29233,0.00359
624.23216,0.00248
622.17198,0.00218
620.11181,0.00221
618.05164,0.00259
615.99147,0.00355
613.93129,0.00473
611.87112,0.00494
609.81095,0.00405
607.75078,0.00328
605.69061,0.00254
603.63043,0.00140
601.57026,0.00054
599.51009,0.00000
