3996.73391,0.00034
3994.67374,0.00051
3992.61357,0.00058
3990.55339,0.00067
3988.49322,0.00071
3986.43305,0.00057
3984.37288,0.00029
3982.31271,0.00004
3980.25253,0.00000
3978.19236,0.00008
3976.13219,0.00019
3974.07202,0.00027
3972.01184,0.00024
3969.95167,0.00023
3967.89150,0.00030
3965.83133,0.00035
3963.77116,0.00028
3961.71098,0.00014
3959.65081,0.00012
3957.59064,0.00026
3955.53047,0.00044
3953.47030,0.00053
3951.41012,0.00048
3949.34995,0.00033
3947.28978,0.00028
3945.22961,0.00052
3943.16943,0.00086
3941.10926,0.00102
3939.04909,0.00085
3936.98892,0.00052
3934.92875,0.00029
3932.86857,0.00027
3930.80840,0.00046
3928.74823,0.00073
3926.68806,0.00089
3924.62789,0.00087
3922.56771,0.00074
3920.50754,0.00054
3918.44737,0.00031
3916.38720,0.00032
3914.32703,0.00064
3912.26685,0.00102
3910.20668,0.00123
3908.14651,0.00126
3906.08634,0.00111
3904.02616,0.00079
3901.96599,0.00056
3899.90582,0.00057
3897.84565,0.00054
3895.78548,0.00048
3893.72530,0.00079
3891.66513,0.00134
3889.60496,0.00140
3887.54479,0.00095
3885.48462,0.00063
3883.42444,0.00070
3881.36427,0.00095
3879.30410,0.00109
3877.24393,0.00094
3875.18376,0.00069
3873.12358,0.00061
3871.06341,0.00082
3869.00324,0.00126
3866.94307,0.00161
3864.88289,0.00156
3862.82272,0.00112
3860.76255,0.00071
3858.70238,0.00043
3856.64221,0.00013
3854.58203,0.00013
3852.52186,0.00058
3850.46169,0.00089
3848.40152,0.00088
3846.34135,0.00092
3844.28117,0.00091
3842.22100,0.00059
3840.16083,0.00029
3838.10066,0.00047
3836.04048,0.00088
3833.98031,0.00103
3831.92014,0.00093
3829.85997,0.00077
3827.79980,0.00062
3825.73962,0.00051
3823.67945,0.00042
3821.61928,0.00046
3819.55911,0.00070
3817.49894,0.00096
3815.43876,0.00114
3813.37859,0.00111
3811.31842,0.00081
3809.25825,0.00056
3807.19808,0.00046
3805.13790,0.00041
3803.07773,0.00055
3801.01756,0.00102
3798.95739,0.00136
3796.89721,0.00138
3794.83704,0.00141
3792.77687,0.00140
3790.71670,0.00121
3788.65653,0.00102
3786.59635,0.00120
3784.53618,0.00181
3782.47601,0.00229
3780.41584,0.00220
3778.35567,0.00175
3776.29549,0.00141
3774.23532,0.00136
3772.17515,0.00149
3770.11498,0.00166
3768.05481,0.00171
3765.99463,0.00160
3763.93446,0.00142
3761.87429,0.00126
3759.81412,0.00122
3757.75394,0.00123
3755.69377,0.00105
3753.63360,0.00070
3751.57343,0.00050
3749.51326,0.00060
3747.45308,0.00070
3745.39291,0.00061
3743.33274,0.00053
3741.27257,0.00039
3739.21240,0.00015
3737.15222,0.00014
3735.09205,0.00060
3733.03188,0.00120
3730.97171,0.00143
3728.91153,0.00132
3726.85136,0.00127
3724.79119,0.00132
3722.73102,0.00136
3720.67085,0.00154
3718.61067,0.00167
3716.55050,0.00152
3714.49033,0.00104
3712.43016,0.00067
3710.36999,0.00087
3708.30981,0.00109
3706.24964,0.00106
3704.18947,0.00112
3702.12930,0.00138
3700.06913,0.00154
3698.00895,0.00155
3695.94878,0.00159
3693.88861,0.00156
3691.82844,0.00139
3689.76826,0.00110
3687.70809,0.00098
3685.64792,0.00113
3683.58775,0.00127
3681.52758,0.00126
3679.46740,0.00128
3677.40723,0.00145
3675.34706,0.00165
3673.28689,0.00161
3671.22672,0.00154
3669.16654,0.00176
3667.10637,0.00196
3665.04620,0.00196
3662.98603,0.00195
3660.92586,0.00180
3658.86568,0.00145
3656.80551,0.00130
3654.74534,0.00156
3652.68517,0.00201
3650.62499,0.00255
3648.56482,0.00299
3646.50465,0.00301
3644.44448,0.00250
3642.38431,0.00201
3640.32413,0.00205
3638.26396,0.00237
3636.20379,0.00255
3634.14362,0.00256
3632.08345,0.00254
3630.02327,0.00272
3627.96310,0.00325
3625.90293,0.00376
3623.84276,0.00399
3621.78258,0.00392
3619.72241,0.00372
3617.66224,0.00356
3615.60207,0.00329
3613.54190,0.00304
3611.48172,0.00299
3609.42155,0.00329
3607.36138,0.00380
3605.30121,0.00416
3603.24104,0.00434
3601.18086,0.00450
3599.12069,0.00486
3597.06052,0.00530
3595.00035,0.00563
3592.94018,0.00572
3590.88000,0.00566
3588.81983,0.00541
3586.75966,0.00516
3584.69949,0.00511
3582.63931,0.00529
3580.57914,0.00560
3578.51897,0.00589
3576.45880,0.00610
3574.39863,0.00623
3572.33845,0.00630
3570.27828,0.00634
3568.21811,0.00644
3566.15794,0.00659
3564.09777,0.00665
3562.03759,0.00661
3559.97742,0.00657
3557.91725,0.00657
3555.85708,0.00665
3553.79690,0.00694
3551.73673,0.00728
3549.67656,0.00732
3547.61639,0.00708
3545.55622,0.00701
3543.49604,0.00721
3541.43587,0.00739
3539.37570,0.00753
3537.31553,0.00773
3535.25536,0.00796
3533.19518,0.00818
3531.13501,0.00828
3529.07484,0.00828
3527.01467,0.00836
3524.95450,0.00850
3522.89432,0.00856
3520.83415,0.00860
3518.77398,0.00869
3516.71381,0.00868
3514.65363,0.00858
3512.59346,0.00869
3510.53329,0.00916
3508.47312,0.00965
3506.41295,0.00981
3504.35277,0.00983
3502.29260,0.00995
3500.23243,0.01009
3498.17226,0.01009
3496.11209,0.01009
3494.05191,0.01020
3491.99174,0.01022
3489.93157,0.01010
3487.87140,0.01021
3485.81123,0.01053
3483.75105,0.01075
3481.69088,0.01085
3479.63071,0.01085
3477.57054,0.01081
3475.51036,0.01092
3473.45019,0.01117
3471.39002,0.01138
3469.32985,0.01145
3467.26968,0.01149
3465.20950,0.01145
3463.14933,0.01141
3461.08916,0.01163
3459.02899,0.01195
3456.96882,0.01198
3454.90864,0.01183
3452.84847,0.01180
3450.78830,0.01192
3448.72813,0.01212
3446.66795,0.01232
3444.60778,0.01241
3442.54761,0.01244
3440.48744,0.01244
3438.42727,0.01255
3436.36709,0.01293
3434.30692,0.01316
3432.24675,0.01302
3430.18658,0.01294
3428.12641,0.01303
3426.06623,0.01322
3424.00606,0.01340
3421.94589,0.01343
3419.88572,0.01334
3417.82555,0.01335
3415.76537,0.01344
3413.70520,0.01350
3411.64503,0.01359
3409.58486,0.01370
3407.52468,0.01372
3405.46451,0.01373
3403.40434,0.01379
3401.34417,0.01385
3399.28400,0.01372
3397.22382,0.01381
3395.16365,0.01398
3393.10348,0.01425
3391.04331,0.01445
3388.98314,0.01435
3386.92296,0.01420
3384.86279,0.01433
3382.80262,0.01463
3380.74245,0.01476
3378.68228,0.01474
3376.62210,0.01481
3374.56193,0.01492
3372.50176,0.01490
3370.44159,0.01474
3368.38141,0.01461
3366.32124,0.01465
3364.26107,0.01479
3362.20090,0.01500
3360.14073,0.01521
3358.08055,0.01522
3356.02038,0.01524
3353.96021,0.01539
3351.90004,0.01545
3349.83987,0.01542
3347.77969,0.01543
3345.71952,0.01564
3343.65935,0.01586
3341.59918,0.01577
3339.53900,0.01556
3337.47883,0.01546
3335.41866,0.01553
3333.35849,0.01567
3331.29832,0.01569
3329.23814,0.01567
3327.17797,0.01580
3325.11780,0.01593
3323.05763,0.01591
3320.99746,0.01574
3318.93728,0.01553
3316.87711,0.01538
3314.81694,0.01523
3312.75677,0.01519
3310.69660,0.01539
3308.63642,0.01571
3306.57625,0.01598
3304.51608,0.01620
3302.45591,0.01631
3300.39573,0.01619
3298.33556,0.01606
3296.27539,0.01627
3294.21522,0.01653
3292.15505,0.01643
3290.09487,0.01624
3288.03470,0.01641
3285.97453,0.01676
3283.91436,0.01686
3281.85419,0.01675
3279.79401,0.01662
3277.73384,0.01645
3275.67367,0.01637
3273.61350,0.01647
3271.55333,0.01653
3269.49315,0.01644
3267.43298,0.01635
3265.37281,0.01639
3263.31264,0.01648
3261.25246,0.01646
3259.19229,0.01636
3257.13212,0.01632
3255.07195,0.01639
3253.01178,0.01654
3250.95160,0.01673
3248.89143,0.01689
3246.83126,0.01698
3244.77109,0.01704
3242.71092,0.01696
3240.65074,0.01676
3238.59057,0.01662
3236.53040,0.01666
3234.47023,0.01677
3232.41005,0.01688
3230.34988,0.01704
3228.28971,0.01711
3226.22954,0.01693
3224.16937,0.01673
3222.10919,0.01673
3220.04902,0.01680
3217.98885,0.01685
3215.92868,0.01688
3213.86851,0.01680
3211.80833,0.01661
3209.74816,0.01661
3207.68799,0.01678
3205.62782,0.01685
3203.56765,0.01682
3201.50747,0.01675
3199.44730,0.01659
3197.38713,0.01660
3195.32696,0.01695
3193.26678,0.01732
3191.20661,0.01742
3189.14644,0.01722
3187.08627,0.01693
3185.02610,0.01678
3182.96592,0.01679
3180.90575,0.01688
3178.84558,0.01694
3176.78541,0.01689
3174.72524,0.01683
3172.66506,0.01683
3170.60489,0.01673
3168.54472,0.01666
3166.48455,0.01670
3164.42437,0.01662
3162.36420,0.01645
3160.30403,0.01641
3158.24386,0.01635
3156.18369,0.01624
3154.12351,0.01633
3152.06334,0.01646
3150.00317,0.01648
3147.94300,0.01651
3145.88283,0.01664
3143.82265,0.01683
3141.76248,0.01689
3139.70231,0.01677
3137.64214,0.01659
3135.58197,0.01647
3133.52179,0.01639
3131.46162,0.01627
3129.40145,0.01612
3127.34128,0.01607
3125.28110,0.01611
3123.22093,0.01606
3121.16076,0.01597
3119.10059,0.01594
3117.04042,0.01598
3114.98024,0.01602
3112.92007,0.01596
3110.85990,0.01575
3108.79973,0.01553
3106.73956,0.01553
3104.67938,0.01563
3102.61921,0.01562
3100.55904,0.01558
3098.49887,0.01556
3096.43870,0.01561
3094.37852,0.01574
3092.31835,0.01576
3090.25818,0.01555
3088.19801,0.01530
3086.13783,0.01512
3084.07766,0.01506
3082.01749,0.01521
3079.95732,0.01536
3077.89715,0.01531
3075.83697,0.01517
3073.77680,0.01499
3071.71663,0.01480
3069.65646,0.01466
3067.59629,0.01457
3065.53611,0.01457
3063.47594,0.01466
3061.41577,0.01476
3059.35560,0.01487
3057.29542,0.01491
3055.23525,0.01480
3053.17508,0.01468
3051.11491,0.01457
3049.05474,0.01441
3046.99456,0.01428
3044.93439,0.01424
3042.87422,0.01424
3040.81405,0.01422
3038.75388,0.01407
3036.69370,0.01385
3034.63353,0.01381
3032.57336,0.01395
3030.51319,0.01400
3028.45302,0.01394
3026.39284,0.01391
3024.33267,0.01387
3022.27250,0.01381
3020.21233,0.01373
3018.15215,0.01348
3016.09198,0.01322
3014.03181,0.01322
3011.97164,0.01335
3009.91147,0.01338
3007.85129,0.01317
3005.79112,0.01291
3003.73095,0.01281
3001.67078,0.01278
2999.61061,0.01275
2997.55043,0.01278
2995.49026,0.01280
2993.43009,0.01269
2991.36992,0.01267
2989.30975,0.01282
2987.24957,0.01284
2985.18940,0.01265
2983.12923,0.01257
2981.06906,0.01270
2979.00888,0.01273
2976.94871,0.01255
2974.88854,0.01237
2972.82837,0.01222
2970.76820,0.01214
2968.70802,0.01224
2966.64785,0.01239
2964.58768,0.01248
2962.52751,0.01235
2960.46734,0.01210
2958.40716,0.01198
2956.34699,0.01197
2954.28682,0.01199
2952.22665,0.01199
2950.16647,0.01195
2948.10630,0.01195
2946.04613,0.01199
2943.98596,0.01212
2941.92579,0.01228
2939.86561,0.01223
2937.80544,0.01200
2935.74527,0.01179
2933.68510,0.01173
2931.62493,0.01177
2929.56475,0.01168
2927.50458,0.01153
2925.44441,0.01146
2923.38424,0.01151
2921.32407,0.01163
2919.26389,0.01167
2917.20372,0.01161
2915.14355,0.01152
2913.08338,0.01138
2911.02320,0.01125
2908.96303,0.01123
2906.90286,0.01128
2904.84269,0.01121
2902.78252,0.01098
2900.72234,0.01077
2898.66217,0.01068
2896.60200,0.01072
2894.54183,0.01072
2892.48166,0.01050
2890.42148,0.01028
2888.36131,0.01031
2886.30114,0.01041
2884.24097,0.01052
2882.18080,0.01065
2880.12062,0.01059
2878.06045,0.01040
2876.00028,0.01034
2873.94011,0.01038
2871.87993,0.01038
2869.81976,0.01026
2867.75959,0.01000
2865.69942,0.00972
2863.63925,0.00969
2861.57907,0.00991
2859.51890,0.01007
2857.45873,0.01001
2855.39856,0.00987
2853.33839,0.00978
2851.27821,0.00967
2849.21804,0.00962
2847.15787,0.00967
2845.09770,0.00962
2843.03752,0.00948
2840.97735,0.00945
2838.91718,0.00944
2836.85701,0.00928
2834.79684,0.00911
2832.73666,0.00901
2830.67649,0.00897
2828.61632,0.00895
2826.55615,0.00899
2824.49598,0.00909
2822.43580,0.00909
2820.37563,0.00896
2818.31546,0.00880
2816.25529,0.00863
2814.19512,0.00854
2812.13494,0.00856
2810.07477,0.00860
2808.01460,0.00861
2805.95443,0.00859
2803.89425,0.00850
2801.83408,0.00836
2799.77391,0.00827
2797.71374,0.00823
2795.65357,0.00827
2793.59339,0.00834
2791.53322,0.00834
2789.47305,0.00827
2787.41288,0.00819
2785.35271,0.00812
2783.29253,0.00803
2781.23236,0.00790
2779.17219,0.00783
2777.11202,0.00777
2775.05184,0.00766
2772.99167,0.00760
2770.93150,0.00762
2768.87133,0.00766
2766.81116,0.00767
2764.75098,0.00764
2762.69081,0.00759
2760.63064,0.00752
2758.57047,0.00749
2756.51030,0.00760
2754.45012,0.00773
2752.38995,0.00766
2750.32978,0.00752
2748.26961,0.00746
2746.20944,0.00742
2744.14926,0.00739
2742.08909,0.00738
2740.02892,0.00735
2737.96875,0.00733
2735.90857,0.00730
2733.84840,0.00717
2731.78823,0.00702
2729.72806,0.00698
2727.66789,0.00697
2725.60771,0.00683
2723.54754,0.00666
2721.48737,0.00658
2719.42720,0.00660
2717.36703,0.00667
2715.30685,0.00666
2713.24668,0.00655
2711.18651,0.00650
2709.12634,0.00656
2707.06617,0.00664
2705.00599,0.00666
2702.94582,0.00655
2700.88565,0.00647
2698.82548,0.00643
2696.76530,0.00630
2694.70513,0.00622
2692.64496,0.00629
2690.58479,0.00632
2688.52462,0.00628
2686.46444,0.00625
2684.40427,0.00624
2682.34410,0.00628
2680.28393,0.00630
2678.22376,0.00626
2676.16358,0.00620
2674.10341,0.00614
2672.04324,0.00601
2669.98307,0.00592
2667.92289,0.00599
2665.86272,0.00604
2663.80255,0.00599
2661.74238,0.00598
2659.68221,0.00598
2657.62203,0.00594
2655.56186,0.00599
2653.50169,0.00605
2651.44152,0.00596
2649.38135,0.00580
2647.32117,0.00571
2645.26100,0.00573
2643.20083,0.00574
2641.14066,0.00558
2639.08049,0.00541
2637.02031,0.00536
2634.96014,0.00538
2632.89997,0.00547
2630.83980,0.00548
2628.77962,0.00538
2626.71945,0.00537
2624.65928,0.00544
2622.59911,0.00532
2620.53894,0.00499
2618.47876,0.00474
2616.41859,0.00478
2614.35842,0.00500
2612.29825,0.00514
2610.23808,0.00521
2608.17790,0.00523
2606.11773,0.00519
2604.05756,0.00503
2601.99739,0.00481
2599.93722,0.00467
2597.87704,0.00466
2595.81687,0.00482
2593.75670,0.00497
2591.69653,0.00490
2589.63635,0.00478
2587.57618,0.00471
2585.51601,0.00461
2583.45584,0.00452
2581.39567,0.00461
2579.33549,0.00475
2577.27532,0.00483
2575.21515,0.00479
2573.15498,0.00454
2571.09481,0.00427
2569.03463,0.00421
2566.97446,0.00427
2564.91429,0.00442
2562.85412,0.00457
2560.79394,0.00464
2558.73377,0.00471
2556.67360,0.00472
2554.61343,0.00463
2552.55326,0.00462
2550.49308,0.00474
2548.43291,0.00480
2546.37274,0.00466
2544.31257,0.00435
2542.25240,0.00410
2540.19222,0.00409
2538.13205,0.00415
2536.07188,0.00413
2534.01171,0.00401
2531.95154,0.00394
2529.89136,0.00398
2527.83119,0.00406
2525.77102,0.00432
2523.71085,0.00463
2521.65067,0.00464
2519.59050,0.00446
2517.53033,0.00438
2515.47016,0.00454
2513.40999,0.00492
2511.34981,0.00508
2509.28964,0.00481
2507.22947,0.00449
2505.16930,0.00444
2503.10913,0.00450
2501.04895,0.00442
2498.98878,0.00428
2496.92861,0.00429
2494.86844,0.00423
2492.80827,0.00402
2490.74809,0.00399
2488.68792,0.00423
2486.62775,0.00459
2484.56758,0.00486
2482.50740,0.00484
2480.44723,0.00469
2478.38706,0.00455
2476.32689,0.00447
2474.26672,0.00452
2472.20654,0.00460
2470.14637,0.00475
2468.08620,0.00497
2466.02603,0.00502
2463.96586,0.00500
2461.90568,0.00507
2459.84551,0.00509
2457.78534,0.00503
2455.72517,0.00492
2453.66499,0.00484
2451.60482,0.00487
2449.54465,0.00470
2447.48448,0.00425
2445.42431,0.00403
2443.36413,0.00413
2441.30396,0.00429
2439.24379,0.00438
2437.18362,0.00451
2435.12345,0.00469
2433.06327,0.00468
2431.00310,0.00444
2428.94293,0.00430
2426.88276,0.00441
2424.82259,0.00450
2422.76241,0.00441
2420.70224,0.00430
2418.64207,0.00444
2416.58190,0.00470
2414.52172,0.00476
2412.46155,0.00467
2410.40138,0.00464
2408.34121,0.00474
2406.28104,0.00482
2404.22086,0.00470
2402.16069,0.00450
2400.10052,0.00443
2398.04035,0.00396
2395.98018,0.00394
2393.92000,0.00425
2391.85983,0.00466
2389.79966,0.00502
2387.73949,0.00532
2385.67931,0.00560
2383.61914,0.00570
2381.55897,0.00540
2379.49880,0.00484
2377.43863,0.00443
2375.37845,0.00408
2373.31828,0.00424
2371.25811,0.00480
2369.19794,0.00507
2367.13777,0.00581
2365.07759,0.00742
2363.01742,0.00814
2360.95725,0.00944
2358.89708,0.00883
2356.83691,0.00753
2354.77673,0.00672
2352.71656,0.00677
2350.65639,0.00951
2348.59622,0.01101
2346.53604,0.00662
2344.47587,0.00544
2342.41570,0.00662
2340.35553,0.00776
2338.29536,0.00849
2336.23518,0.00840
2334.17501,0.00797
2332.11484,0.00703
2330.05467,0.00668
2327.99450,0.00693
2325.93432,0.00806
2323.87415,0.00776
2321.81398,0.00713
2319.75381,0.00646
2317.69364,0.00680
2315.63346,0.00647
2313.57329,0.00561
2311.51312,0.00520
2309.45295,0.00511
2307.39277,0.00505
2305.33260,0.00489
2303.27243,0.00476
2301.21226,0.00456
2299.15209,0.00470
2297.09191,0.00518
2295.03174,0.00570
2292.97157,0.00603
2290.91140,0.00607
2288.85123,0.00588
2286.79105,0.00560
2284.73088,0.00525
2282.67071,0.00482
2280.61054,0.00446
2278.55036,0.00443
2276.49019,0.00444
2274.43002,0.00431
2272.36985,0.00432
2270.30968,0.00462
2268.24950,0.00479
2266.18933,0.00462
2264.12916,0.00441
2262.06899,0.00445
2260.00882,0.00447
2257.94864,0.00434
2255.88847,0.00418
2253.82830,0.00407
2251.76813,0.00400
2249.70796,0.00396
2247.64778,0.00419
2245.58761,0.00419
2243.52744,0.00382
2241.46727,0.00342
2239.40709,0.00335
2237.34692,0.00362
2235.28675,0.00380
2233.22658,0.00338
2231.16641,0.00300
2229.10623,0.00347
2227.04606,0.00404
2224.98589,0.00394
2222.92572,0.00350
2220.86555,0.00312
2218.80537,0.00289
2216.74520,0.00321
2214.68503,0.00403
2212.62486,0.00414
2210.56469,0.00316
2208.50451,0.00242
2206.44434,0.00247
2204.38417,0.00265
2202.32400,0.00288
2200.26382,0.00302
2198.20365,0.00284
2196.14348,0.00271
2194.08331,0.00292
2192.02314,0.00329
2189.96296,0.00346
2187.90279,0.00337
2185.84262,0.00315
2183.78245,0.00307
2181.72228,0.00314
2179.66210,0.00342
2177.60193,0.00328
2175.54176,0.00262
2173.48159,0.00278
2171.42141,0.00376
2169.36124,0.00440
2167.30107,0.00433
2165.24090,0.00368
2163.18073,0.00313
2161.12055,0.00246
2159.06038,0.00097
2157.00021,0.00028
2154.94004,0.00092
2152.87987,0.00147
2150.81969,0.00168
2148.75952,0.00192
2146.69935,0.00251
2144.63918,0.00307
2142.57901,0.00280
2140.51883,0.00203
2138.45866,0.00146
2136.39849,0.00146
2134.33832,0.00186
2132.27814,0.00195
2130.21797,0.00176
2128.15780,0.00165
2126.09763,0.00158
2124.03746,0.00154
2121.97728,0.00147
2119.91711,0.00153
2117.85694,0.00166
2115.79677,0.00170
2113.73660,0.00205
2111.67642,0.00286
2109.61625,0.00331
2107.55608,0.00322
2105.49591,0.00304
2103.43573,0.00283
2101.37556,0.00276
2099.31539,0.00306
2097.25522,0.00292
2095.19505,0.00248
2093.13487,0.00216
2091.07470,0.00204
2089.01453,0.00221
2086.95436,0.00257
2084.89419,0.00266
2082.83401,0.00251
2080.77384,0.00245
2078.71367,0.00255
2076.65350,0.00255
2074.59333,0.00227
2072.53315,0.00184
2070.47298,0.00180
2068.41281,0.00231
2066.35264,0.00269
2064.29246,0.00276
2062.23229,0.00284
2060.17212,0.00286
2058.11195,0.00271
2056.05178,0.00240
2053.99160,0.00211
2051.93143,0.00236
2049.87126,0.00284
2047.81109,0.00265
2045.75092,0.00224
2043.69074,0.00216
2041.63057,0.00195
2039.57040,0.00159
2037.51023,0.00147
2035.45006,0.00180
2033.38988,0.00262
2031.32971,0.00324
2029.26954,0.00297
2027.20937,0.00218
2025.14919,0.00151
2023.08902,0.00102
2021.02885,0.00066
2018.96868,0.00097
2016.90851,0.00172
2014.84833,0.00229
2012.78816,0.00277
2010.72799,0.00305
2008.66782,0.00287
2006.60765,0.00277
2004.54747,0.00321
2002.48730,0.00327
2000.42713,0.00214
1998.36696,0.00114
1996.30678,0.00128
1994.24661,0.00129
1992.18644,0.00057
1990.12627,0.00030
1988.06610,0.00107
1986.00592,0.00214
1983.94575,0.00275
1981.88558,0.00345
1979.82541,0.00443
1977.76524,0.00446
1975.70506,0.00390
1973.64489,0.00346
1971.58472,0.00256
1969.52455,0.00184
1967.46438,0.00225
1965.40420,0.00271
1963.34403,0.00225
1961.28386,0.00149
1959.22369,0.00088
1957.16351,0.00063
1955.10334,0.00108
1953.04317,0.00177
1950.98300,0.00187
1948.92283,0.00136
1946.86265,0.00067
1944.80248,0.00030
1942.74231,0.00059
1940.68214,0.00117
1938.62197,0.00139
1936.56179,0.00131
1934.50162,0.00157
1932.44145,0.00209
1930.38128,0.00219
1928.32111,0.00179
1926.26093,0.00148
1924.20076,0.00160
1922.14059,0.00174
1920.08042,0.00142
1918.02024,0.00095
1915.96007,0.00081
1913.89990,0.00094
1911.83973,0.00109
1909.77956,0.00114
1907.71938,0.00107
1905.65921,0.00090
1903.59904,0.00080
1901.53887,0.00085
1899.47870,0.00097
1897.41852,0.00114
1895.35835,0.00132
1893.29818,0.00130
1891.23801,0.00124
1889.17783,0.00129
1887.11766,0.00155
1885.05749,0.00192
1882.99732,0.00199
1880.93715,0.00165
1878.87697,0.00145
1876.81680,0.00161
1874.75663,0.00167
1872.69646,0.00137
1870.63629,0.00108
1868.57611,0.00108
1866.51594,0.00108
1864.45577,0.00109
1862.39560,0.00123
1860.33543,0.00130
1858.27525,0.00124
1856.21508,0.00135
1854.15491,0.00160
1852.09474,0.00162
1850.03456,0.00138
1847.97439,0.00121
1845.91422,0.00120
1843.85405,0.00126
1841.79388,0.00136
1839.73370,0.00148
1837.67353,0.00156
1835.61336,0.00158
1833.55319,0.00167
1831.49302,0.00183
1829.43284,0.00186
1827.37267,0.00172
1825.31250,0.00167
1823.25233,0.00171
1821.19216,0.00157
1819.13198,0.00127
1817.07181,0.00113
1815.01164,0.00126
1812.95147,0.00139
1810.89129,0.00139
1808.83112,0.00136
1806.77095,0.00128
1804.71078,0.00110
1802.65061,0.00093
1800.59043,0.00103
1798.53026,0.00131
1796.47009,0.00148
1794.40992,0.00151
1792.34975,0.00145
1790.28957,0.00137
1788.22940,0.00132
1786.16923,0.00128
1784.10906,0.00131
1782.04888,0.00141
1779.98871,0.00141
1777.92854,0.00135
1775.86837,0.00143
1773.80820,0.00164
1771.74802,0.00170
1769.68785,0.00149
1767.62768,0.00129
1765.56751,0.00119
1763.50734,0.00119
1761.44716,0.00139
1759.38699,0.00168
1757.32682,0.00184
1755.26665,0.00188
1753.20648,0.00198
1751.14630,0.00209
1749.08613,0.00199
1747.02596,0.00182
1744.96579,0.00181
1742.90561,0.00181
1740.84544,0.00178
1738.78527,0.00175
1736.72510,0.00168
1734.66493,0.00168
1732.60475,0.00184
1730.54458,0.00200
1728.48441,0.00204
1726.42424,0.00211
1724.36407,0.00220
1722.30389,0.00215
1720.24372,0.00205
1718.18355,0.00218
1716.12338,0.00245
1714.06320,0.00254
1712.00303,0.00236
1709.94286,0.00223
1707.88269,0.00234
1705.82252,0.00258
1703.76234,0.00268
1701.70217,0.00273
1699.64200,0.00287
1697.58183,0.00305
1695.52166,0.00322
1693.46148,0.00334
1691.40131,0.00341
1689.34114,0.00352
1687.28097,0.00368
1685.22080,0.00400
1683.16062,0.00435
1681.10045,0.00458
1679.04028,0.00476
1676.98011,0.00503
1674.91993,0.00543
1672.85976,0.00587
1670.79959,0.00624
1668.73942,0.00645
1666.67925,0.00638
1664.61907,0.00622
1662.55890,0.00611
1660.49873,0.00601
1658.43856,0.00603
1656.37839,0.00631
1654.31821,0.00678
1652.25804,0.00694
1650.19787,0.00675
1648.13770,0.00655
1646.07753,0.00652
1644.01735,0.00653
1641.95718,0.00650
1639.89701,0.00657
1637.83684,0.00685
1635.77666,0.00704
1633.71649,0.00682
1631.65632,0.00645
1629.59615,0.00629
1627.53598,0.00631
1625.47580,0.00632
1623.41563,0.00623
1621.35546,0.00601
1619.29529,0.00589
1617.23512,0.00596
1615.17494,0.00590
1613.11477,0.00569
1611.05460,0.00560
1608.99443,0.00566
1606.93425,0.00570
1604.87408,0.00567
1602.81391,0.00555
1600.75374,0.00537
1598.69357,0.00523
1596.63339,0.00520
1594.57322,0.00520
1592.51305,0.00510
1590.45288,0.00492
1588.39271,0.00474
1586.33253,0.00456
1584.27236,0.00438
1582.21219,0.00425
1580.15202,0.00420
1578.09185,0.00415
1576.03167,0.00403
1573.97150,0.00386
1571.91133,0.00382
1569.85116,0.00390
1567.79098,0.00384
1565.73081,0.00361
1563.67064,0.00348
1561.61047,0.00369
1559.55030,0.00400
1557.49012,0.00372
1555.42995,0.00316
1553.36978,0.00286
1551.30961,0.00277
1549.24944,0.00266
1547.18926,0.00259
1545.12909,0.00267
1543.06892,0.00279
1541.00875,0.00279
1538.94858,0.00256
1536.88840,0.00231
1534.82823,0.00238
1532.76806,0.00260
1530.70789,0.00250
1528.64771,0.00224
1526.58754,0.00207
1524.52737,0.00200
1522.46720,0.00196
1520.40703,0.00188
1518.34685,0.00191
1516.28668,0.00196
1514.22651,0.00181
1512.16634,0.00153
1510.10617,0.00140
1508.04599,0.00150
1505.98582,0.00158
1503.92565,0.00146
1501.86548,0.00138
1499.80530,0.00159
1497.74513,0.00184
1495.68496,0.00178
1493.62479,0.00156
1491.56462,0.00152
1489.50444,0.00166
1487.44427,0.00178
1485.38410,0.00170
1483.32393,0.00150
1481.26376,0.00137
1479.20358,0.00138
1477.14341,0.00151
1475.08324,0.00159
1473.02307,0.00154
1470.96290,0.00143
1468.90272,0.00142
1466.84255,0.00154
1464.78238,0.00168
1462.72221,0.00171
1460.66203,0.00172
1458.60186,0.00177
1456.54169,0.00170
1454.48152,0.00155
1452.42135,0.00153
1450.36117,0.00168
1448.30100,0.00178
1446.24083,0.00168
1444.18066,0.00152
1442.12049,0.00153
1440.06031,0.00170
1438.00014,0.00187
1435.93997,0.00191
1433.87980,0.00187
1431.81963,0.00184
1429.75945,0.00184
1427.69928,0.00180
1425.63911,0.00185
1423.57894,0.00201
1421.51876,0.00213
1419.45859,0.00211
1417.39842,0.00204
1415.33825,0.00201
1413.27808,0.00202
1411.21790,0.00204
1409.15773,0.00207
1407.09756,0.00208
1405.03739,0.00200
1402.97722,0.00190
1400.91704,0.00191
1398.85687,0.00191
1396.79670,0.00183
1394.73653,0.00179
1392.67635,0.00173
1390.61618,0.00166
1388.55601,0.00166
1386.49584,0.00170
1384.43567,0.00169
1382.37549,0.00168
1380.31532,0.00168
1378.25515,0.00167
1376.19498,0.00171
1374.13481,0.00178
1372.07463,0.00179
1370.01446,0.00172
1367.95429,0.00165
1365.89412,0.00158
1363.83395,0.00148
1361.77377,0.00140
1359.71360,0.00145
1357.65343,0.00160
1355.59326,0.00168
1353.53308,0.00166
1351.47291,0.00163
1349.41274,0.00162
1347.35257,0.00159
1345.29240,0.00151
1343.23222,0.00141
1341.17205,0.00132
1339.11188,0.00125
1337.05171,0.00129
1334.99154,0.00144
1332.93136,0.00155
1330.87119,0.00150
1328.81102,0.00136
1326.75085,0.00127
1324.69067,0.00127
1322.63050,0.00135
1320.57033,0.00142
1318.51016,0.00143
1316.44999,0.00139
1314.38981,0.00134
1312.32964,0.00134
1310.26947,0.00142
1308.20930,0.00151
1306.14913,0.00155
1304.08895,0.00160
1302.02878,0.00164
1299.96861,0.00167
1297.90844,0.00172
1295.84827,0.00184
1293.78809,0.00193
1291.72792,0.00192
1289.66775,0.00186
1287.60758,0.00178
1285.54740,0.00171
1283.48723,0.00175
1281.42706,0.00185
1279.36689,0.00190
1277.30672,0.00199
1275.24654,0.00213
1273.18637,0.00217
1271.12620,0.00206
1269.06603,0.00190
1267.00586,0.00176
1264.94568,0.00174
1262.88551,0.00186
1260.82534,0.00202
1258.76517,0.00209
1256.70500,0.00212
1254.64482,0.00218
1252.58465,0.00227
1250.52448,0.00228
1248.46431,0.00215
1246.40413,0.00200
1244.34396,0.00186
1242.28379,0.00175
1240.22362,0.00172
1238.16345,0.00173
1236.10327,0.00170
1234.04310,0.00170
1231.98293,0.00172
1229.92276,0.00171
1227.86259,0.00165
1225.80241,0.00156
1223.74224,0.00142
1221.68207,0.00126
1219.62190,0.00114
1217.56172,0.00104
1215.50155,0.00099
1213.44138,0.00095
1211.38121,0.00080
1209.32104,0.00060
1207.26086,0.00050
1205.20069,0.00049
1203.14052,0.00045
1201.08035,0.00037
1199.02018,0.00038
1196.96000,0.00051
1194.89983,0.00064
1192.83966,0.00070
1190.77949,0.00066
1188.71932,0.00057
1186.65914,0.00054
1184.59897,0.00059
1182.53880,0.00060
1180.47863,0.00058
1178.41845,0.00071
1176.35828,0.00100
1174.29811,0.00133
1172.23794,0.00149
1170.17777,0.00153
1168.11759,0.00160
1166.05742,0.00174
1163.99725,0.00193
1161.93708,0.00215
1159.87691,0.00238
1157.81673,0.00257
1155.75656,0.00276
1153.69639,0.00302
1151.63622,0.00331
1149.57605,0.00359
1147.51587,0.00392
1145.45570,0.00426
1143.39553,0.00464
1141.33536,0.00510
1139.27518,0.00555
1137.21501,0.00594
1135.15484,0.00642
1133.09467,0.00704
1131.03450,0.00764
1128.97432,0.00810
1126.91415,0.00861
1124.85398,0.00924
1122.79381,0.00988
1120.73364,0.01059
1118.67346,0.01135
1116.61329,0.01204
1114.55312,0.01269
1112.49295,0.01338
1110.43277,0.01403
1108.37260,0.01463
1106.31243,0.01519
1104.25226,0.01576
1102.19209,0.01636
1100.13191,0.01693
1098.07174,0.01743
1096.01157,0.01784
1093.95140,0.01819
1091.89123,0.01860
1089.83105,0.01910
1087.77088,0.01954
1085.71071,0.01982
1083.65054,0.02008
1081.59037,0.02056
1079.53019,0.02117
1077.47002,0.02156
1075.40985,0.02178
1073.34968,0.02208
1071.28950,0.02243
1069.22933,0.02266
1067.16916,0.02280
1065.10899,0.02292
1063.04882,0.02288
1060.98864,0.02269
1058.92847,0.02249
1056.86830,0.02225
1054.80813,0.02191
1052.74796,0.02139
1050.68778,0.02070
1048.62761,0.01996
1046.56744,0.01913
1044.50727,0.01826
1042.44710,0.01741
1040.38692,0.01650
1038.32675,0.01566
1036.26658,0.01497
1034.20641,0.01425
1032.14623,0.01334
1030.08606,0.01244
1028.02589,0.01175
1025.96572,0.01116
1023.90555,0.01060
1021.84537,0.01013
1019.78520,0.00979
1017.72503,0.00959
1015.66486,0.00941
1013.60469,0.00920
1011.54451,0.00902
1009.48434,0.00894
1007.42417,0.00915
1005.36400,0.00960
1003.30382,0.01011
1001.24365,0.01075
999.18348,0.01150
997.12331,0.01206
995.06314,0.01246
993.00296,0.01296
990.94279,0.01360
988.88262,0.01410
986.82245,0.01436
984.76228,0.01453
982.70210,0.01479
980.64193,0.01507
978.58176,0.01520
976.52159,0.01516
974.46142,0.01500
972.40124,0.01477
970.34107,0.01453
968.28090,0.01432
966.22073,0.01389
964.16055,0.01315
962.10038,0.01247
960.04021,0.01198
957.98004,0.01148
955.91987,0.01087
953.85969,0.01023
951.79952,0.00964
949.73935,0.00920
947.67918,0.00887
945.61901,0.00841
943.55883,0.00777
941.49866,0.00735
939.43849,0.00728
937.37832,0.00710
935.31814,0.00668
933.25797,0.00624
931.19780,0.00593
929.13763,0.00584
927.07746,0.00576
925.01728,0.00541
922.95711,0.00496
920.89694,0.00481
918.83677,0.00496
916.77660,0.00510
914.71642,0.00507
912.65625,0.00490
910.59608,0.00460
908.53591,0.00433
906.47574,0.00434
904.41556,0.00448
902.35539,0.00461
900.29522,0.00460
898.23505,0.00440
896.17487,0.00430
894.11470,0.00457
892.05453,0.00487
889.99436,0.00498
887.93419,0.00527
885.87401,0.00579
883.81384,0.00628
881.75367,0.00657
879.69350,0.00659
877.63333,0.00667
875.57315,0.00708
873.51298,0.00761
871.45281,0.00810
869.39264,0.00844
867.33247,0.00852
865.27229,0.00852
863.21212,0.00863
861.15195,0.00889
859.09178,0.00906
857.03160,0.00888
854.97143,0.00867
852.91126,0.00872
850.85109,0.00874
848.79092,0.00863
846.73074,0.00853
844.67057,0.00842
842.61040,0.00828
840.55023,0.00803
838.49006,0.00777
836.42988,0.00761
834.36971,0.00739
832.30954,0.00712
830.24937,0.00680
828.18919,0.00652
826.12902,0.00639
824.06885,0.00618
822.00868,0.00595
819.94851,0.00593
817.88833,0.00586
815.82816,0.00551
813.76799,0.00516
811.70782,0.00508
809.64765,0.00504
807.58747,0.00490
805.52730,0.00463
803.46713,0.00439
801.40696,0.00447
799.34679,0.00439
797.28661,0.00397
795.22644,0.00388
793.16627,0.00418
791.10610,0.00438
789.04592,0.00431
786.98575,0.00422
784.92558,0.00431
782.86541,0.00451
780.80524,0.00454
778.74506,0.00431
776.68489,0.00403
774.62472,0.00398
772.56455,0.00419
770.50438,0.00446
768.44420,0.00461
766.38403,0.00444
764.32386,0.00394
762.26369,0.00378
760.20352,0.00421
758.14334,0.00446
756.08317,0.00418
754.02300,0.00390
751.96283,0.00383
749.90265,0.00376
747.84248,0.00353
745.78231,0.00348
743.72214,0.00387
741.66197,0.00397
739.60179,0.00360
737.54162,0.00361
735.48145,0.00386
733.42128,0.00359
731.36111,0.00323
729.30093,0.00344
727.24076,0.00363
725.18059,0.00353
723.12042,0.00417
721.06024,0.00376
719.00007,0.00377
716.93990,0.00401
714.87973,0.00418
712.81956,0.00427
710.75938,0.00415
708.69921,0.00403
706.63904,0.00402
704.57887,0.00404
702.51870,0.00422
700.45852,0.00474
698.39835,0.00545
696.33818,0.00604
694.27801,0.00641
692.21784,0.00656
690.15766,0.00630
688.09749,0.00591
686.03732,0.00615
683.97715,0.00697
681.91697,0.00754
679.85680,0.00768
677.79663,0.00764
675.73646,0.00725
673.67629,0.00744
671.61611,0.00855
669.55594,0.00448
667.49577,0.00041
665.43560,0.00934
663.37543,0.00877
661.31525,0.00577
659.25508,0.00442
657.19491,0.00498
655.13474,0.00612
653.07457,0.00636
651.01439,0.00579
648.95422,0.00513
646.89405,0.00533
644.83388,0.00533
642.77370,0.00453
640.71353,0.00345
638.65336,0.00275
636.59319,0.00234
634.53302,0.00220
632.47284,0.00233
630.41267,0.00217
628.35250,0.00160
626.29233,0.00139
624.23216,0.00150
622.17198,0.00153
620.11181,0.00208
618.05164,0.00263
615.99147,0.00236
613.93129,0.00199
611.87112,0.00124
609.81095,0.00024
607.75078,0.00000
605.69061,0.00013
603.63043,0.00036
601.57026,0.00055
599.51009,0.00000
