3996.73391,0.00020
3994.67374,0.00049
3992.61357,0.00070
3990.55339,0.00082
3988.49322,0.00086
3986.43305,0.00077
3984.37288,0.00049
3982.31271,0.00013
3980.25253,0.00000
3978.19236,0.00012
3976.13219,0.00031
3974.07202,0.00047
3972.01184,0.00050
3969.95167,0.00037
3967.89150,0.00024
3965.83133,0.00023
3963.77116,0.00032
3961.71098,0.00039
3959.65081,0.00031
3957.59064,0.00023
3955.53047,0.00037
3953.47030,0.00067
3951.41012,0.00085
3949.34995,0.00087
3947.28978,0.00090
3945.22961,0.00110
3943.16943,0.00126
3941.10926,0.00111
3939.04909,0.00078
3936.98892,0.00058
3934.92875,0.00053
3932.86857,0.00051
3930.80840,0.00049
3928.74823,0.00055
3926.68806,0.00059
3924.62789,0.00049
3922.56771,0.00037
3920.50754,0.00038
3918.44737,0.00047
3916.38720,0.00070
3914.32703,0.00100
3912.26685,0.00120
3910.20668,0.00121
3908.14651,0.00105
3906.08634,0.00073
3904.02616,0.00035
3901.96599,0.00024
3899.90582,0.00050
3897.84565,0.00066
3895.78548,0.00062
3893.72530,0.00075
3891.66513,0.00107
3889.60496,0.00100
3887.54479,0.00056
3885.48462,0.00038
3883.42444,0.00060
3881.36427,0.00079
3879.30410,0.00079
3877.24393,0.00071
3875.18376,0.00068
3873.12358,0.00083
3871.06341,0.00115
3869.00324,0.00137
3866.94307,0.00137
3864.88289,0.00124
3862.82272,0.00100
3860.76255,0.00065
3858.70238,0.00026
3856.64221,0.00002
3854.58203,0.00049
3852.52186,0.00147
3850.46169,0.00171
3848.40152,0.00128
3846.34135,0.00100
3844.28117,0.00092
3842.22100,0.00075
3840.16083,0.00055
3838.10066,0.00051
3836.04048,0.00059
3833.98031,0.00064
3831.92014,0.00061
3829.85997,0.00052
3827.79980,0.00045
3825.73962,0.00047
3823.67945,0.00047
3821.61928,0.00062
3819.55911,0.00092
3817.49894,0.00112
3815.43876,0.00124
3813.37859,0.00110
3811.31842,0.00076
3809.25825,0.00073
3807.19808,0.00096
3805.13790,0.00095
3803.07773,0.00088
3801.01756,0.00115
3798.95739,0.00132
3796.89721,0.00119
3794.83704,0.00110
3792.77687,0.00107
3790.71670,0.00102
3788.65653,0.00104
3786.59635,0.00124
3784.53618,0.00156
3782.47601,0.00177
3780.41584,0.00186
3778.35567,0.00178
3776.29549,0.00151
3774.23532,0.00128
3772.17515,0.00127
3770.11498,0.00140
3768.05481,0.00139
3765.99463,0.00118
3763.93446,0.00088
3761.87429,0.00055
3759.81412,0.00033
3757.75394,0.00028
3755.69377,0.00028
3753.63360,0.00033
3751.57343,0.00043
3749.51326,0.00032
3747.45308,0.00004
3745.39291,0.00010
3743.33274,0.00066
3741.27257,0.00087
3739.21240,0.00067
3737.15222,0.00083
3735.09205,0.00129
3733.03188,0.00151
3730.97171,0.00154
3728.91153,0.00156
3726.85136,0.00141
3724.79119,0.00112
3722.73102,0.00102
3720.67085,0.00119
3718.61067,0.00136
3716.55050,0.00120
3714.49033,0.00068
3712.43016,0.00035
3710.36999,0.00061
3708.30981,0.00104
3706.24964,0.00115
3704.18947,0.00107
3702.12930,0.00122
3700.06913,0.00155
3698.00895,0.00175
3695.94878,0.00180
3693.88861,0.00181
3691.82844,0.00177
3689.76826,0.00160
3687.70809,0.00142
3685.64792,0.00147
3683.58775,0.00170
3681.52758,0.00185
3679.46740,0.00182
3677.40723,0.00182
3675.34706,0.00191
3673.28689,0.00180
3671.22672,0.00160
3669.16654,0.00174
3667.10637,0.00205
3665.04620,0.00216
3662.98603,0.00214
3660.92586,0.00194
3658.86568,0.00160
3656.80551,0.00152
3654.74534,0.00181
3652.68517,0.00223
3650.62499,0.00266
3648.56482,0.00293
3646.50465,0.00295
3644.44448,0.00277
3642.38431,0.00265
3640.32413,0.00266
3638.26396,0.00272
3636.20379,0.00291
3634.14362,0.00316
3632.08345,0.00331
3630.02327,0.00349
3627.96310,0.00381
3625.90293,0.00414
3623.84276,0.00429
3621.78258,0.00433
3619.72241,0.00438
3617.66224,0.00434
3615.60207,0.00408
3613.54190,0.00384
3611.48172,0.00375
3609.42155,0.00391
3607.36138,0.00436
3605.30121,0.00470
3603.24104,0.00474
3601.18086,0.00490
3599.12069,0.00543
3597.06052,0.00599
3595.00035,0.00623
3592.94018,0.00617
3590.88000,0.00611
3588.81983,0.00617
3586.75966,0.00617
3584.69949,0.00601
3582.63931,0.00612
3580.57914,0.00659
3578.51897,0.00689
3576.45880,0.00688
3574.39863,0.00692
3572.33845,0.00709
3570.27828,0.00728
3568.21811,0.00762
3566.15794,0.00798
3564.09777,0.00803
3562.03759,0.00788
3559.97742,0.00788
3557.91725,0.00804
3555.85708,0.00824
3553.79690,0.00845
3551.73673,0.00854
3549.67656,0.00840
3547.61639,0.00819
3545.55622,0.00825
3543.49604,0.00863
3541.43587,0.00916
3539.37570,0.00959
3537.31553,0.00965
3535.25536,0.00953
3533.19518,0.00960
3531.13501,0.00978
3529.07484,0.00980
3527.01467,0.00983
3524.95450,0.01012
3522.89432,0.01043
3520.83415,0.01048
3518.77398,0.01037
3516.71381,0.01020
3514.65363,0.01005
3512.59346,0.01012
3510.53329,0.01060
3508.47312,0.01116
3506.41295,0.01137
3504.35277,0.01131
3502.29260,0.01138
3500.23243,0.01177
3498.17226,0.01225
3496.11209,0.01253
3494.05191,0.01251
3491.99174,0.01241
3489.93157,0.01240
3487.87140,0.01246
3485.81123,0.01249
3483.75105,0.01253
3481.69088,0.01261
3479.63071,0.01277
3477.57054,0.01303
3475.51036,0.01333
3473.45019,0.01346
3471.39002,0.01348
3469.32985,0.01360
3467.26968,0.01384
3465.20950,0.01397
3463.14933,0.01390
3461.08916,0.01397
3459.02899,0.01408
3456.96882,0.01389
3454.90864,0.01368
3452.84847,0.01387
3450.78830,0.01420
3448.72813,0.01434
3446.66795,0.01441
3444.60778,0.01446
3442.54761,0.01448
3440.48744,0.01464
3438.42727,0.01499
3436.36709,0.01534
3434.30692,0.01557
3432.24675,0.01566
3430.18658,0.01561
3428.12641,0.01546
3426.06623,0.01537
3424.00606,0.01547
3421.94589,0.01566
3419.88572,0.01576
3417.82555,0.01587
3415.76537,0.01605
3413.70520,0.01611
3411.64503,0.01597
3409.58486,0.01591
3407.52468,0.01598
3405.46451,0.01615
3403.40434,0.01636
3401.34417,0.01643
3399.28400,0.01626
3397.22382,0.01632
3395.16365,0.01642
3393.10348,0.01669
3391.04331,0.01710
3388.98314,0.01727
3386.92296,0.01718
3384.86279,0.01711
3382.80262,0.01711
3380.74245,0.01713
3378.68228,0.01711
3376.62210,0.01698
3374.56193,0.01687
3372.50176,0.01692
3370.44159,0.01693
3368.38141,0.01692
3366.32124,0.01716
3364.26107,0.01755
3362.20090,0.01784
3360.14073,0.01801
3358.08055,0.01802
3356.02038,0.01794
3353.96021,0.01791
3351.90004,0.01792
3349.83987,0.01798
3347.77969,0.01818
3345.71952,0.01830
3343.65935,0.01821
3341.59918,0.01813
3339.53900,0.01811
3337.47883,0.01806
3335.41866,0.01806
3333.35849,0.01822
3331.29832,0.01829
3329.23814,0.01829
3327.17797,0.01833
3325.11780,0.01834
3323.05763,0.01838
3320.99746,0.01849
3318.93728,0.01856
3316.87711,0.01840
3314.81694,0.01809
3312.75677,0.01798
3310.69660,0.01814
3308.63642,0.01838
3306.57625,0.01855
3304.51608,0.01865
3302.45591,0.01870
3300.39573,0.01859
3298.33556,0.01856
3296.27539,0.01880
3294.21522,0.01899
3292.15505,0.01894
3290.09487,0.01892
3288.03470,0.01913
3285.97453,0.01931
3283.91436,0.01918
3281.85419,0.01896
3279.79401,0.01893
3277.73384,0.01893
3275.67367,0.01888
3273.61350,0.01891
3271.55333,0.01889
3269.49315,0.01878
3267.43298,0.01873
3265.37281,0.01881
3263.31264,0.01896
3261.25246,0.01902
3259.19229,0.01903
3257.13212,0.01914
3255.07195,0.01929
3253.01178,0.01932
3250.95160,0.01916
3248.89143,0.01901
3246.83126,0.01913
3244.77109,0.01941
3242.71092,0.01944
3240.65074,0.01926
3238.59057,0.01912
3236.53040,0.01903
3234.47023,0.01899
3232.41005,0.01901
3230.34988,0.01903
3228.28971,0.01907
3226.22954,0.01912
3224.16937,0.01921
3222.10919,0.01937
3220.04902,0.01937
3217.98885,0.01914
3215.92868,0.01898
3213.86851,0.01898
3211.80833,0.01901
3209.74816,0.01911
3207.68799,0.01926
3205.62782,0.01920
3203.56765,0.01898
3201.50747,0.01883
3199.44730,0.01880
3197.38713,0.01887
3195.32696,0.01892
3193.26678,0.01891
3191.20661,0.01899
3189.14644,0.01911
3187.08627,0.01907
3185.02610,0.01901
3182.96592,0.01905
3180.90575,0.01900
3178.84558,0.01885
3176.78541,0.01872
3174.72524,0.01868
3172.66506,0.01879
3170.60489,0.01885
3168.54472,0.01880
3166.48455,0.01872
3164.42437,0.01854
3162.36420,0.01835
3160.30403,0.01833
3158.24386,0.01824
3156.18369,0.01814
3154.12351,0.01836
3152.06334,0.01857
3150.00317,0.01848
3147.94300,0.01838
3145.88283,0.01842
3143.82265,0.01845
3141.76248,0.01838
3139.70231,0.01824
3137.64214,0.01807
3135.58197,0.01807
3133.52179,0.01824
3131.46162,0.01822
3129.40145,0.01791
3127.34128,0.01776
3125.28110,0.01786
3123.22093,0.01779
3121.16076,0.01746
3119.10059,0.01727
3117.04042,0.01741
3114.98024,0.01759
3112.92007,0.01757
3110.85990,0.01748
3108.79973,0.01741
3106.73956,0.01740
3104.67938,0.01748
3102.61921,0.01749
3100.55904,0.01740
3098.49887,0.01726
3096.43870,0.01723
3094.37852,0.01732
3092.31835,0.01737
3090.25818,0.01720
3088.19801,0.01685
3086.13783,0.01663
3084.07766,0.01670
3082.01749,0.01675
3079.95732,0.01665
3077.89715,0.01666
3075.83697,0.01683
3073.77680,0.01687
3071.71663,0.01677
3069.65646,0.01665
3067.59629,0.01656
3065.53611,0.01649
3063.47594,0.01637
3061.41577,0.01627
3059.35560,0.01631
3057.29542,0.01638
3055.23525,0.01635
3053.17508,0.01632
3051.11491,0.01631
3049.05474,0.01618
3046.99456,0.01596
3044.93439,0.01579
3042.87422,0.01566
3040.81405,0.01564
3038.75388,0.01571
3036.69370,0.01564
3034.63353,0.01549
3032.57336,0.01541
3030.51319,0.01535
3028.45302,0.01526
3026.39284,0.01512
3024.33267,0.01494
3022.27250,0.01491
3020.21233,0.01504
3018.15215,0.01501
3016.09198,0.01481
3014.03181,0.01467
3011.97164,0.01468
3009.91147,0.01478
3007.85129,0.01468
3005.79112,0.01433
3003.73095,0.01413
3001.67078,0.01411
2999.61061,0.01409
2997.55043,0.01400
2995.49026,0.01387
2993.43009,0.01378
2991.36992,0.01394
2989.30975,0.01421
2987.24957,0.01439
2985.18940,0.01439
2983.12923,0.01429
2981.06906,0.01426
2979.00888,0.01419
2976.94871,0.01404
2974.88854,0.01397
2972.82837,0.01399
2970.76820,0.01405
2968.70802,0.01414
2966.64785,0.01417
2964.58768,0.01404
2962.52751,0.01374
2960.46734,0.01353
2958.40716,0.01355
2956.34699,0.01363
2954.28682,0.01373
2952.22665,0.01388
2950.16647,0.01389
2948.10630,0.01377
2946.04613,0.01362
2943.98596,0.01354
2941.92579,0.01364
2939.86561,0.01373
2937.80544,0.01365
2935.74527,0.01346
2933.68510,0.01330
2931.62493,0.01327
2929.56475,0.01324
2927.50458,0.01314
2925.44441,0.01306
2923.38424,0.01308
2921.32407,0.01317
2919.26389,0.01327
2917.20372,0.01328
2915.14355,0.01309
2913.08338,0.01278
2911.02320,0.01262
2908.96303,0.01269
2906.90286,0.01281
2904.84269,0.01284
2902.78252,0.01277
2900.72234,0.01266
2898.66217,0.01249
2896.60200,0.01239
2894.54183,0.01234
2892.48166,0.01219
2890.42148,0.01204
2888.36131,0.01211
2886.30114,0.01226
2884.24097,0.01233
2882.18080,0.01234
2880.12062,0.01230
2878.06045,0.01218
2876.00028,0.01203
2873.94011,0.01196
2871.87993,0.01192
2869.81976,0.01178
2867.75959,0.01155
2865.69942,0.01133
2863.63925,0.01127
2861.57907,0.01145
2859.51890,0.01162
2857.45873,0.01154
2855.39856,0.01136
2853.33839,0.01124
2851.27821,0.01117
2849.21804,0.01116
2847.15787,0.01115
2845.09770,0.01105
2843.03752,0.01097
2840.97735,0.01094
2838.91718,0.01085
2836.85701,0.01074
2834.79684,0.01071
2832.73666,0.01058
2830.67649,0.01035
2828.61632,0.01027
2826.55615,0.01044
2824.49598,0.01060
2822.43580,0.01059
2820.37563,0.01051
2818.31546,0.01040
2816.25529,0.01018
2814.19512,0.01005
2812.13494,0.01011
2810.07477,0.01010
2808.01460,0.00995
2805.95443,0.00982
2803.89425,0.00975
2801.83408,0.00966
2799.77391,0.00955
2797.71374,0.00948
2795.65357,0.00955
2793.59339,0.00965
2791.53322,0.00969
2789.47305,0.00965
2787.41288,0.00948
2785.35271,0.00934
2783.29253,0.00932
2781.23236,0.00926
2779.17219,0.00915
2777.11202,0.00906
2775.05184,0.00891
2772.99167,0.00880
2770.93150,0.00884
2768.87133,0.00894
2766.81116,0.00903
2764.75098,0.00905
2762.69081,0.00899
2760.63064,0.00888
2758.57047,0.00880
2756.51030,0.00886
2754.45012,0.00890
2752.38995,0.00881
2750.32978,0.00881
2748.26961,0.00888
2746.20944,0.00882
2744.14926,0.00871
2742.08909,0.00868
2740.02892,0.00870
2737.96875,0.00868
2735.90857,0.00857
2733.84840,0.00843
2731.78823,0.00834
2729.72806,0.00832
2727.66789,0.00827
2725.60771,0.00821
2723.54754,0.00810
2721.48737,0.00799
2719.42720,0.00796
2717.36703,0.00796
2715.30685,0.00792
2713.24668,0.00791
2711.18651,0.00793
2709.12634,0.00792
2707.06617,0.00792
2705.00599,0.00791
2702.94582,0.00782
2700.88565,0.00776
2698.82548,0.00774
2696.76530,0.00766
2694.70513,0.00766
2692.64496,0.00771
2690.58479,0.00763
2688.52462,0.00751
2686.46444,0.00752
2684.40427,0.00760
2682.34410,0.00766
2680.28393,0.00765
2678.22376,0.00753
2676.16358,0.00744
2674.10341,0.00738
2672.04324,0.00728
2669.98307,0.00727
2667.92289,0.00742
2665.86272,0.00750
2663.80255,0.00740
2661.74238,0.00730
2659.68221,0.00730
2657.62203,0.00733
2655.56186,0.00743
2653.50169,0.00750
2651.44152,0.00740
2649.38135,0.00727
2647.32117,0.00716
2645.26100,0.00703
2643.20083,0.00695
2641.14066,0.00693
2639.08049,0.00697
2637.02031,0.00703
2634.96014,0.00694
2632.89997,0.00680
2630.83980,0.00677
2628.77962,0.00668
2626.71945,0.00657
2624.65928,0.00655
2622.59911,0.00642
2620.53894,0.00621
2618.47876,0.00620
2616.41859,0.00630
2614.35842,0.00626
2612.29825,0.00613
2610.23808,0.00608
2608.17790,0.00623
2606.11773,0.00637
2604.05756,0.00627
2601.99739,0.00614
2599.93722,0.00617
2597.87704,0.00627
2595.81687,0.00633
2593.75670,0.00631
2591.69653,0.00616
2589.63635,0.00597
2587.57618,0.00589
2585.51601,0.00586
2583.45584,0.00584
2581.39567,0.00598
2579.33549,0.00623
2577.27532,0.00645
2575.21515,0.00637
2573.15498,0.00583
2571.09481,0.00536
2569.03463,0.00547
2566.97446,0.00574
2564.91429,0.00585
2562.85412,0.00601
2560.79394,0.00599
2558.73377,0.00574
2556.67360,0.00575
2554.61343,0.00606
2552.55326,0.00634
2550.49308,0.00635
2548.43291,0.00610
2546.37274,0.00581
2544.31257,0.00556
2542.25240,0.00532
2540.19222,0.00529
2538.13205,0.00548
2536.07188,0.00568
2534.01171,0.00573
2531.95154,0.00564
2529.89136,0.00549
2527.83119,0.00525
2525.77102,0.00517
2523.71085,0.00543
2521.65067,0.00570
2519.59050,0.00571
2517.53033,0.00559
2515.47016,0.00565
2513.40999,0.00584
2511.34981,0.00584
2509.28964,0.00572
2507.22947,0.00577
2505.16930,0.00589
2503.10913,0.00572
2501.04895,0.00532
2498.98878,0.00520
2496.92861,0.00538
2494.86844,0.00541
2492.80827,0.00516
2490.74809,0.00507
2488.68792,0.00534
2486.62775,0.00575
2484.56758,0.00606
2482.50740,0.00603
2480.44723,0.00591
2478.38706,0.00596
2476.32689,0.00597
2474.26672,0.00576
2472.20654,0.00543
2470.14637,0.00537
2468.08620,0.00570
2466.02603,0.00594
2463.96586,0.00601
2461.90568,0.00611
2459.84551,0.00619
2457.78534,0.00626
2455.72517,0.00621
2453.66499,0.00600
2451.60482,0.00588
2449.54465,0.00571
2447.48448,0.00542
2445.42431,0.00532
2443.36413,0.00556
2441.30396,0.00578
2439.24379,0.00565
2437.18362,0.00552
2435.12345,0.00569
2433.06327,0.00586
2431.00310,0.00586
2428.94293,0.00578
2426.88276,0.00565
2424.82259,0.00550
2422.76241,0.00546
2420.70224,0.00549
2418.64207,0.00552
2416.58190,0.00557
2414.52172,0.00566
2412.46155,0.00581
2410.40138,0.00595
2408.34121,0.00594
2406.28104,0.00569
2404.22086,0.00549
2402.16069,0.00553
2400.10052,0.00559
2398.04035,0.00517
2395.98018,0.00521
2393.92000,0.00560
2391.85983,0.00595
2389.79966,0.00613
2387.73949,0.00624
2385.67931,0.00638
2383.61914,0.00644
2381.55897,0.00625
2379.49880,0.00586
2377.43863,0.00554
2375.37845,0.00566
2373.31828,0.00623
2371.25811,0.00680
2369.19794,0.00711
2367.13777,0.00770
2365.07759,0.00924
2363.01742,0.01070
2360.95725,0.01093
2358.89708,0.01058
2356.83691,0.01015
2354.77673,0.00940
2352.71656,0.00858
2350.65639,0.00843
2348.59622,0.00862
2346.53604,0.00858
2344.47587,0.00856
2342.41570,0.00915
2340.35553,0.01003
2338.29536,0.01051
2336.23518,0.01063
2334.17501,0.01046
2332.11484,0.00985
2330.05467,0.00942
2327.99450,0.00944
2325.93432,0.00935
2323.87415,0.00872
2321.81398,0.00782
2319.75381,0.00736
2317.69364,0.00749
2315.63346,0.00763
2313.57329,0.00738
2311.51312,0.00699
2309.45295,0.00665
2307.39277,0.00626
2305.33260,0.00601
2303.27243,0.00611
2301.21226,0.00628
2299.15209,0.00635
2297.09191,0.00658
2295.03174,0.00698
2292.97157,0.00719
2290.91140,0.00722
2288.85123,0.00725
2286.79105,0.00696
2284.73088,0.00614
2282.67071,0.00534
2280.61054,0.00517
2278.55036,0.00551
2276.49019,0.00574
2274.43002,0.00556
2272.36985,0.00541
2270.30968,0.00562
2268.24950,0.00581
2266.18933,0.00559
2264.12916,0.00523
2262.06899,0.00515
2260.00882,0.00530
2257.94864,0.00548
2255.88847,0.00559
2253.82830,0.00555
2251.76813,0.00544
2249.70796,0.00531
2247.64778,0.00521
2245.58761,0.00483
2243.52744,0.00457
2241.46727,0.00475
2239.40709,0.00490
2237.34692,0.00493
2235.28675,0.00516
2233.22658,0.00511
2231.16641,0.00468
2229.10623,0.00461
2227.04606,0.00473
2224.98589,0.00474
2222.92572,0.00500
2220.86555,0.00502
2218.80537,0.00442
2216.74520,0.00420
2214.68503,0.00451
2212.62486,0.00455
2210.56469,0.00430
2208.50451,0.00408
2206.44434,0.00392
2204.38417,0.00411
2202.32400,0.00456
2200.26382,0.00431
2198.20365,0.00366
2196.14348,0.00356
2194.08331,0.00393
2192.02314,0.00456
2189.96296,0.00501
2187.90279,0.00476
2185.84262,0.00444
2183.78245,0.00448
2181.72228,0.00410
2179.66210,0.00333
2177.60193,0.00245
2175.54176,0.00214
2173.48159,0.00339
2171.42141,0.00509
2169.36124,0.00550
2167.30107,0.00445
2165.24090,0.00314
2163.18073,0.00259
2161.12055,0.00178
2159.06038,0.00030
2157.00021,0.00036
2154.94004,0.00190
2152.87987,0.00280
2150.81969,0.00217
2148.75952,0.00125
2146.69935,0.00165
2144.63918,0.00273
2142.57901,0.00312
2140.51883,0.00292
2138.45866,0.00245
2136.39849,0.00192
2134.33832,0.00199
2132.27814,0.00267
2130.21797,0.00320
2128.15780,0.00324
2126.09763,0.00325
2124.03746,0.00336
2121.97728,0.00337
2119.91711,0.00354
2117.85694,0.00379
2115.79677,0.00385
2113.73660,0.00405
2111.67642,0.00437
2109.61625,0.00421
2107.55608,0.00368
2105.49591,0.00347
2103.43573,0.00364
2101.37556,0.00372
2099.31539,0.00376
2097.25522,0.00357
2095.19505,0.00349
2093.13487,0.00356
2091.07470,0.00346
2089.01453,0.00332
2086.95436,0.00339
2084.89419,0.00361
2082.83401,0.00367
2080.77384,0.00345
2078.71367,0.00344
2076.65350,0.00372
2074.59333,0.00378
2072.53315,0.00351
2070.47298,0.00348
2068.41281,0.00390
2066.35264,0.00426
2064.29246,0.00424
2062.23229,0.00407
2060.17212,0.00399
2058.11195,0.00406
2056.05178,0.00399
2053.99160,0.00382
2051.93143,0.00416
2049.87126,0.00455
2047.81109,0.00383
2045.75092,0.00259
2043.69074,0.00192
2041.63057,0.00155
2039.57040,0.00131
2037.51023,0.00166
2035.45006,0.00228
2033.38988,0.00218
2031.32971,0.00155
2029.26954,0.00142
2027.20937,0.00179
2025.14919,0.00204
2023.08902,0.00182
2021.02885,0.00179
2018.96868,0.00258
2016.90851,0.00317
2014.84833,0.00276
2012.78816,0.00235
2010.72799,0.00256
2008.66782,0.00274
2006.60765,0.00295
2004.54747,0.00331
2002.48730,0.00278
2000.42713,0.00165
1998.36696,0.00157
1996.30678,0.00237
1994.24661,0.00245
1992.18644,0.00200
1990.12627,0.00244
1988.06610,0.00337
1986.00592,0.00366
1983.94575,0.00371
1981.88558,0.00431
1979.82541,0.00480
1977.76524,0.00423
1975.70506,0.00333
1973.64489,0.00259
1971.58472,0.00157
1969.52455,0.00072
1967.46438,0.00053
1965.40420,0.00074
1963.34403,0.00122
1961.28386,0.00181
1959.22369,0.00214
1957.16351,0.00213
1955.10334,0.00197
1953.04317,0.00187
1950.98300,0.00163
1948.92283,0.00122
1946.86265,0.00110
1944.80248,0.00154
1942.74231,0.00235
1940.68214,0.00286
1938.62197,0.00288
1936.56179,0.00291
1934.50162,0.00298
1932.44145,0.00283
1930.38128,0.00258
1928.32111,0.00231
1926.26093,0.00203
1924.20076,0.00191
1922.14059,0.00189
1920.08042,0.00163
1918.02024,0.00150
1915.96007,0.00176
1913.89990,0.00194
1911.83973,0.00181
1909.77956,0.00167
1907.71938,0.00178
1905.65921,0.00194
1903.59904,0.00185
1901.53887,0.00183
1899.47870,0.00217
1897.41852,0.00258
1895.35835,0.00265
1893.29818,0.00244
1891.23801,0.00227
1889.17783,0.00226
1887.11766,0.00232
1885.05749,0.00227
1882.99732,0.00206
1880.93715,0.00196
1878.87697,0.00212
1876.81680,0.00237
1874.75663,0.00244
1872.69646,0.00230
1870.63629,0.00225
1868.57611,0.00229
1866.51594,0.00211
1864.45577,0.00186
1862.39560,0.00191
1860.33543,0.00206
1858.27525,0.00199
1856.21508,0.00189
1854.15491,0.00202
1852.09474,0.00229
1850.03456,0.00256
1847.97439,0.00280
1845.91422,0.00289
1843.85405,0.00275
1841.79388,0.00241
1839.73370,0.00204
1837.67353,0.00187
1835.61336,0.00200
1833.55319,0.00236
1831.49302,0.00281
1829.43284,0.00307
1827.37267,0.00296
1825.31250,0.00281
1823.25233,0.00275
1821.19216,0.00249
1819.13198,0.00204
1817.07181,0.00177
1815.01164,0.00185
1812.95147,0.00198
1810.89129,0.00195
1808.83112,0.00188
1806.77095,0.00188
1804.71078,0.00186
1802.65061,0.00188
1800.59043,0.00205
1798.53026,0.00221
1796.47009,0.00228
1794.40992,0.00240
1792.34975,0.00246
1790.28957,0.00237
1788.22940,0.00229
1786.16923,0.00228
1784.10906,0.00234
1782.04888,0.00243
1779.98871,0.00241
1777.92854,0.00232
1775.86837,0.00240
1773.80820,0.00270
1771.74802,0.00284
1769.68785,0.00252
1767.62768,0.00217
1765.56751,0.00204
1763.50734,0.00209
1761.44716,0.00225
1759.38699,0.00238
1757.32682,0.00247
1755.26665,0.00260
1753.20648,0.00281
1751.14630,0.00307
1749.08613,0.00318
1747.02596,0.00310
1744.96579,0.00299
1742.90561,0.00300
1740.84544,0.00314
1738.78527,0.00331
1736.72510,0.00344
1734.66493,0.00357
1732.60475,0.00357
1730.54458,0.00338
1728.48441,0.00313
1726.42424,0.00303
1724.36407,0.00311
1722.30389,0.00318
1720.24372,0.00327
1718.18355,0.00358
1716.12338,0.00382
1714.06320,0.00364
1712.00303,0.00329
1709.94286,0.00320
1707.88269,0.00335
1705.82252,0.00349
1703.76234,0.00358
1701.70217,0.00380
1699.64200,0.00408
1697.58183,0.00419
1695.52166,0.00425
1693.46148,0.00438
1691.40131,0.00459
1689.34114,0.00486
1687.28097,0.00516
1685.22080,0.00561
1683.16062,0.00610
1681.10045,0.00632
1679.04028,0.00642
1676.98011,0.00670
1674.91993,0.00725
1672.85976,0.00786
1670.79959,0.00840
1668.73942,0.00863
1666.67925,0.00846
1664.61907,0.00830
1662.55890,0.00830
1660.49873,0.00827
1658.43856,0.00828
1656.37839,0.00850
1654.31821,0.00893
1652.25804,0.00928
1650.19787,0.00943
1648.13770,0.00941
1646.07753,0.00918
1644.01735,0.00878
1641.95718,0.00854
1639.89701,0.00869
1637.83684,0.00918
1635.77666,0.00950
1633.71649,0.00923
1631.65632,0.00872
1629.59615,0.00837
1627.53598,0.00828
1625.47580,0.00834
1623.41563,0.00831
1621.35546,0.00804
1619.29529,0.00781
1617.23512,0.00779
1615.17494,0.00770
1613.11477,0.00750
1611.05460,0.00746
1608.99443,0.00758
1606.93425,0.00764
1604.87408,0.00758
1602.81391,0.00743
1600.75374,0.00723
1598.69357,0.00708
1596.63339,0.00699
1594.57322,0.00694
1592.51305,0.00682
1590.45288,0.00666
1588.39271,0.00650
1586.33253,0.00637
1584.27236,0.00616
1582.21219,0.00593
1580.15202,0.00582
1578.09185,0.00586
1576.03167,0.00582
1573.97150,0.00552
1571.91133,0.00524
1569.85116,0.00518
1567.79098,0.00513
1565.73081,0.00502
1563.67064,0.00503
1561.61047,0.00533
1559.55030,0.00564
1557.49012,0.00527
1555.42995,0.00467
1553.36978,0.00435
1551.30961,0.00423
1549.24944,0.00408
1547.18926,0.00395
1545.12909,0.00405
1543.06892,0.00435
1541.00875,0.00457
1538.94858,0.00433
1536.88840,0.00383
1534.82823,0.00365
1532.76806,0.00372
1530.70789,0.00361
1528.64771,0.00347
1526.58754,0.00350
1524.52737,0.00353
1522.46720,0.00337
1520.40703,0.00308
1518.34685,0.00307
1516.28668,0.00314
1514.22651,0.00292
1512.16634,0.00262
1510.10617,0.00256
1508.04599,0.00266
1505.98582,0.00260
1503.92565,0.00238
1501.86548,0.00228
1499.80530,0.00249
1497.74513,0.00277
1495.68496,0.00276
1493.62479,0.00261
1491.56462,0.00261
1489.50444,0.00273
1487.44427,0.00275
1485.38410,0.00257
1483.32393,0.00236
1481.26376,0.00228
1479.20358,0.00229
1477.14341,0.00241
1475.08324,0.00260
1473.02307,0.00273
1470.96290,0.00269
1468.90272,0.00257
1466.84255,0.00260
1464.78238,0.00277
1462.72221,0.00288
1460.66203,0.00301
1458.60186,0.00325
1456.54169,0.00320
1454.48152,0.00288
1452.42135,0.00265
1450.36117,0.00266
1448.30100,0.00278
1446.24083,0.00281
1444.18066,0.00272
1442.12049,0.00264
1440.06031,0.00265
1438.00014,0.00276
1435.93997,0.00289
1433.87980,0.00292
1431.81963,0.00290
1429.75945,0.00297
1427.69928,0.00308
1425.63911,0.00320
1423.57894,0.00323
1421.51876,0.00316
1419.45859,0.00315
1417.39842,0.00323
1415.33825,0.00328
1413.27808,0.00328
1411.21790,0.00324
1409.15773,0.00318
1407.09756,0.00316
1405.03739,0.00311
1402.97722,0.00305
1400.91704,0.00304
1398.85687,0.00302
1396.79670,0.00293
1394.73653,0.00282
1392.67635,0.00268
1390.61618,0.00257
1388.55601,0.00259
1386.49584,0.00267
1384.43567,0.00268
1382.37549,0.00266
1380.31532,0.00268
1378.25515,0.00272
1376.19498,0.00270
1374.13481,0.00262
1372.07463,0.00252
1370.01446,0.00247
1367.95429,0.00248
1365.89412,0.00249
1363.83395,0.00246
1361.77377,0.00235
1359.71360,0.00234
1357.65343,0.00244
1355.59326,0.00250
1353.53308,0.00245
1351.47291,0.00242
1349.41274,0.00242
1347.35257,0.00234
1345.29240,0.00217
1343.23222,0.00204
1341.17205,0.00201
1339.11188,0.00202
1337.05171,0.00203
1334.99154,0.00204
1332.93136,0.00204
1330.87119,0.00206
1328.81102,0.00212
1326.75085,0.00211
1324.69067,0.00200
1322.63050,0.00195
1320.57033,0.00200
1318.51016,0.00207
1316.44999,0.00206
1314.38981,0.00201
1312.32964,0.00200
1310.26947,0.00208
1308.20930,0.00217
1306.14913,0.00220
1304.08895,0.00214
1302.02878,0.00205
1299.96861,0.00203
1297.90844,0.00215
1295.84827,0.00237
1293.78809,0.00252
1291.72792,0.00254
1289.66775,0.00250
1287.60758,0.00243
1285.54740,0.00231
1283.48723,0.00224
1281.42706,0.00226
1279.36689,0.00234
1277.30672,0.00244
1275.24654,0.00250
1273.18637,0.00246
1271.12620,0.00235
1269.06603,0.00223
1267.00586,0.00212
1264.94568,0.00213
1262.88551,0.00225
1260.82534,0.00241
1258.76517,0.00254
1256.70500,0.00259
1254.64482,0.00257
1252.58465,0.00254
1250.52448,0.00249
1248.46431,0.00239
1246.40413,0.00233
1244.34396,0.00227
1242.28379,0.00219
1240.22362,0.00212
1238.16345,0.00211
1236.10327,0.00210
1234.04310,0.00204
1231.98293,0.00190
1229.92276,0.00176
1227.86259,0.00166
1225.80241,0.00165
1223.74224,0.00168
1221.68207,0.00165
1219.62190,0.00148
1217.56172,0.00124
1215.50155,0.00107
1213.44138,0.00098
1211.38121,0.00088
1209.32104,0.00078
1207.26086,0.00070
1205.20069,0.00057
1203.14052,0.00047
1201.08035,0.00045
1199.02018,0.00046
1196.96000,0.00050
1194.89983,0.00055
1192.83966,0.00053
1190.77949,0.00051
1188.71932,0.00053
1186.65914,0.00051
1184.59897,0.00055
1182.53880,0.00066
1180.47863,0.00072
1178.41845,0.00076
1176.35828,0.00085
1174.29811,0.00103
1172.23794,0.00126
1170.17777,0.00138
1168.11759,0.00145
1166.05742,0.00164
1163.99725,0.00195
1161.93708,0.00224
1159.87691,0.00243
1157.81673,0.00256
1155.75656,0.00271
1153.69639,0.00294
1151.63622,0.00321
1149.57605,0.00345
1147.51587,0.00377
1145.45570,0.00414
1143.39553,0.00448
1141.33536,0.00485
1139.27518,0.00526
1137.21501,0.00567
1135.15484,0.00603
1133.09467,0.00640
1131.03450,0.00692
1128.97432,0.00757
1126.91415,0.00821
1124.85398,0.00882
1122.79381,0.00942
1120.73364,0.01006
1118.67346,0.01082
1116.61329,0.01154
1114.55312,0.01212
1112.49295,0.01273
1110.43277,0.01340
1108.37260,0.01403
1106.31243,0.01465
1104.25226,0.01530
1102.19209,0.01593
1100.13191,0.01653
1098.07174,0.01702
1096.01157,0.01734
1093.95140,0.01765
1091.89123,0.01806
1089.83105,0.01856
1087.77088,0.01898
1085.71071,0.01918
1083.65054,0.01941
1081.59037,0.01981
1079.53019,0.02026
1077.47002,0.02056
1075.40985,0.02075
1073.34968,0.02096
1071.28950,0.02125
1069.22933,0.02143
1067.16916,0.02148
1065.10899,0.02153
1063.04882,0.02153
1060.98864,0.02138
1058.92847,0.02113
1056.86830,0.02093
1054.80813,0.02076
1052.74796,0.02029
1050.68778,0.01946
1048.62761,0.01868
1046.56744,0.01803
1044.50727,0.01737
1042.44710,0.01662
1040.38692,0.01580
1038.32675,0.01501
1036.26658,0.01429
1034.20641,0.01353
1032.14623,0.01258
1030.08606,0.01163
1028.02589,0.01093
1025.96572,0.01035
1023.90555,0.00981
1021.84537,0.00940
1019.78520,0.00901
1017.72503,0.00865
1015.66486,0.00836
1013.60469,0.00813
1011.54451,0.00805
1009.48434,0.00812
1007.42417,0.00833
1005.36400,0.00869
1003.30382,0.00909
1001.24365,0.00960
999.18348,0.01029
997.12331,0.01094
995.06314,0.01135
993.00296,0.01161
990.94279,0.01187
988.88262,0.01215
986.82245,0.01254
984.76228,0.01295
982.70210,0.01322
980.64193,0.01332
978.58176,0.01340
976.52159,0.01355
974.46142,0.01349
972.40124,0.01301
970.34107,0.01239
968.28090,0.01198
966.22073,0.01162
964.16055,0.01099
962.10038,0.01032
960.04021,0.00979
957.98004,0.00920
955.91987,0.00860
953.85969,0.00812
951.79952,0.00776
949.73935,0.00745
947.67918,0.00705
945.61901,0.00644
943.55883,0.00581
941.49866,0.00547
939.43849,0.00525
937.37832,0.00493
935.31814,0.00453
933.25797,0.00416
931.19780,0.00397
929.13763,0.00400
927.07746,0.00399
925.01728,0.00375
922.95711,0.00333
920.89694,0.00299
918.83677,0.00287
916.77660,0.00284
914.71642,0.00277
912.65625,0.00268
910.59608,0.00257
908.53591,0.00249
906.47574,0.00248
904.41556,0.00249
902.35539,0.00248
900.29522,0.00248
898.23505,0.00248
896.17487,0.00251
894.11470,0.00266
892.05453,0.00296
889.99436,0.00326
887.93419,0.00356
885.87401,0.00392
883.81384,0.00429
881.75367,0.00457
879.69350,0.00477
877.63333,0.00491
875.57315,0.00512
873.51298,0.00554
871.45281,0.00592
869.39264,0.00614
867.33247,0.00642
865.27229,0.00672
863.21212,0.00685
861.15195,0.00684
859.09178,0.00673
857.03160,0.00644
854.97143,0.00626
852.91126,0.00636
850.85109,0.00636
848.79092,0.00624
846.73074,0.00629
844.67057,0.00633
842.61040,0.00626
840.55023,0.00600
838.49006,0.00555
836.42988,0.00515
834.36971,0.00474
832.30954,0.00436
830.24937,0.00420
828.18919,0.00407
826.12902,0.00384
824.06885,0.00371
822.00868,0.00376
819.94851,0.00378
817.88833,0.00368
815.82816,0.00346
813.76799,0.00319
811.70782,0.00297
809.64765,0.00267
807.58747,0.00240
805.52730,0.00238
803.46713,0.00260
801.40696,0.00293
799.34679,0.00299
797.28661,0.00285
795.22644,0.00275
793.16627,0.00250
791.10610,0.00225
789.04592,0.00236
786.98575,0.00259
784.92558,0.00251
782.86541,0.00222
780.80524,0.00219
778.74506,0.00251
776.68489,0.00270
774.62472,0.00257
772.56455,0.00246
770.50438,0.00256
768.44420,0.00265
766.38403,0.00244
764.32386,0.00197
762.26369,0.00187
760.20352,0.00225
758.14334,0.00235
756.08317,0.00217
754.02300,0.00207
751.96283,0.00200
749.90265,0.00201
747.84248,0.00200
745.78231,0.00207
743.72214,0.00226
741.66197,0.00210
739.60179,0.00157
737.54162,0.00159
735.48145,0.00224
733.42128,0.00251
731.36111,0.00224
729.30093,0.00205
727.24076,0.00197
725.18059,0.00211
723.12042,0.00266
721.06024,0.00239
719.00007,0.00188
716.93990,0.00186
714.87973,0.00209
712.81956,0.00222
710.75938,0.00222
708.69921,0.00208
706.63904,0.00207
704.57887,0.00234
702.51870,0.00272
700.45852,0.00325
698.39835,0.00390
696.33818,0.00421
694.27801,0.00394
692.21784,0.00344
690.15766,0.00285
688.09749,0.00227
686.03732,0.00237
683.97715,0.00325
681.91697,0.00406
679.85680,0.00428
677.79663,0.00414
675.73646,0.00376
673.67629,0.00309
671.61611,0.00203
669.55594,0.00142
667.49577,0.00242
665.43560,0.00322
663.37543,0.00332
661.31525,0.00246
659.25508,0.00179
657.19491,0.00232
655.13474,0.00347
653.07457,0.00450
651.01439,0.00515
648.95422,0.00525
646.89405,0.00482
644.83388,0.00394
642.77370,0.00301
640.71353,0.00252
638.65336,0.00235
636.59319,0.00210
634.53302,0.00174
632.47284,0.00145
630.41267,0.00125
628.35250,0.00118
626.29233,0.00124
624.23216,0.00119
622.17198,0.00073
620.11181,0.00055
618.05164,0.00076
615.99147,0.00107
613.93129,0.00179
611.87112,0.00217
609.81095,0.00135
607.75078,0.00082
605.69061,0.00106
603.63043,0.00054
601.57026,0.00000
599.51009,0.00000
