3996.73391,0.00000
3994.67374,0.00021
3992.61357,0.00042
3990.55339,0.00064
3988.49322,0.00075
3986.43305,0.00059
3984.37288,0.00025
3982.31271,0.00006
3980.25253,0.00005
3978.19236,0.00011
3976.13219,0.00026
3974.07202,0.00040
3972.01184,0.00035
3969.95167,0.00027
3967.89150,0.00026
3965.83133,0.00033
3963.77116,0.00045
3961.71098,0.00048
3959.65081,0.00037
3957.59064,0.00039
3955.53047,0.00059
3953.47030,0.00072
3951.41012,0.00064
3949.34995,0.00044
3947.28978,0.00041
3945.22961,0.00060
3943.16943,0.00079
3941.10926,0.00089
3939.04909,0.00090
3936.98892,0.00077
3934.92875,0.00065
3932.86857,0.00076
3930.80840,0.00098
3928.74823,0.00099
3926.68806,0.00072
3924.62789,0.00048
3922.56771,0.00048
3920.50754,0.00053
3918.44737,0.00047
3916.38720,0.00058
3914.32703,0.00092
3912.26685,0.00118
3910.20668,0.00116
3908.14651,0.00098
3906.08634,0.00078
3904.02616,0.00055
3901.96599,0.00052
3899.90582,0.00077
3897.84565,0.00090
3895.78548,0.00089
3893.72530,0.00108
3891.66513,0.00134
3889.60496,0.00119
3887.54479,0.00070
3885.48462,0.00039
3883.42444,0.00054
3881.36427,0.00091
3879.30410,0.00108
3877.24393,0.00105
3875.18376,0.00109
3873.12358,0.00112
3871.06341,0.00106
3869.00324,0.00108
3866.94307,0.00111
3864.88289,0.00101
3862.82272,0.00085
3860.76255,0.00071
3858.70238,0.00058
3856.64221,0.00043
3854.58203,0.00051
3852.52186,0.00084
3850.46169,0.00113
3848.40152,0.00125
3846.34135,0.00128
3844.28117,0.00109
3842.22100,0.00068
3840.16083,0.00044
3838.10066,0.00046
3836.04048,0.00056
3833.98031,0.00072
3831.92014,0.00096
3829.85997,0.00118
3827.79980,0.00118
3825.73962,0.00100
3823.67945,0.00086
3821.61928,0.00096
3819.55911,0.00110
3817.49894,0.00111
3815.43876,0.00118
3813.37859,0.00126
3811.31842,0.00110
3809.25825,0.00099
3807.19808,0.00114
3805.13790,0.00126
3803.07773,0.00120
3801.01756,0.00119
3798.95739,0.00128
3796.89721,0.00141
3794.83704,0.00160
3792.77687,0.00173
3790.71670,0.00177
3788.65653,0.00185
3786.59635,0.00210
3784.53618,0.00254
3782.47601,0.00293
3780.41584,0.00293
3778.35567,0.00250
3776.29549,0.00204
3774.23532,0.00181
3772.17515,0.00178
3770.11498,0.00171
3768.05481,0.00146
3765.99463,0.00131
3763.93446,0.00143
3761.87429,0.00160
3759.81412,0.00160
3757.75394,0.00138
3755.69377,0.00104
3753.63360,0.00085
3751.57343,0.00094
3749.51326,0.00102
3747.45308,0.00100
3745.39291,0.00101
3743.33274,0.00115
3741.27257,0.00112
3739.21240,0.00100
3737.15222,0.00114
3735.09205,0.00142
3733.03188,0.00149
3730.97171,0.00156
3728.91153,0.00181
3726.85136,0.00198
3724.79119,0.00186
3722.73102,0.00161
3720.67085,0.00147
3718.61067,0.00133
3716.55050,0.00121
3714.49033,0.00118
3712.43016,0.00133
3710.36999,0.00167
3708.30981,0.00189
3706.24964,0.00189
3704.18947,0.00177
3702.12930,0.00163
3700.06913,0.00164
3698.00895,0.00188
3695.94878,0.00217
3693.88861,0.00227
3691.82844,0.00220
3689.76826,0.00200
3687.70809,0.00196
3685.64792,0.00210
3683.58775,0.00216
3681.52758,0.00221
3679.46740,0.00234
3677.40723,0.00249
3675.34706,0.00251
3673.28689,0.00243
3671.22672,0.00242
3669.16654,0.00252
3667.10637,0.00252
3665.04620,0.00246
3662.98603,0.00246
3660.92586,0.00232
3658.86568,0.00203
3656.80551,0.00190
3654.74534,0.00203
3652.68517,0.00238
3650.62499,0.00293
3648.56482,0.00330
3646.50465,0.00332
3644.44448,0.00309
3642.38431,0.00295
3640.32413,0.00309
3638.26396,0.00337
3636.20379,0.00366
3634.14362,0.00371
3632.08345,0.00348
3630.02327,0.00334
3627.96310,0.00364
3625.90293,0.00414
3623.84276,0.00441
3621.78258,0.00448
3619.72241,0.00452
3617.66224,0.00443
3615.60207,0.00402
3613.54190,0.00361
3611.48172,0.00358
3609.42155,0.00403
3607.36138,0.00464
3605.30121,0.00500
3603.24104,0.00514
3601.18086,0.00523
3599.12069,0.00554
3597.06052,0.00604
3595.00035,0.00643
3592.94018,0.00667
3590.88000,0.00681
3588.81983,0.00672
3586.75966,0.00649
3584.69949,0.00630
3582.63931,0.00629
3580.57914,0.00647
3578.51897,0.00672
3576.45880,0.00685
3574.39863,0.00687
3572.33845,0.00692
3570.27828,0.00724
3568.21811,0.00785
3566.15794,0.00822
3564.09777,0.00805
3562.03759,0.00782
3559.97742,0.00792
3557.91725,0.00808
3555.85708,0.00807
3553.79690,0.00802
3551.73673,0.00797
3549.67656,0.00781
3547.61639,0.00773
3545.55622,0.00800
3543.49604,0.00844
3541.43587,0.00880
3539.37570,0.00910
3537.31553,0.00933
3535.25536,0.00939
3533.19518,0.00935
3531.13501,0.00934
3529.07484,0.00937
3527.01467,0.00948
3524.95450,0.00966
3522.89432,0.00974
3520.83415,0.00966
3518.77398,0.00953
3516.71381,0.00948
3514.65363,0.00953
3512.59346,0.00977
3510.53329,0.01017
3508.47312,0.01048
3506.41295,0.01063
3504.35277,0.01084
3502.29260,0.01112
3500.23243,0.01121
3498.17226,0.01118
3496.11209,0.01125
3494.05191,0.01137
3491.99174,0.01140
3489.93157,0.01143
3487.87140,0.01149
3485.81123,0.01167
3483.75105,0.01203
3481.69088,0.01231
3479.63071,0.01223
3477.57054,0.01197
3475.51036,0.01191
3473.45019,0.01209
3471.39002,0.01233
3469.32985,0.01248
3467.26968,0.01253
3465.20950,0.01252
3463.14933,0.01258
3461.08916,0.01269
3459.02899,0.01271
3456.96882,0.01276
3454.90864,0.01296
3452.84847,0.01313
3450.78830,0.01326
3448.72813,0.01343
3446.66795,0.01357
3444.60778,0.01354
3442.54761,0.01349
3440.48744,0.01360
3438.42727,0.01389
3436.36709,0.01419
3434.30692,0.01427
3432.24675,0.01417
3430.18658,0.01405
3428.12641,0.01393
3426.06623,0.01398
3424.00606,0.01423
3421.94589,0.01445
3419.88572,0.01452
3417.82555,0.01459
3415.76537,0.01470
3413.70520,0.01474
3411.64503,0.01480
3409.58486,0.01483
3407.52468,0.01465
3405.46451,0.01457
3403.40434,0.01472
3401.34417,0.01477
3399.28400,0.01463
3397.22382,0.01486
3395.16365,0.01501
3393.10348,0.01504
3391.04331,0.01510
3388.98314,0.01513
3386.92296,0.01516
3384.86279,0.01528
3382.80262,0.01544
3380.74245,0.01554
3378.68228,0.01556
3376.62210,0.01546
3374.56193,0.01538
3372.50176,0.01544
3370.44159,0.01545
3368.38141,0.01537
3366.32124,0.01540
3364.26107,0.01553
3362.20090,0.01569
3360.14073,0.01586
3358.08055,0.01591
3356.02038,0.01599
3353.96021,0.01613
3351.90004,0.01605
3349.83987,0.01583
3347.77969,0.01590
3345.71952,0.01622
3343.65935,0.01634
3341.59918,0.01615
3339.53900,0.01602
3337.47883,0.01610
3335.41866,0.01626
3333.35849,0.01630
3331.29832,0.01619
3329.23814,0.01618
3327.17797,0.01635
3325.11780,0.01649
3323.05763,0.01639
3320.99746,0.01619
3318.93728,0.01616
3316.87711,0.01609
3314.81694,0.01576
3312.75677,0.01549
3310.69660,0.01557
3308.63642,0.01588
3306.57625,0.01613
3304.51608,0.01630
3302.45591,0.01647
3300.39573,0.01654
3298.33556,0.01653
3296.27539,0.01659
3294.21522,0.01654
3292.15505,0.01632
3290.09487,0.01625
3288.03470,0.01649
3285.97453,0.01681
3283.91436,0.01696
3281.85419,0.01692
3279.79401,0.01680
3277.73384,0.01670
3275.67367,0.01663
3273.61350,0.01655
3271.55333,0.01643
3269.49315,0.01642
3267.43298,0.01655
3265.37281,0.01661
3263.31264,0.01651
3261.25246,0.01640
3259.19229,0.01644
3257.13212,0.01655
3255.07195,0.01659
3253.01178,0.01655
3250.95160,0.01649
3248.89143,0.01645
3246.83126,0.01646
3244.77109,0.01651
3242.71092,0.01651
3240.65074,0.01635
3238.59057,0.01618
3236.53040,0.01623
3234.47023,0.01635
3232.41005,0.01638
3230.34988,0.01633
3228.28971,0.01620
3226.22954,0.01608
3224.16937,0.01606
3222.10919,0.01601
3220.04902,0.01591
3217.98885,0.01593
3215.92868,0.01608
3213.86851,0.01614
3211.80833,0.01616
3209.74816,0.01630
3207.68799,0.01626
3205.62782,0.01600
3203.56765,0.01584
3201.50747,0.01570
3199.44730,0.01547
3197.38713,0.01542
3195.32696,0.01554
3193.26678,0.01563
3191.20661,0.01571
3189.14644,0.01579
3187.08627,0.01580
3185.02610,0.01577
3182.96592,0.01577
3180.90575,0.01571
3178.84558,0.01561
3176.78541,0.01562
3174.72524,0.01576
3172.66506,0.01582
3170.60489,0.01574
3168.54472,0.01561
3166.48455,0.01551
3164.42437,0.01546
3162.36420,0.01535
3160.30403,0.01511
3158.24386,0.01486
3156.18369,0.01484
3154.12351,0.01509
3152.06334,0.01527
3150.00317,0.01516
3147.94300,0.01492
3145.88283,0.01485
3143.82265,0.01495
3141.76248,0.01496
3139.70231,0.01489
3137.64214,0.01490
3135.58197,0.01479
3133.52179,0.01460
3131.46162,0.01462
3129.40145,0.01471
3127.34128,0.01464
3125.28110,0.01451
3123.22093,0.01443
3121.16076,0.01429
3119.10059,0.01413
3117.04042,0.01407
3114.98024,0.01418
3112.92007,0.01438
3110.85990,0.01444
3108.79973,0.01436
3106.73956,0.01423
3104.67938,0.01411
3102.61921,0.01398
3100.55904,0.01384
3098.49887,0.01384
3096.43870,0.01393
3094.37852,0.01396
3092.31835,0.01391
3090.25818,0.01378
3088.19801,0.01355
3086.13783,0.01329
3084.07766,0.01311
3082.01749,0.01314
3079.95732,0.01327
3077.89715,0.01335
3075.83697,0.01339
3073.77680,0.01344
3071.71663,0.01343
3069.65646,0.01333
3067.59629,0.01320
3065.53611,0.01308
3063.47594,0.01307
3061.41577,0.01312
3059.35560,0.01313
3057.29542,0.01309
3055.23525,0.01313
3053.17508,0.01323
3051.11491,0.01323
3049.05474,0.01311
3046.99456,0.01296
3044.93439,0.01286
3042.87422,0.01278
3040.81405,0.01274
3038.75388,0.01271
3036.69370,0.01259
3034.63353,0.01250
3032.57336,0.01252
3030.51319,0.01252
3028.45302,0.01248
3026.39284,0.01239
3024.33267,0.01220
3022.27250,0.01210
3020.21233,0.01219
3018.15215,0.01212
3016.09198,0.01182
3014.03181,0.01164
3011.97164,0.01174
3009.91147,0.01182
3007.85129,0.01167
3005.79112,0.01156
3003.73095,0.01176
3001.67078,0.01190
2999.61061,0.01179
2997.55043,0.01154
2995.49026,0.01137
2993.43009,0.01140
2991.36992,0.01156
2989.30975,0.01170
2987.24957,0.01178
2985.18940,0.01181
2983.12923,0.01186
2981.06906,0.01199
2979.00888,0.01207
2976.94871,0.01198
2974.88854,0.01187
2972.82837,0.01181
2970.76820,0.01172
2968.70802,0.01171
2966.64785,0.01184
2964.58768,0.01200
2962.52751,0.01194
2960.46734,0.01171
2958.40716,0.01163
2956.34699,0.01174
2954.28682,0.01194
2952.22665,0.01208
2950.16647,0.01206
2948.10630,0.01199
2946.04613,0.01196
2943.98596,0.01207
2941.92579,0.01224
2939.86561,0.01222
2937.80544,0.01208
2935.74527,0.01203
2933.68510,0.01208
2931.62493,0.01210
2929.56475,0.01201
2927.50458,0.01195
2925.44441,0.01203
2923.38424,0.01225
2921.32407,0.01239
2919.26389,0.01225
2917.20372,0.01204
2915.14355,0.01188
2913.08338,0.01172
2911.02320,0.01158
2908.96303,0.01149
2906.90286,0.01146
2904.84269,0.01138
2902.78252,0.01130
2900.72234,0.01136
2898.66217,0.01138
2896.60200,0.01128
2894.54183,0.01119
2892.48166,0.01102
2890.42148,0.01085
2888.36131,0.01082
2886.30114,0.01091
2884.24097,0.01105
2882.18080,0.01111
2880.12062,0.01093
2878.06045,0.01072
2876.00028,0.01066
2873.94011,0.01065
2871.87993,0.01054
2869.81976,0.01037
2867.75959,0.01031
2865.69942,0.01031
2863.63925,0.01026
2861.57907,0.01031
2859.51890,0.01039
2857.45873,0.01033
2855.39856,0.01023
2853.33839,0.01012
2851.27821,0.00995
2849.21804,0.00985
2847.15787,0.00984
2845.09770,0.00980
2843.03752,0.00973
2840.97735,0.00965
2838.91718,0.00955
2836.85701,0.00942
2834.79684,0.00931
2832.73666,0.00917
2830.67649,0.00903
2828.61632,0.00896
2826.55615,0.00894
2824.49598,0.00891
2822.43580,0.00886
2820.37563,0.00884
2818.31546,0.00882
2816.25529,0.00875
2814.19512,0.00876
2812.13494,0.00876
2810.07477,0.00864
2808.01460,0.00851
2805.95443,0.00853
2803.89425,0.00861
2801.83408,0.00856
2799.77391,0.00846
2797.71374,0.00844
2795.65357,0.00845
2793.59339,0.00847
2791.53322,0.00842
2789.47305,0.00829
2787.41288,0.00819
2785.35271,0.00817
2783.29253,0.00812
2781.23236,0.00803
2779.17219,0.00802
2777.11202,0.00799
2775.05184,0.00781
2772.99167,0.00766
2770.93150,0.00773
2768.87133,0.00787
2766.81116,0.00794
2764.75098,0.00790
2762.69081,0.00774
2760.63064,0.00761
2758.57047,0.00754
2756.51030,0.00753
2754.45012,0.00756
2752.38995,0.00756
2750.32978,0.00765
2748.26961,0.00776
2746.20944,0.00772
2744.14926,0.00755
2742.08909,0.00744
2740.02892,0.00747
2737.96875,0.00754
2735.90857,0.00756
2733.84840,0.00750
2731.78823,0.00734
2729.72806,0.00718
2727.66789,0.00703
2725.60771,0.00693
2723.54754,0.00695
2721.48737,0.00697
2719.42720,0.00692
2717.36703,0.00687
2715.30685,0.00689
2713.24668,0.00694
2711.18651,0.00697
2709.12634,0.00701
2707.06617,0.00704
2705.00599,0.00705
2702.94582,0.00702
2700.88565,0.00696
2698.82548,0.00689
2696.76530,0.00684
2694.70513,0.00687
2692.64496,0.00682
2690.58479,0.00665
2688.52462,0.00653
2686.46444,0.00652
2684.40427,0.00653
2682.34410,0.00651
2680.28393,0.00654
2678.22376,0.00659
2676.16358,0.00659
2674.10341,0.00652
2672.04324,0.00642
2669.98307,0.00633
2667.92289,0.00637
2665.86272,0.00652
2663.80255,0.00657
2661.74238,0.00650
2659.68221,0.00641
2657.62203,0.00640
2655.56186,0.00657
2653.50169,0.00674
2651.44152,0.00664
2649.38135,0.00634
2647.32117,0.00611
2645.26100,0.00608
2643.20083,0.00616
2641.14066,0.00624
2639.08049,0.00634
2637.02031,0.00641
2634.96014,0.00633
2632.89997,0.00624
2630.83980,0.00620
2628.77962,0.00610
2626.71945,0.00606
2624.65928,0.00604
2622.59911,0.00588
2620.53894,0.00568
2618.47876,0.00557
2616.41859,0.00569
2614.35842,0.00586
2612.29825,0.00587
2610.23808,0.00585
2608.17790,0.00583
2606.11773,0.00569
2604.05756,0.00555
2601.99739,0.00554
2599.93722,0.00565
2597.87704,0.00579
2595.81687,0.00586
2593.75670,0.00592
2591.69653,0.00595
2589.63635,0.00584
2587.57618,0.00554
2585.51601,0.00522
2583.45584,0.00519
2581.39567,0.00554
2579.33549,0.00582
2577.27532,0.00586
2575.21515,0.00588
2573.15498,0.00572
2571.09481,0.00538
2569.03463,0.00524
2566.97446,0.00515
2564.91429,0.00491
2562.85412,0.00484
2560.79394,0.00504
2558.73377,0.00526
2556.67360,0.00545
2554.61343,0.00551
2552.55326,0.00548
2550.49308,0.00551
2548.43291,0.00539
2546.37274,0.00510
2544.31257,0.00488
2542.25240,0.00468
2540.19222,0.00464
2538.13205,0.00494
2536.07188,0.00519
2534.01171,0.00506
2531.95154,0.00505
2529.89136,0.00524
2527.83119,0.00514
2525.77102,0.00494
2523.71085,0.00486
2521.65067,0.00486
2519.59050,0.00495
2517.53033,0.00503
2515.47016,0.00528
2513.40999,0.00562
2511.34981,0.00558
2509.28964,0.00526
2507.22947,0.00518
2505.16930,0.00527
2503.10913,0.00515
2501.04895,0.00503
2498.98878,0.00518
2496.92861,0.00536
2494.86844,0.00528
2492.80827,0.00500
2490.74809,0.00487
2488.68792,0.00496
2486.62775,0.00519
2484.56758,0.00540
2482.50740,0.00544
2480.44723,0.00550
2478.38706,0.00561
2476.32689,0.00561
2474.26672,0.00553
2472.20654,0.00532
2470.14637,0.00529
2468.08620,0.00556
2466.02603,0.00568
2463.96586,0.00571
2461.90568,0.00585
2459.84551,0.00578
2457.78534,0.00546
2455.72517,0.00520
2453.66499,0.00513
2451.60482,0.00519
2449.54465,0.00507
2447.48448,0.00481
2445.42431,0.00489
2443.36413,0.00537
2441.30396,0.00570
2439.24379,0.00546
2437.18362,0.00520
2435.12345,0.00532
2433.06327,0.00541
2431.00310,0.00537
2428.94293,0.00530
2426.88276,0.00519
2424.82259,0.00516
2422.76241,0.00510
2420.70224,0.00494
2418.64207,0.00492
2416.58190,0.00499
2414.52172,0.00502
2412.46155,0.00513
2410.40138,0.00522
2408.34121,0.00521
2406.28104,0.00524
2404.22086,0.00530
2402.16069,0.00524
2400.10052,0.00513
2398.04035,0.00431
2395.98018,0.00435
2393.92000,0.00490
2391.85983,0.00552
2389.79966,0.00607
2387.73949,0.00647
2385.67931,0.00677
2383.61914,0.00699
2381.55897,0.00700
2379.49880,0.00681
2377.43863,0.00661
2375.37845,0.00628
2373.31828,0.00591
2371.25811,0.00593
2369.19794,0.00659
2367.13777,0.00788
2365.07759,0.00945
2363.01742,0.01045
2360.95725,0.01141
2358.89708,0.01153
2356.83691,0.01157
2354.77673,0.01148
2352.71656,0.01092
2350.65639,0.01156
2348.59622,0.01228
2346.53604,0.01067
2344.47587,0.00966
2342.41570,0.00972
2340.35553,0.01062
2338.29536,0.01154
2336.23518,0.01179
2334.17501,0.01159
2332.11484,0.01079
2330.05467,0.01012
2327.99450,0.00994
2325.93432,0.01032
2323.87415,0.00995
2321.81398,0.00897
2319.75381,0.00804
2317.69364,0.00790
2315.63346,0.00781
2313.57329,0.00751
2311.51312,0.00732
2309.45295,0.00725
2307.39277,0.00703
2305.33260,0.00669
2303.27243,0.00658
2301.21226,0.00658
2299.15209,0.00664
2297.09191,0.00685
2295.03174,0.00729
2292.97157,0.00771
2290.91140,0.00782
2288.85123,0.00752
2286.79105,0.00694
2284.73088,0.00632
2282.67071,0.00583
2280.61054,0.00552
2278.55036,0.00539
2276.49019,0.00534
2274.43002,0.00520
2272.36985,0.00497
2270.30968,0.00507
2268.24950,0.00546
2266.18933,0.00572
2264.12916,0.00564
2262.06899,0.00539
2260.00882,0.00524
2257.94864,0.00530
2255.88847,0.00514
2253.82830,0.00478
2251.76813,0.00473
2249.70796,0.00484
2247.64778,0.00513
2245.58761,0.00509
2243.52744,0.00471
2241.46727,0.00424
2239.40709,0.00382
2237.34692,0.00386
2235.28675,0.00437
2233.22658,0.00439
2231.16641,0.00393
2229.10623,0.00395
2227.04606,0.00432
2224.98589,0.00436
2222.92572,0.00412
2220.86555,0.00395
2218.80537,0.00412
2216.74520,0.00480
2214.68503,0.00545
2212.62486,0.00514
2210.56469,0.00414
2208.50451,0.00337
2206.44434,0.00332
2204.38417,0.00407
2202.32400,0.00473
2200.26382,0.00484
2198.20365,0.00473
2196.14348,0.00415
2194.08331,0.00369
2192.02314,0.00398
2189.96296,0.00429
2187.90279,0.00427
2185.84262,0.00453
2183.78245,0.00486
2181.72228,0.00482
2179.66210,0.00485
2177.60193,0.00459
2175.54176,0.00393
2173.48159,0.00383
2171.42141,0.00428
2169.36124,0.00486
2167.30107,0.00492
2165.24090,0.00448
2163.18073,0.00440
2161.12055,0.00367
2159.06038,0.00159
2157.00021,0.00084
2154.94004,0.00210
2152.87987,0.00302
2150.81969,0.00259
2148.75952,0.00191
2146.69935,0.00246
2144.63918,0.00373
2142.57901,0.00425
2140.51883,0.00400
2138.45866,0.00339
2136.39849,0.00265
2134.33832,0.00228
2132.27814,0.00251
2130.21797,0.00306
2128.15780,0.00330
2126.09763,0.00325
2124.03746,0.00326
2121.97728,0.00318
2119.91711,0.00312
2117.85694,0.00320
2115.79677,0.00337
2113.73660,0.00370
2111.67642,0.00395
2109.61625,0.00389
2107.55608,0.00361
2105.49591,0.00339
2103.43573,0.00350
2101.37556,0.00375
2099.31539,0.00424
2097.25522,0.00448
2095.19505,0.00451
2093.13487,0.00423
2091.07470,0.00362
2089.01453,0.00308
2086.95436,0.00298
2084.89419,0.00307
2082.83401,0.00304
2080.77384,0.00307
2078.71367,0.00333
2076.65350,0.00371
2074.59333,0.00395
2072.53315,0.00382
2070.47298,0.00364
2068.41281,0.00374
2066.35264,0.00380
2064.29246,0.00378
2062.23229,0.00403
2060.17212,0.00425
2058.11195,0.00390
2056.05178,0.00311
2053.99160,0.00278
2051.93143,0.00354
2049.87126,0.00418
2047.81109,0.00366
2045.75092,0.00302
2043.69074,0.00299
2041.63057,0.00321
2039.57040,0.00350
2037.51023,0.00397
2035.45006,0.00445
2033.38988,0.00466
2031.32971,0.00487
2029.26954,0.00509
2027.20937,0.00455
2025.14919,0.00322
2023.08902,0.00211
2021.02885,0.00203
2018.96868,0.00279
2016.90851,0.00339
2014.84833,0.00359
2012.78816,0.00377
2010.72799,0.00358
2008.66782,0.00312
2006.60765,0.00293
2004.54747,0.00282
2002.48730,0.00267
2000.42713,0.00236
1998.36696,0.00206
1996.30678,0.00214
1994.24661,0.00239
1992.18644,0.00278
1990.12627,0.00348
1988.06610,0.00380
1986.00592,0.00352
1983.94575,0.00343
1981.88558,0.00405
1979.82541,0.00465
1977.76524,0.00436
1975.70506,0.00420
1973.64489,0.00464
1971.58472,0.00436
1969.52455,0.00308
1967.46438,0.00187
1965.40420,0.00134
1963.34403,0.00140
1961.28386,0.00176
1959.22369,0.00219
1957.16351,0.00247
1955.10334,0.00237
1953.04317,0.00191
1950.98300,0.00129
1948.92283,0.00089
1946.86265,0.00104
1944.80248,0.00159
1942.74231,0.00223
1940.68214,0.00275
1938.62197,0.00309
1936.56179,0.00326
1934.50162,0.00334
1932.44145,0.00336
1930.38128,0.00315
1928.32111,0.00269
1926.26093,0.00240
1924.20076,0.00255
1922.14059,0.00287
1920.08042,0.00272
1918.02024,0.00228
1915.96007,0.00205
1913.89990,0.00195
1911.83973,0.00190
1909.77956,0.00196
1907.71938,0.00194
1905.65921,0.00183
1903.59904,0.00178
1901.53887,0.00191
1899.47870,0.00224
1897.41852,0.00252
1895.35835,0.00255
1893.29818,0.00241
1891.23801,0.00231
1889.17783,0.00235
1887.11766,0.00253
1885.05749,0.00258
1882.99732,0.00233
1880.93715,0.00201
1878.87697,0.00201
1876.81680,0.00235
1874.75663,0.00256
1872.69646,0.00238
1870.63629,0.00210
1868.57611,0.00195
1866.51594,0.00189
1864.45577,0.00186
1862.39560,0.00192
1860.33543,0.00198
1858.27525,0.00195
1856.21508,0.00195
1854.15491,0.00207
1852.09474,0.00214
1850.03456,0.00212
1847.97439,0.00215
1845.91422,0.00211
1843.85405,0.00200
1841.79388,0.00193
1839.73370,0.00186
1837.67353,0.00186
1835.61336,0.00200
1833.55319,0.00226
1831.49302,0.00254
1829.43284,0.00261
1827.37267,0.00244
1825.31250,0.00235
1823.25233,0.00237
1821.19216,0.00225
1819.13198,0.00196
1817.07181,0.00181
1815.01164,0.00182
1812.95147,0.00181
1810.89129,0.00175
1808.83112,0.00173
1806.77095,0.00168
1804.71078,0.00155
1802.65061,0.00143
1800.59043,0.00147
1798.53026,0.00166
1796.47009,0.00190
1794.40992,0.00201
1792.34975,0.00187
1790.28957,0.00165
1788.22940,0.00156
1786.16923,0.00159
1784.10906,0.00179
1782.04888,0.00203
1779.98871,0.00205
1777.92854,0.00191
1775.86837,0.00180
1773.80820,0.00179
1771.74802,0.00177
1769.68785,0.00167
1767.62768,0.00159
1765.56751,0.00155
1763.50734,0.00152
1761.44716,0.00160
1759.38699,0.00184
1757.32682,0.00219
1755.26665,0.00250
1753.20648,0.00269
1751.14630,0.00275
1749.08613,0.00266
1747.02596,0.00258
1744.96579,0.00272
1742.90561,0.00288
1740.84544,0.00290
1738.78527,0.00283
1736.72510,0.00274
1734.66493,0.00278
1732.60475,0.00297
1730.54458,0.00303
1728.48441,0.00287
1726.42424,0.00271
1724.36407,0.00270
1722.30389,0.00273
1720.24372,0.00278
1718.18355,0.00297
1716.12338,0.00312
1714.06320,0.00298
1712.00303,0.00267
1709.94286,0.00251
1707.88269,0.00257
1705.82252,0.00270
1703.76234,0.00283
1701.70217,0.00301
1699.64200,0.00321
1697.58183,0.00337
1695.52166,0.00357
1693.46148,0.00383
1691.40131,0.00412
1689.34114,0.00446
1687.28097,0.00481
1685.22080,0.00532
1683.16062,0.00590
1681.10045,0.00629
1679.04028,0.00652
1676.98011,0.00688
1674.91993,0.00748
1672.85976,0.00813
1670.79959,0.00875
1668.73942,0.00920
1666.67925,0.00930
1664.61907,0.00929
1662.55890,0.00939
1660.49873,0.00946
1658.43856,0.00943
1656.37839,0.00948
1654.31821,0.00977
1652.25804,0.01008
1650.19787,0.01014
1648.13770,0.01004
1646.07753,0.01000
1644.01735,0.00987
1641.95718,0.00967
1639.89701,0.00962
1637.83684,0.00983
1635.77666,0.01002
1633.71649,0.00983
1631.65632,0.00933
1629.59615,0.00895
1627.53598,0.00886
1625.47580,0.00894
1623.41563,0.00902
1621.35546,0.00887
1619.29529,0.00861
1617.23512,0.00850
1615.17494,0.00837
1613.11477,0.00820
1611.05460,0.00818
1608.99443,0.00832
1606.93425,0.00841
1604.87408,0.00842
1602.81391,0.00838
1600.75374,0.00826
1598.69357,0.00811
1596.63339,0.00800
1594.57322,0.00790
1592.51305,0.00775
1590.45288,0.00759
1588.39271,0.00746
1586.33253,0.00727
1584.27236,0.00695
1582.21219,0.00664
1580.15202,0.00644
1578.09185,0.00632
1576.03167,0.00615
1573.97150,0.00588
1571.91133,0.00568
1569.85116,0.00565
1567.79098,0.00560
1565.73081,0.00543
1563.67064,0.00535
1561.61047,0.00561
1559.55030,0.00590
1557.49012,0.00546
1555.42995,0.00482
1553.36978,0.00456
1551.30961,0.00459
1549.24944,0.00461
1547.18926,0.00453
1545.12909,0.00448
1543.06892,0.00450
1541.00875,0.00457
1538.94858,0.00440
1536.88840,0.00406
1534.82823,0.00390
1532.76806,0.00391
1530.70789,0.00378
1528.64771,0.00355
1526.58754,0.00334
1524.52737,0.00321
1522.46720,0.00316
1520.40703,0.00309
1518.34685,0.00314
1516.28668,0.00321
1514.22651,0.00305
1512.16634,0.00282
1510.10617,0.00271
1508.04599,0.00264
1505.98582,0.00246
1503.92565,0.00232
1501.86548,0.00226
1499.80530,0.00239
1497.74513,0.00254
1495.68496,0.00256
1493.62479,0.00254
1491.56462,0.00265
1489.50444,0.00286
1487.44427,0.00294
1485.38410,0.00280
1483.32393,0.00266
1481.26376,0.00267
1479.20358,0.00273
1477.14341,0.00281
1475.08324,0.00296
1473.02307,0.00311
1470.96290,0.00314
1468.90272,0.00315
1466.84255,0.00329
1464.78238,0.00352
1462.72221,0.00363
1460.66203,0.00370
1458.60186,0.00381
1456.54169,0.00381
1454.48152,0.00370
1452.42135,0.00360
1450.36117,0.00366
1448.30100,0.00379
1446.24083,0.00378
1444.18066,0.00367
1442.12049,0.00360
1440.06031,0.00361
1438.00014,0.00369
1435.93997,0.00379
1433.87980,0.00379
1431.81963,0.00379
1429.75945,0.00386
1427.69928,0.00391
1425.63911,0.00401
1423.57894,0.00420
1421.51876,0.00435
1419.45859,0.00445
1417.39842,0.00450
1415.33825,0.00446
1413.27808,0.00442
1411.21790,0.00440
1409.15773,0.00436
1407.09756,0.00433
1405.03739,0.00428
1402.97722,0.00419
1400.91704,0.00419
1398.85687,0.00420
1396.79670,0.00407
1394.73653,0.00390
1392.67635,0.00372
1390.61618,0.00361
1388.55601,0.00366
1386.49584,0.00377
1384.43567,0.00382
1382.37549,0.00383
1380.31532,0.00386
1378.25515,0.00392
1376.19498,0.00400
1374.13481,0.00401
1372.07463,0.00393
1370.01446,0.00380
1367.95429,0.00364
1365.89412,0.00349
1363.83395,0.00344
1361.77377,0.00345
1359.71360,0.00347
1357.65343,0.00350
1355.59326,0.00355
1353.53308,0.00355
1351.47291,0.00352
1349.41274,0.00348
1347.35257,0.00337
1345.29240,0.00319
1343.23222,0.00308
1341.17205,0.00306
1339.11188,0.00300
1337.05171,0.00286
1334.99154,0.00278
1332.93136,0.00278
1330.87119,0.00285
1328.81102,0.00293
1326.75085,0.00298
1324.69067,0.00300
1322.63050,0.00303
1320.57033,0.00304
1318.51016,0.00305
1316.44999,0.00308
1314.38981,0.00308
1312.32964,0.00305
1310.26947,0.00309
1308.20930,0.00313
1306.14913,0.00312
1304.08895,0.00314
1302.02878,0.00319
1299.96861,0.00327
1297.90844,0.00346
1295.84827,0.00370
1293.78809,0.00376
1291.72792,0.00363
1289.66775,0.00352
1287.60758,0.00347
1285.54740,0.00342
1283.48723,0.00340
1281.42706,0.00338
1279.36689,0.00327
1277.30672,0.00321
1275.24654,0.00331
1273.18637,0.00344
1271.12620,0.00348
1269.06603,0.00341
1267.00586,0.00328
1264.94568,0.00319
1262.88551,0.00330
1260.82534,0.00352
1258.76517,0.00360
1256.70500,0.00355
1254.64482,0.00354
1252.58465,0.00361
1250.52448,0.00362
1248.46431,0.00350
1246.40413,0.00337
1244.34396,0.00332
1242.28379,0.00323
1240.22362,0.00315
1238.16345,0.00318
1236.10327,0.00314
1234.04310,0.00301
1231.98293,0.00293
1229.92276,0.00295
1227.86259,0.00286
1225.80241,0.00264
1223.74224,0.00250
1221.68207,0.00245
1219.62190,0.00229
1217.56172,0.00206
1215.50155,0.00191
1213.44138,0.00179
1211.38121,0.00165
1209.32104,0.00158
1207.26086,0.00156
1205.20069,0.00143
1203.14052,0.00118
1201.08035,0.00107
1199.02018,0.00117
1196.96000,0.00121
1194.89983,0.00115
1192.83966,0.00115
1190.77949,0.00115
1188.71932,0.00107
1186.65914,0.00105
1184.59897,0.00119
1182.53880,0.00131
1180.47863,0.00134
1178.41845,0.00140
1176.35828,0.00161
1174.29811,0.00192
1172.23794,0.00208
1170.17777,0.00208
1168.11759,0.00214
1166.05742,0.00229
1163.99725,0.00256
1161.93708,0.00285
1159.87691,0.00304
1157.81673,0.00320
1155.75656,0.00344
1153.69639,0.00375
1151.63622,0.00405
1149.57605,0.00432
1147.51587,0.00460
1145.45570,0.00498
1143.39553,0.00537
1141.33536,0.00563
1139.27518,0.00583
1137.21501,0.00612
1135.15484,0.00654
1133.09467,0.00700
1131.03450,0.00749
1128.97432,0.00792
1126.91415,0.00827
1124.85398,0.00869
1122.79381,0.00923
1120.73364,0.00983
1118.67346,0.01044
1116.61329,0.01096
1114.55312,0.01141
1112.49295,0.01191
1110.43277,0.01244
1108.37260,0.01288
1106.31243,0.01325
1104.25226,0.01359
1102.19209,0.01396
1100.13191,0.01439
1098.07174,0.01481
1096.01157,0.01510
1093.95140,0.01534
1091.89123,0.01571
1089.83105,0.01615
1087.77088,0.01643
1085.71071,0.01649
1083.65054,0.01657
1081.59037,0.01684
1079.53019,0.01717
1077.47002,0.01731
1075.40985,0.01744
1073.34968,0.01775
1071.28950,0.01799
1069.22933,0.01803
1067.16916,0.01802
1065.10899,0.01811
1063.04882,0.01819
1060.98864,0.01813
1058.92847,0.01797
1056.86830,0.01788
1054.80813,0.01791
1052.74796,0.01771
1050.68778,0.01723
1048.62761,0.01681
1046.56744,0.01644
1044.50727,0.01602
1042.44710,0.01552
1040.38692,0.01500
1038.32675,0.01456
1036.26658,0.01413
1034.20641,0.01363
1032.14623,0.01293
1030.08606,0.01217
1028.02589,0.01155
1025.96572,0.01105
1023.90555,0.01062
1021.84537,0.01024
1019.78520,0.00996
1017.72503,0.00976
1015.66486,0.00950
1013.60469,0.00925
1011.54451,0.00913
1009.48434,0.00899
1007.42417,0.00891
1005.36400,0.00898
1003.30382,0.00914
1001.24365,0.00938
999.18348,0.00977
997.12331,0.01027
995.06314,0.01064
993.00296,0.01081
990.94279,0.01092
988.88262,0.01105
986.82245,0.01123
984.76228,0.01139
982.70210,0.01155
980.64193,0.01169
978.58176,0.01172
976.52159,0.01174
974.46142,0.01173
972.40124,0.01148
970.34107,0.01105
968.28090,0.01073
966.22073,0.01050
964.16055,0.01023
962.10038,0.00986
960.04021,0.00935
957.98004,0.00885
955.91987,0.00858
953.85969,0.00836
951.79952,0.00794
949.73935,0.00750
947.67918,0.00715
945.61901,0.00679
943.55883,0.00629
941.49866,0.00577
939.43849,0.00545
937.37832,0.00523
935.31814,0.00509
933.25797,0.00497
931.19780,0.00467
929.13763,0.00432
927.07746,0.00413
925.01728,0.00395
922.95711,0.00361
920.89694,0.00330
918.83677,0.00326
916.77660,0.00341
914.71642,0.00345
912.65625,0.00335
910.59608,0.00318
908.53591,0.00304
906.47574,0.00301
904.41556,0.00299
902.35539,0.00292
900.29522,0.00282
898.23505,0.00277
896.17487,0.00286
894.11470,0.00307
892.05453,0.00331
889.99436,0.00340
887.93419,0.00343
885.87401,0.00375
883.81384,0.00419
881.75367,0.00442
879.69350,0.00439
877.63333,0.00429
875.57315,0.00444
873.51298,0.00480
871.45281,0.00514
869.39264,0.00535
867.33247,0.00556
865.27229,0.00573
863.21212,0.00575
861.15195,0.00588
859.09178,0.00607
857.03160,0.00601
854.97143,0.00594
852.91126,0.00605
850.85109,0.00594
848.79092,0.00561
846.73074,0.00553
844.67057,0.00567
842.61040,0.00569
840.55023,0.00548
838.49006,0.00525
836.42988,0.00504
834.36971,0.00457
832.30954,0.00416
830.24937,0.00403
828.18919,0.00393
826.12902,0.00385
824.06885,0.00373
822.00868,0.00356
819.94851,0.00355
817.88833,0.00363
815.82816,0.00363
813.76799,0.00360
811.70782,0.00356
809.64765,0.00337
807.58747,0.00323
805.52730,0.00329
803.46713,0.00329
801.40696,0.00322
799.34679,0.00303
797.28661,0.00278
795.22644,0.00263
793.16627,0.00256
791.10610,0.00258
789.04592,0.00251
786.98575,0.00236
784.92558,0.00246
782.86541,0.00266
780.80524,0.00281
778.74506,0.00309
776.68489,0.00322
774.62472,0.00305
772.56455,0.00303
770.50438,0.00309
768.44420,0.00292
766.38403,0.00261
764.32386,0.00219
762.26369,0.00204
760.20352,0.00243
758.14334,0.00279
756.08317,0.00277
754.02300,0.00257
751.96283,0.00224
749.90265,0.00191
747.84248,0.00179
745.78231,0.00213
743.72214,0.00266
741.66197,0.00283
739.60179,0.00266
737.54162,0.00259
735.48145,0.00274
733.42128,0.00272
731.36111,0.00256
729.30093,0.00275
727.24076,0.00279
725.18059,0.00258
723.12042,0.00330
721.06024,0.00301
719.00007,0.00266
716.93990,0.00253
714.87973,0.00244
712.81956,0.00258
710.75938,0.00286
708.69921,0.00285
706.63904,0.00263
704.57887,0.00268
702.51870,0.00302
700.45852,0.00348
698.39835,0.00397
696.33818,0.00443
694.27801,0.00484
692.21784,0.00494
690.15766,0.00434
688.09749,0.00360
686.03732,0.00368
683.97715,0.00468
681.91697,0.00579
679.85680,0.00627
677.79663,0.00608
675.73646,0.00558
673.67629,0.00520
671.61611,0.00450
669.55594,0.00214
667.49577,0.00119
665.43560,0.00447
663.37543,0.00465
661.31525,0.00346
659.25508,0.00305
657.19491,0.00403
655.13474,0.00527
653.07457,0.00578
651.01439,0.00565
648.95422,0.00521
646.89405,0.00506
644.83388,0.00501
642.77370,0.00464
640.71353,0.00374
638.65336,0.00246
636.59319,0.00135
634.53302,0.00120
632.47284,0.00181
630.41267,0.00214
628.35250,0.00194
626.29233,0.00149
624.23216,0.00138
622.17198,0.00161
620.11181,0.00157
618.05164,0.00180
615.99147,0.00298
613.93129,0.00416
611.87112,0.00418
609.81095,0.00315
607.75078,0.00180
605.69061,0.00069
603.63043,0.00000
601.57026,-0.00030
599.51009,0.00000
