3996.73391,-0.00084
3994.67373,-0.00107
3992.61356,-0.00109
3990.55339,-0.00081
3988.49322,-0.00060
3986.43305,-0.00055
3984.37287,-0.00044
3982.31270,-0.00026
3980.25253,-0.00021
3978.19236,-0.00031
3976.13219,-0.00041
3974.07201,-0.00046
3972.01184,-0.00050
3969.95167,-0.00044
3967.89150,-0.00014
3965.83133,0.00024
3963.77115,0.00040
3961.71098,0.00025
3959.65081,-0.00001
3957.59064,-0.00014
3955.53046,-0.00005
3953.47029,0.00020
3951.41012,0.00033
3949.34995,0.00015
3947.28978,0.00000
3945.22960,0.00022
3943.16943,0.00048
3941.10926,0.00044
3939.04909,0.00023
3936.98892,0.00008
3934.92874,0.00005
3932.86857,0.00020
3930.80840,0.00058
3928.74823,0.00083
3926.68805,0.00078
3924.62788,0.00059
3922.56771,0.00028
3920.50754,-0.00001
3918.44737,0.00000
3916.38719,0.00046
3914.32702,0.00107
3912.26685,0.00131
3910.20668,0.00116
3908.14651,0.00087
3906.08633,0.00062
3904.02616,0.00045
3901.96599,0.00056
3899.90582,0.00106
3897.84565,0.00141
3895.78547,0.00129
3893.72530,0.00102
3891.66513,0.00097
3889.60496,0.00108
3887.54478,0.00105
3885.48461,0.00092
3883.42444,0.00077
3881.36427,0.00067
3879.30410,0.00074
3877.24392,0.00075
3875.18375,0.00057
3873.12358,0.00041
3871.06341,0.00044
3869.00324,0.00073
3866.94306,0.00092
3864.88289,0.00095
3862.82272,0.00109
3860.76255,0.00114
3858.70237,0.00073
3856.64220,0.00000
3854.58203,0.00006
3852.52186,0.00150
3850.46169,0.00252
3848.40151,0.00212
3846.34134,0.00135
3844.28117,0.00109
3842.22100,0.00123
3840.16083,0.00128
3838.10065,0.00120
3836.04048,0.00128
3833.98031,0.00164
3831.92014,0.00210
3829.85997,0.00238
3827.79979,0.00228
3825.73962,0.00192
3823.67945,0.00173
3821.61928,0.00198
3819.55910,0.00208
3817.49893,0.00194
3815.43876,0.00211
3813.37859,0.00233
3811.31842,0.00217
3809.25824,0.00200
3807.19807,0.00206
3805.13790,0.00209
3803.07773,0.00207
3801.01756,0.00219
3798.95738,0.00212
3796.89721,0.00203
3794.83704,0.00247
3792.77687,0.00304
3790.71670,0.00320
3788.65652,0.00310
3786.59635,0.00301
3784.53618,0.00293
3782.47601,0.00290
3780.41583,0.00306
3778.35566,0.00331
3776.29549,0.00345
3774.23532,0.00344
3772.17515,0.00335
3770.11497,0.00324
3768.05480,0.00309
3765.99463,0.00296
3763.93446,0.00276
3761.87429,0.00244
3759.81411,0.00215
3757.75394,0.00189
3755.69377,0.00164
3753.63360,0.00140
3751.57342,0.00096
3749.51325,0.00037
3747.45308,0.00005
3745.39291,0.00000
3743.33274,0.00069
3741.27256,0.00140
3739.21239,0.00134
3737.15222,0.00121
3735.09205,0.00139
3733.03188,0.00156
3730.97170,0.00164
3728.91153,0.00166
3726.85136,0.00165
3724.79119,0.00177
3722.73102,0.00212
3720.67084,0.00251
3718.61067,0.00250
3716.55050,0.00226
3714.49033,0.00233
3712.43015,0.00277
3710.36998,0.00305
3708.30981,0.00300
3706.24964,0.00288
3704.18947,0.00279
3702.12929,0.00274
3700.06912,0.00274
3698.00895,0.00281
3695.94878,0.00292
3693.88861,0.00313
3691.82843,0.00347
3689.76826,0.00369
3687.70809,0.00369
3685.64792,0.00370
3683.58775,0.00360
3681.52757,0.00339
3679.46740,0.00320
3677.40723,0.00327
3675.34706,0.00354
3673.28688,0.00344
3671.22671,0.00335
3669.16654,0.00374
3667.10637,0.00395
3665.04620,0.00372
3662.98602,0.00343
3660.92585,0.00326
3658.86568,0.00332
3656.80551,0.00363
3654.74534,0.00388
3652.68516,0.00393
3650.62499,0.00414
3648.56482,0.00468
3646.50465,0.00513
3644.44447,0.00501
3642.38430,0.00484
3640.32413,0.00502
3638.26396,0.00522
3636.20379,0.00533
3634.14361,0.00548
3632.08344,0.00563
3630.02327,0.00581
3627.96310,0.00617
3625.90293,0.00647
3623.84275,0.00657
3621.78258,0.00664
3619.72241,0.00686
3617.66224,0.00703
3615.60207,0.00692
3613.54189,0.00670
3611.48172,0.00669
3609.42155,0.00710
3607.36138,0.00774
3605.30120,0.00819
3603.24103,0.00836
3601.18086,0.00847
3599.12069,0.00863
3597.06052,0.00878
3595.00034,0.00896
3592.94017,0.00917
3590.88000,0.00941
3588.81983,0.00961
3586.75966,0.00973
3584.69948,0.00995
3582.63931,0.01033
3580.57914,0.01074
3578.51897,0.01106
3576.45879,0.01131
3574.39862,0.01144
3572.33845,0.01155
3570.27828,0.01171
3568.21811,0.01180
3566.15793,0.01193
3564.09776,0.01223
3562.03759,0.01256
3559.97742,0.01287
3557.91725,0.01312
3555.85707,0.01323
3553.79690,0.01324
3551.73673,0.01323
3549.67656,0.01317
3547.61639,0.01296
3545.55621,0.01292
3543.49604,0.01343
3541.43587,0.01423
3539.37570,0.01487
3537.31552,0.01516
3535.25535,0.01521
3533.19518,0.01526
3531.13501,0.01544
3529.07484,0.01561
3527.01466,0.01564
3524.95449,0.01562
3522.89432,0.01576
3520.83415,0.01610
3518.77398,0.01658
3516.71380,0.01704
3514.65363,0.01735
3512.59346,0.01745
3510.53329,0.01737
3508.47312,0.01726
3506.41294,0.01729
3504.35277,0.01751
3502.29260,0.01781
3500.23243,0.01810
3498.17225,0.01840
3496.11208,0.01869
3494.05191,0.01888
3491.99174,0.01904
3489.93157,0.01933
3487.87139,0.01957
3485.81122,0.01957
3483.75105,0.01965
3481.69088,0.01987
3479.63071,0.01998
3477.57053,0.02014
3475.51036,0.02054
3473.45019,0.02085
3471.39002,0.02086
3469.32984,0.02079
3467.26967,0.02078
3465.20950,0.02086
3463.14933,0.02095
3461.08916,0.02101
3459.02898,0.02116
3456.96881,0.02144
3454.90864,0.02174
3452.84847,0.02200
3450.78830,0.02216
3448.72812,0.02225
3446.66795,0.02223
3444.60778,0.02212
3442.54761,0.02212
3440.48744,0.02218
3438.42726,0.02219
3436.36709,0.02233
3434.30692,0.02272
3432.24675,0.02308
3430.18657,0.02330
3428.12640,0.02345
3426.06623,0.02350
3424.00606,0.02349
3421.94589,0.02357
3419.88571,0.02376
3417.82554,0.02407
3415.76537,0.02433
3413.70520,0.02452
3411.64503,0.02469
3409.58485,0.02473
3407.52468,0.02470
3405.46451,0.02475
3403.40434,0.02482
3401.34416,0.02487
3399.28399,0.02446
3397.22382,0.02448
3395.16365,0.02468
3393.10348,0.02475
3391.04330,0.02476
3388.98313,0.02500
3386.92296,0.02531
3384.86279,0.02549
3382.80262,0.02561
3380.74244,0.02574
3378.68227,0.02588
3376.62210,0.02608
3374.56193,0.02638
3372.50176,0.02656
3370.44158,0.02645
3368.38141,0.02626
3366.32124,0.02615
3364.26107,0.02622
3362.20089,0.02649
3360.14072,0.02673
3358.08055,0.02690
3356.02038,0.02697
3353.96021,0.02694
3351.90003,0.02693
3349.83986,0.02706
3347.77969,0.02729
3345.71952,0.02745
3343.65935,0.02744
3341.59917,0.02726
3339.53900,0.02706
3337.47883,0.02715
3335.41866,0.02748
3333.35849,0.02782
3331.29831,0.02816
3329.23814,0.02838
3327.17797,0.02827
3325.11780,0.02796
3323.05762,0.02787
3320.99745,0.02801
3318.93728,0.02803
3316.87711,0.02791
3314.81694,0.02780
3312.75676,0.02767
3310.69659,0.02761
3308.63642,0.02781
3306.57625,0.02818
3304.51608,0.02847
3302.45590,0.02860
3300.39573,0.02854
3298.33556,0.02835
3296.27539,0.02827
3294.21521,0.02834
3292.15504,0.02844
3290.09487,0.02860
3288.03470,0.02881
3285.97453,0.02898
3283.91435,0.02914
3281.85418,0.02927
3279.79401,0.02910
3277.73384,0.02876
3275.67367,0.02865
3273.61349,0.02874
3271.55332,0.02880
3269.49315,0.02885
3267.43298,0.02903
3265.37281,0.02920
3263.31263,0.02920
3261.25246,0.02915
3259.19229,0.02929
3257.13212,0.02942
3255.07194,0.02939
3253.01177,0.02947
3250.95160,0.02963
3248.89143,0.02968
3246.83126,0.02963
3244.77108,0.02969
3242.71091,0.02989
3240.65074,0.02996
3238.59057,0.02991
3236.53040,0.02986
3234.47022,0.02982
3232.41005,0.02982
3230.34988,0.02985
3228.28971,0.02992
3226.22954,0.03002
3224.16936,0.03005
3222.10919,0.02993
3220.04902,0.02966
3217.98885,0.02956
3215.92867,0.02974
3213.86850,0.02995
3211.80833,0.03006
3209.74816,0.03007
3207.68799,0.03001
3205.62781,0.02996
3203.56764,0.02997
3201.50747,0.02996
3199.44730,0.02996
3197.38713,0.03001
3195.32695,0.03004
3193.26678,0.03005
3191.20661,0.03004
3189.14644,0.02996
3187.08626,0.02982
3185.02609,0.02959
3182.96592,0.02947
3180.90575,0.02956
3178.84558,0.02964
3176.78540,0.02980
3174.72523,0.03002
3172.66506,0.03006
3170.60489,0.02999
3168.54472,0.02995
3166.48454,0.02995
3164.42437,0.03003
3162.36420,0.03013
3160.30403,0.03021
3158.24386,0.03031
3156.18368,0.03025
3154.12351,0.02993
3152.06334,0.02972
3150.00317,0.02979
3147.94299,0.02986
3145.88282,0.02980
3143.82265,0.02973
3141.76248,0.02974
3139.70231,0.02975
3137.64213,0.02967
3135.58196,0.02957
3133.52179,0.02949
3131.46162,0.02949
3129.40145,0.02948
3127.34127,0.02928
3125.28110,0.02908
3123.22093,0.02904
3121.16076,0.02900
3119.10058,0.02891
3117.04041,0.02875
3114.98024,0.02864
3112.92007,0.02874
3110.85990,0.02893
3108.79972,0.02893
3106.73955,0.02878
3104.67938,0.02858
3102.61921,0.02842
3100.55904,0.02836
3098.49886,0.02833
3096.43869,0.02828
3094.37852,0.02823
3092.31835,0.02826
3090.25818,0.02818
3088.19800,0.02800
3086.13783,0.02793
3084.07766,0.02794
3082.01749,0.02788
3079.95731,0.02782
3077.89714,0.02790
3075.83697,0.02790
3073.77680,0.02776
3071.71663,0.02771
3069.65645,0.02773
3067.59628,0.02758
3065.53611,0.02737
3063.47594,0.02740
3061.41577,0.02760
3059.35559,0.02759
3057.29542,0.02725
3055.23525,0.02685
3053.17508,0.02665
3051.11491,0.02660
3049.05473,0.02652
3046.99456,0.02641
3044.93439,0.02634
3042.87422,0.02643
3040.81404,0.02655
3038.75387,0.02647
3036.69370,0.02618
3034.63353,0.02597
3032.57336,0.02588
3030.51318,0.02571
3028.45301,0.02556
3026.39284,0.02561
3024.33267,0.02572
3022.27250,0.02577
3020.21232,0.02572
3018.15215,0.02553
3016.09198,0.02518
3014.03181,0.02484
3011.97163,0.02467
3009.91146,0.02458
3007.85129,0.02452
3005.79112,0.02454
3003.73095,0.02457
3001.67077,0.02447
2999.61060,0.02435
2997.55043,0.02421
2995.49026,0.02409
2993.43009,0.02401
2991.36991,0.02406
2989.30974,0.02398
2987.24957,0.02372
2985.18940,0.02363
2983.12923,0.02366
2981.06905,0.02365
2979.00888,0.02362
2976.94871,0.02360
2974.88854,0.02345
2972.82836,0.02320
2970.76819,0.02304
2968.70802,0.02304
2966.64785,0.02301
2964.58768,0.02296
2962.52750,0.02298
2960.46733,0.02300
2958.40716,0.02304
2956.34699,0.02302
2954.28682,0.02287
2952.22664,0.02275
2950.16647,0.02264
2948.10630,0.02246
2946.04613,0.02234
2943.98596,0.02231
2941.92578,0.02221
2939.86561,0.02206
2937.80544,0.02200
2935.74527,0.02206
2933.68509,0.02217
2931.62492,0.02220
2929.56475,0.02211
2927.50458,0.02201
2925.44441,0.02190
2923.38423,0.02183
2921.32406,0.02195
2919.26389,0.02210
2917.20372,0.02205
2915.14355,0.02189
2913.08337,0.02179
2911.02320,0.02166
2908.96303,0.02141
2906.90286,0.02110
2904.84268,0.02082
2902.78251,0.02063
2900.72234,0.02056
2898.66217,0.02063
2896.60200,0.02070
2894.54182,0.02065
2892.48165,0.02054
2890.42148,0.02046
2888.36131,0.02043
2886.30114,0.02038
2884.24096,0.02042
2882.18079,0.02054
2880.12062,0.02044
2878.06045,0.02010
2876.00028,0.01978
2873.94010,0.01964
2871.87993,0.01963
2869.81976,0.01964
2867.75959,0.01962
2865.69941,0.01956
2863.63924,0.01946
2861.57907,0.01939
2859.51890,0.01936
2857.45873,0.01933
2855.39855,0.01936
2853.33838,0.01937
2851.27821,0.01929
2849.21804,0.01925
2847.15787,0.01926
2845.09769,0.01914
2843.03752,0.01892
2840.97735,0.01870
2838.91718,0.01848
2836.85700,0.01832
2834.79683,0.01827
2832.73666,0.01832
2830.67649,0.01831
2828.61632,0.01812
2826.55614,0.01797
2824.49597,0.01801
2822.43580,0.01804
2820.37563,0.01800
2818.31546,0.01798
2816.25528,0.01792
2814.19511,0.01783
2812.13494,0.01779
2810.07477,0.01775
2808.01460,0.01763
2805.95442,0.01744
2803.89425,0.01728
2801.83408,0.01722
2799.77391,0.01719
2797.71373,0.01707
2795.65356,0.01696
2793.59339,0.01696
2791.53322,0.01703
2789.47305,0.01705
2787.41287,0.01695
2785.35270,0.01681
2783.29253,0.01679
2781.23236,0.01673
2779.17219,0.01663
2777.11201,0.01659
2775.05184,0.01651
2772.99167,0.01638
2770.93150,0.01629
2768.87133,0.01623
2766.81115,0.01624
2764.75098,0.01626
2762.69081,0.01618
2760.63064,0.01597
2758.57046,0.01576
2756.51029,0.01572
2754.45012,0.01576
2752.38995,0.01577
2750.32978,0.01564
2748.26960,0.01540
2746.20943,0.01523
2744.14926,0.01517
2742.08909,0.01517
2740.02892,0.01521
2737.96874,0.01521
2735.90857,0.01508
2733.84840,0.01494
2731.78823,0.01494
2729.72805,0.01496
2727.66788,0.01485
2725.60771,0.01467
2723.54754,0.01453
2721.48737,0.01446
2719.42719,0.01450
2717.36702,0.01460
2715.30685,0.01460
2713.24668,0.01446
2711.18651,0.01437
2709.12633,0.01433
2707.06616,0.01416
2705.00599,0.01393
2702.94582,0.01388
2700.88565,0.01402
2698.82547,0.01405
2696.76530,0.01388
2694.70513,0.01374
2692.64496,0.01367
2690.58478,0.01362
2688.52461,0.01351
2686.46444,0.01339
2684.40427,0.01328
2682.34410,0.01318
2680.28392,0.01309
2678.22375,0.01306
2676.16358,0.01312
2674.10341,0.01321
2672.04324,0.01318
2669.98306,0.01307
2667.92289,0.01301
2665.86272,0.01295
2663.80255,0.01279
2661.74238,0.01257
2659.68220,0.01237
2657.62203,0.01232
2655.56186,0.01239
2653.50169,0.01243
2651.44151,0.01236
2649.38134,0.01226
2647.32117,0.01214
2645.26100,0.01199
2643.20083,0.01190
2641.14065,0.01185
2639.08048,0.01177
2637.02031,0.01177
2634.96014,0.01178
2632.89997,0.01172
2630.83979,0.01167
2628.77962,0.01160
2626.71945,0.01149
2624.65928,0.01147
2622.59910,0.01152
2620.53893,0.01147
2618.47876,0.01135
2616.41859,0.01122
2614.35842,0.01112
2612.29824,0.01110
2610.23807,0.01104
2608.17790,0.01096
2606.11773,0.01098
2604.05756,0.01095
2601.99738,0.01085
2599.93721,0.01080
2597.87704,0.01063
2595.81687,0.01037
2593.75670,0.01040
2591.69652,0.01070
2589.63635,0.01089
2587.57618,0.01089
2585.51601,0.01078
2583.45583,0.01060
2581.39566,0.01057
2579.33549,0.01072
2577.27532,0.01083
2575.21515,0.01083
2573.15497,0.01070
2571.09480,0.01040
2569.03463,0.01028
2566.97446,0.01050
2564.91429,0.01064
2562.85411,0.01061
2560.79394,0.01068
2558.73377,0.01075
2556.67360,0.01059
2554.61342,0.01051
2552.55325,0.01082
2550.49308,0.01118
2548.43291,0.01127
2546.37274,0.01114
2544.31256,0.01095
2542.25239,0.01075
2540.19222,0.01049
2538.13205,0.01038
2536.07188,0.01044
2534.01170,0.01053
2531.95153,0.01070
2529.89136,0.01085
2527.83119,0.01094
2525.77102,0.01099
2523.71084,0.01094
2521.65067,0.01073
2519.59050,0.01060
2517.53033,0.01059
2515.47015,0.01051
2513.40998,0.01050
2511.34981,0.01065
2509.28964,0.01081
2507.22947,0.01094
2505.16929,0.01097
2503.10912,0.01089
2501.04895,0.01076
2498.98878,0.01051
2496.92861,0.01045
2494.86843,0.01082
2492.80826,0.01124
2490.74809,0.01131
2488.68792,0.01104
2486.62775,0.01093
2484.56757,0.01117
2482.50740,0.01132
2480.44723,0.01120
2478.38706,0.01109
2476.32688,0.01110
2474.26671,0.01114
2472.20654,0.01130
2470.14637,0.01152
2468.08620,0.01145
2466.02602,0.01120
2463.96585,0.01123
2461.90568,0.01143
2459.84551,0.01143
2457.78534,0.01126
2455.72516,0.01120
2453.66499,0.01123
2451.60482,0.01114
2449.54465,0.01114
2447.48447,0.01143
2445.42430,0.01173
2443.36413,0.01177
2441.30396,0.01169
2439.24379,0.01171
2437.18361,0.01178
2435.12344,0.01170
2433.06327,0.01148
2431.00310,0.01126
2428.94293,0.01124
2426.88275,0.01132
2424.82258,0.01130
2422.76241,0.01133
2420.70224,0.01145
2418.64207,0.01147
2416.58189,0.01131
2414.52172,0.01111
2412.46155,0.01101
2410.40138,0.01106
2408.34120,0.01110
2406.28103,0.01113
2404.22086,0.01123
2402.16069,0.01126
2400.10052,0.01118
2398.04034,0.01132
2395.98017,0.01148
2393.92000,0.01154
2391.85983,0.01140
2389.79966,0.01115
2387.73948,0.01091
2385.67931,0.01071
2383.61914,0.01049
2381.55897,0.01034
2379.49880,0.01042
2377.43862,0.01062
2375.37845,0.01061
2373.31828,0.01054
2371.25811,0.01045
2369.19793,0.01033
2367.13776,0.01040
2365.07759,0.01054
2363.01742,0.01029
2360.95725,0.01039
2358.89707,0.01047
2356.83690,0.01039
2354.77673,0.00992
2352.71656,0.00961
2350.65639,0.01008
2348.59621,0.01034
2346.53604,0.00928
2344.47587,0.00914
2342.41570,0.00961
2340.35552,0.01003
2338.29535,0.01011
2336.23518,0.00984
2334.17501,0.00966
2332.11484,0.00968
2330.05466,0.00968
2327.99449,0.00938
2325.93432,0.00917
2323.87415,0.00884
2321.81398,0.00884
2319.75380,0.00889
2317.69363,0.00900
2315.63346,0.00884
2313.57329,0.00863
2311.51312,0.00858
2309.45294,0.00864
2307.39277,0.00885
2305.33260,0.00919
2303.27243,0.00956
2301.21225,0.00973
2299.15208,0.00963
2297.09191,0.00936
2295.03174,0.00922
2292.97157,0.00939
2290.91139,0.00964
2288.85122,0.00972
2286.79105,0.00958
2284.73088,0.00955
2282.67071,0.00986
2280.61053,0.01033
2278.55036,0.01053
2276.49019,0.01033
2274.43002,0.00995
2272.36984,0.00961
2270.30967,0.00955
2268.24950,0.00989
2266.18933,0.01019
2264.12916,0.01002
2262.06898,0.00973
2260.00881,0.00977
2257.94864,0.01000
2255.88847,0.01012
2253.82830,0.00988
2251.76812,0.00933
2249.70795,0.00901
2247.64778,0.00901
2245.58761,0.00918
2243.52744,0.00927
2241.46726,0.00926
2239.40709,0.00948
2237.34692,0.00969
2235.28675,0.00966
2233.22657,0.00985
2231.16640,0.01032
2229.10623,0.01047
2227.04606,0.01015
2224.98589,0.00983
2222.92571,0.00943
2220.86554,0.00865
2218.80537,0.00806
2216.74520,0.00805
2214.68503,0.00819
2212.62485,0.00837
2210.56468,0.00877
2208.50451,0.00898
2206.44434,0.00868
2204.38417,0.00841
2202.32399,0.00875
2200.26382,0.00894
2198.20365,0.00879
2196.14348,0.00904
2194.08330,0.00916
2192.02313,0.00887
2189.96296,0.00869
2187.90279,0.00852
2185.84262,0.00827
2183.78244,0.00804
2181.72227,0.00789
2179.66210,0.00845
2177.60193,0.00981
2175.54176,0.01036
2173.48158,0.00942
2171.42141,0.00815
2169.36124,0.00751
2167.30107,0.00765
2165.24089,0.00810
2163.18072,0.00807
2161.12055,0.00725
2159.06038,0.00632
2157.00021,0.00650
2154.94003,0.00767
2152.87986,0.00858
2150.81969,0.00865
2148.75952,0.00802
2146.69935,0.00736
2144.63917,0.00726
2142.57900,0.00748
2140.51883,0.00767
2138.45866,0.00771
2136.39849,0.00752
2134.33831,0.00722
2132.27814,0.00710
2130.21797,0.00725
2128.15780,0.00766
2126.09762,0.00817
2124.03745,0.00833
2121.97728,0.00810
2119.91711,0.00780
2117.85694,0.00740
2115.79676,0.00698
2113.73659,0.00697
2111.67642,0.00723
2109.61625,0.00726
2107.55608,0.00720
2105.49590,0.00720
2103.43573,0.00696
2101.37556,0.00679
2099.31539,0.00736
2097.25521,0.00775
2095.19504,0.00756
2093.13487,0.00691
2091.07470,0.00619
2089.01453,0.00583
2086.95435,0.00592
2084.89418,0.00615
2082.83401,0.00658
2080.77384,0.00732
2078.71367,0.00785
2076.65349,0.00790
2074.59332,0.00784
2072.53315,0.00764
2070.47298,0.00731
2068.41281,0.00739
2066.35263,0.00769
2064.29246,0.00737
2062.23229,0.00662
2060.17212,0.00614
2058.11194,0.00610
2056.05177,0.00634
2053.99160,0.00672
2051.93143,0.00697
2049.87126,0.00686
2047.81108,0.00671
2045.75091,0.00709
2043.69074,0.00769
2041.63057,0.00798
2039.57040,0.00817
2037.51022,0.00845
2035.45005,0.00848
2033.38988,0.00800
2031.32971,0.00726
2029.26954,0.00685
2027.20936,0.00733
2025.14919,0.00808
2023.08902,0.00823
2021.02885,0.00784
2018.96867,0.00757
2016.90850,0.00779
2014.84833,0.00794
2012.78816,0.00762
2010.72799,0.00743
2008.66781,0.00762
2006.60764,0.00742
2004.54747,0.00636
2002.48730,0.00549
2000.42713,0.00583
1998.36695,0.00645
1996.30678,0.00622
1994.24661,0.00579
1992.18644,0.00577
1990.12626,0.00577
1988.06609,0.00562
1986.00592,0.00552
1983.94575,0.00573
1981.88558,0.00642
1979.82540,0.00725
1977.76523,0.00764
1975.70506,0.00753
1973.64489,0.00735
1971.58472,0.00723
1969.52454,0.00702
1967.46437,0.00685
1965.40420,0.00668
1963.34403,0.00640
1961.28386,0.00633
1959.22368,0.00639
1957.16351,0.00609
1955.10334,0.00559
1953.04317,0.00542
1950.98299,0.00569
1948.92282,0.00631
1946.86265,0.00690
1944.80248,0.00715
1942.74231,0.00725
1940.68213,0.00728
1938.62196,0.00713
1936.56179,0.00699
1934.50162,0.00713
1932.44145,0.00730
1930.38127,0.00719
1928.32110,0.00708
1926.26093,0.00696
1924.20076,0.00653
1922.14059,0.00598
1920.08041,0.00568
1918.02024,0.00567
1915.96007,0.00579
1913.89990,0.00602
1911.83972,0.00625
1909.77955,0.00620
1907.71938,0.00606
1905.65921,0.00609
1903.59904,0.00610
1901.53886,0.00595
1899.47869,0.00581
1897.41852,0.00581
1895.35835,0.00580
1893.29818,0.00573
1891.23800,0.00587
1889.17783,0.00617
1887.11766,0.00632
1885.05749,0.00622
1882.99731,0.00595
1880.93714,0.00574
1878.87697,0.00577
1876.81680,0.00594
1874.75663,0.00606
1872.69645,0.00611
1870.63628,0.00630
1868.57611,0.00661
1866.51594,0.00651
1864.45577,0.00595
1862.39559,0.00553
1860.33542,0.00554
1858.27525,0.00580
1856.21508,0.00601
1854.15491,0.00603
1852.09473,0.00599
1850.03456,0.00602
1847.97439,0.00600
1845.91422,0.00573
1843.85404,0.00532
1841.79387,0.00516
1839.73370,0.00530
1837.67353,0.00548
1835.61336,0.00543
1833.55318,0.00535
1831.49301,0.00563
1829.43284,0.00607
1827.37267,0.00611
1825.31250,0.00590
1823.25232,0.00587
1821.19215,0.00598
1819.13198,0.00596
1817.07181,0.00588
1815.01163,0.00588
1812.95146,0.00576
1810.89129,0.00544
1808.83112,0.00523
1806.77095,0.00531
1804.71077,0.00540
1802.65060,0.00534
1800.59043,0.00530
1798.53026,0.00532
1796.47009,0.00534
1794.40991,0.00545
1792.34974,0.00553
1790.28957,0.00539
1788.22940,0.00518
1786.16923,0.00506
1784.10905,0.00515
1782.04888,0.00538
1779.98871,0.00543
1777.92854,0.00535
1775.86836,0.00547
1773.80819,0.00573
1771.74802,0.00567
1769.68785,0.00526
1767.62768,0.00506
1765.56750,0.00520
1763.50733,0.00539
1761.44716,0.00537
1759.38699,0.00525
1757.32682,0.00525
1755.26664,0.00531
1753.20647,0.00542
1751.14630,0.00574
1749.08613,0.00614
1747.02596,0.00627
1744.96578,0.00623
1742.90561,0.00619
1740.84544,0.00612
1738.78527,0.00600
1736.72509,0.00600
1734.66492,0.00619
1732.60475,0.00634
1730.54458,0.00643
1728.48441,0.00645
1726.42423,0.00644
1724.36406,0.00642
1722.30389,0.00652
1720.24372,0.00692
1718.18355,0.00725
1716.12337,0.00692
1714.06320,0.00654
1712.00303,0.00649
1709.94286,0.00673
1707.88268,0.00707
1705.82251,0.00714
1703.76234,0.00697
1701.70217,0.00700
1699.64200,0.00721
1697.58182,0.00737
1695.52165,0.00751
1693.46148,0.00777
1691.40131,0.00812
1689.34114,0.00858
1687.28096,0.00918
1685.22079,0.00988
1683.16062,0.01012
1681.10045,0.00997
1679.04028,0.01002
1676.98010,0.01043
1674.91993,0.01108
1672.85976,0.01179
1670.79959,0.01241
1668.73941,0.01253
1666.67924,0.01234
1664.61907,0.01242
1662.55890,0.01261
1660.49873,0.01251
1658.43855,0.01247
1656.37838,0.01285
1654.31821,0.01330
1652.25804,0.01317
1650.19787,0.01305
1648.13769,0.01309
1646.07752,0.01287
1644.01735,0.01243
1641.95718,0.01234
1639.89701,0.01277
1637.83683,0.01335
1635.77666,0.01331
1633.71649,0.01271
1631.65632,0.01240
1629.59614,0.01245
1627.53597,0.01258
1625.47580,0.01258
1623.41563,0.01234
1621.35546,0.01194
1619.29528,0.01192
1617.23511,0.01218
1615.17494,0.01197
1613.11477,0.01155
1611.05460,0.01141
1608.99442,0.01141
1606.93425,0.01132
1604.87408,0.01125
1602.81391,0.01120
1600.75373,0.01102
1598.69356,0.01084
1596.63339,0.01083
1594.57322,0.01083
1592.51305,0.01072
1590.45287,0.01053
1588.39270,0.01029
1586.33253,0.01002
1584.27236,0.00977
1582.21219,0.00954
1580.15201,0.00951
1578.09184,0.00962
1576.03167,0.00940
1573.97150,0.00884
1571.91133,0.00858
1569.85115,0.00853
1567.79098,0.00819
1565.73081,0.00770
1563.67064,0.00751
1561.61046,0.00790
1559.55029,0.00818
1557.49012,0.00721
1555.42995,0.00632
1553.36978,0.00604
1551.30960,0.00599
1549.24943,0.00587
1547.18926,0.00577
1545.12909,0.00598
1543.06892,0.00644
1541.00874,0.00662
1538.94857,0.00592
1536.88840,0.00521
1534.82823,0.00503
1532.76805,0.00497
1530.70788,0.00477
1528.64771,0.00465
1526.58754,0.00451
1524.52737,0.00429
1522.46719,0.00415
1520.40702,0.00388
1518.34685,0.00362
1516.28668,0.00339
1514.22651,0.00304
1512.16633,0.00299
1510.10616,0.00352
1508.04599,0.00408
1505.98582,0.00382
1503.92565,0.00320
1501.86547,0.00291
1499.80530,0.00311
1497.74513,0.00344
1495.68496,0.00353
1493.62478,0.00363
1491.56461,0.00393
1489.50444,0.00395
1487.44427,0.00362
1485.38410,0.00344
1483.32392,0.00346
1481.26375,0.00345
1479.20358,0.00344
1477.14341,0.00359
1475.08324,0.00390
1473.02306,0.00404
1470.96289,0.00378
1468.90272,0.00355
1466.84255,0.00362
1464.78238,0.00369
1462.72220,0.00363
1460.66203,0.00385
1458.60186,0.00415
1456.54169,0.00380
1454.48151,0.00333
1452.42134,0.00328
1450.36117,0.00363
1448.30100,0.00403
1446.24083,0.00412
1444.18065,0.00404
1442.12048,0.00400
1440.06031,0.00403
1438.00014,0.00407
1435.93997,0.00400
1433.87979,0.00394
1431.81962,0.00404
1429.75945,0.00422
1427.69928,0.00431
1425.63910,0.00439
1423.57893,0.00452
1421.51876,0.00459
1419.45859,0.00449
1417.39842,0.00437
1415.33824,0.00452
1413.27807,0.00478
1411.21790,0.00490
1409.15773,0.00496
1407.09756,0.00505
1405.03738,0.00506
1402.97721,0.00499
1400.91704,0.00494
1398.85687,0.00481
1396.79670,0.00462
1394.73652,0.00451
1392.67635,0.00440
1390.61618,0.00436
1388.55601,0.00447
1386.49583,0.00455
1384.43566,0.00450
1382.37549,0.00440
1380.31532,0.00433
1378.25515,0.00438
1376.19497,0.00454
1374.13480,0.00453
1372.07463,0.00433
1370.01446,0.00424
1367.95429,0.00424
1365.89411,0.00426
1363.83394,0.00423
1361.77377,0.00408
1359.71360,0.00401
1357.65343,0.00413
1355.59325,0.00428
1353.53308,0.00434
1351.47291,0.00428
1349.41274,0.00415
1347.35256,0.00399
1345.29239,0.00386
1343.23222,0.00376
1341.17205,0.00364
1339.11188,0.00349
1337.05170,0.00347
1334.99153,0.00360
1332.93136,0.00368
1330.87119,0.00361
1328.81102,0.00350
1326.75084,0.00348
1324.69067,0.00349
1322.63050,0.00346
1320.57033,0.00347
1318.51015,0.00352
1316.44998,0.00358
1314.38981,0.00361
1312.32964,0.00357
1310.26947,0.00351
1308.20929,0.00349
1306.14912,0.00351
1304.08895,0.00365
1302.02878,0.00380
1299.96861,0.00385
1297.90843,0.00382
1295.84826,0.00384
1293.78809,0.00392
1291.72792,0.00390
1289.66775,0.00376
1287.60757,0.00373
1285.54740,0.00382
1283.48723,0.00390
1281.42706,0.00392
1279.36688,0.00389
1277.30671,0.00390
1275.24654,0.00398
1273.18637,0.00410
1271.12620,0.00413
1269.06602,0.00408
1267.00585,0.00398
1264.94568,0.00393
1262.88551,0.00397
1260.82534,0.00399
1258.76516,0.00398
1256.70499,0.00396
1254.64482,0.00389
1252.58465,0.00382
1250.52447,0.00382
1248.46430,0.00381
1246.40413,0.00373
1244.34396,0.00362
1242.28379,0.00354
1240.22361,0.00349
1238.16344,0.00349
1236.10327,0.00344
1234.04310,0.00326
1231.98293,0.00311
1229.92275,0.00308
1227.86258,0.00302
1225.80241,0.00296
1223.74224,0.00292
1221.68207,0.00279
1219.62189,0.00262
1217.56172,0.00247
1215.50155,0.00231
1213.44138,0.00215
1211.38120,0.00194
1209.32103,0.00174
1207.26086,0.00165
1205.20069,0.00166
1203.14052,0.00166
1201.08034,0.00160
1199.02017,0.00156
1196.96000,0.00168
1194.89983,0.00176
1192.83966,0.00171
1190.77948,0.00158
1188.71931,0.00146
1186.65914,0.00146
1184.59897,0.00168
1182.53880,0.00192
1180.47862,0.00206
1178.41845,0.00220
1176.35828,0.00228
1174.29811,0.00233
1172.23793,0.00251
1170.17776,0.00273
1168.11759,0.00295
1166.05742,0.00320
1163.99725,0.00348
1161.93707,0.00378
1159.87690,0.00410
1157.81673,0.00446
1155.75656,0.00488
1153.69639,0.00537
1151.63621,0.00596
1149.57604,0.00660
1147.51587,0.00715
1145.45570,0.00765
1143.39552,0.00825
1141.33535,0.00892
1139.27518,0.00955
1137.21501,0.01021
1135.15484,0.01096
1133.09466,0.01182
1131.03449,0.01273
1128.97432,0.01357
1126.91415,0.01435
1124.85398,0.01528
1122.79380,0.01640
1120.73363,0.01749
1118.67346,0.01843
1116.61329,0.01930
1114.55312,0.02027
1112.49294,0.02135
1110.43277,0.02244
1108.37260,0.02348
1106.31243,0.02442
1104.25225,0.02524
1102.19208,0.02605
1100.13191,0.02705
1098.07174,0.02805
1096.01157,0.02885
1093.95139,0.02956
1091.89122,0.03031
1089.83105,0.03117
1087.77088,0.03212
1085.71071,0.03290
1083.65053,0.03345
1081.59036,0.03400
1079.53019,0.03466
1077.47002,0.03545
1075.40985,0.03621
1073.34967,0.03690
1071.28950,0.03758
1069.22933,0.03806
1067.16916,0.03826
1065.10898,0.03830
1063.04881,0.03825
1060.98864,0.03818
1058.92847,0.03806
1056.86830,0.03775
1054.80812,0.03724
1052.74795,0.03653
1050.68778,0.03556
1048.62761,0.03446
1046.56744,0.03334
1044.50726,0.03214
1042.44709,0.03071
1040.38692,0.02903
1038.32675,0.02731
1036.26657,0.02561
1034.20640,0.02384
1032.14623,0.02224
1030.08606,0.02104
1028.02589,0.01995
1025.96571,0.01883
1023.90554,0.01790
1021.84537,0.01709
1019.78520,0.01631
1017.72503,0.01565
1015.66485,0.01531
1013.60468,0.01534
1011.54451,0.01559
1009.48434,0.01596
1007.42417,0.01635
1005.36399,0.01673
1003.30382,0.01736
1001.24365,0.01838
999.18348,0.01948
997.12330,0.02048
995.06313,0.02147
993.00296,0.02248
990.94279,0.02355
988.88262,0.02456
986.82244,0.02542
984.76227,0.02616
982.70210,0.02673
980.64193,0.02709
978.58176,0.02735
976.52158,0.02752
974.46141,0.02757
972.40124,0.02743
970.34107,0.02694
968.28089,0.02610
966.22072,0.02512
964.16055,0.02417
962.10038,0.02320
960.04021,0.02212
957.98003,0.02105
955.91986,0.02011
953.85969,0.01925
951.79952,0.01836
949.73935,0.01735
947.67917,0.01628
945.61900,0.01531
943.55883,0.01456
941.49866,0.01395
939.43849,0.01328
937.37831,0.01260
935.31814,0.01200
933.25797,0.01128
931.19780,0.01051
929.13762,0.01002
927.07745,0.00978
925.01728,0.00967
922.95711,0.00948
920.89694,0.00895
918.83676,0.00833
916.77659,0.00799
914.71642,0.00775
912.65625,0.00748
910.59608,0.00731
908.53590,0.00709
906.47573,0.00677
904.41556,0.00662
902.35539,0.00678
900.29522,0.00708
898.23504,0.00724
896.17487,0.00736
894.11470,0.00766
892.05453,0.00819
889.99435,0.00872
887.93418,0.00907
885.87401,0.00940
883.81384,0.00988
881.75367,0.01040
879.69349,0.01080
877.63332,0.01123
875.57315,0.01188
873.51298,0.01266
871.45281,0.01332
869.39263,0.01382
867.33246,0.01421
865.27229,0.01454
863.21212,0.01493
861.15194,0.01535
859.09177,0.01563
857.03160,0.01572
854.97143,0.01566
852.91126,0.01554
850.85108,0.01542
848.79091,0.01514
846.73074,0.01476
844.67057,0.01456
842.61040,0.01435
840.55022,0.01398
838.49005,0.01357
836.42988,0.01305
834.36971,0.01243
832.30954,0.01181
830.24936,0.01142
828.18919,0.01121
826.12902,0.01070
824.06885,0.00996
822.00867,0.00950
819.94850,0.00934
817.88833,0.00911
815.82816,0.00883
813.76799,0.00849
811.70781,0.00800
809.64764,0.00747
807.58747,0.00718
805.52730,0.00720
803.46713,0.00720
801.40695,0.00701
799.34678,0.00668
797.28661,0.00638
795.22644,0.00618
793.16627,0.00604
791.10609,0.00586
789.04592,0.00542
786.98575,0.00514
784.92558,0.00541
782.86540,0.00565
780.80523,0.00543
778.74506,0.00520
776.68489,0.00518
774.62472,0.00495
772.56454,0.00461
770.50437,0.00465
768.44420,0.00484
766.38403,0.00470
764.32386,0.00442
762.26368,0.00434
760.20351,0.00434
758.14334,0.00417
756.08317,0.00401
754.02299,0.00411
751.96282,0.00439
749.90265,0.00451
747.84248,0.00431
745.78231,0.00389
743.72213,0.00342
741.66196,0.00285
739.60179,0.00228
737.54162,0.00224
735.48145,0.00273
733.42127,0.00300
731.36110,0.00290
729.30093,0.00280
727.24076,0.00273
725.18059,0.00256
723.12041,0.00237
721.06024,0.00239
719.00007,0.00277
716.93990,0.00304
714.87972,0.00307
712.81955,0.00292
710.75938,0.00260
708.69921,0.00215
706.63904,0.00184
704.57886,0.00208
702.51869,0.00282
700.45852,0.00332
698.39835,0.00305
696.33818,0.00248
694.27800,0.00243
692.21783,0.00293
690.15766,0.00326
688.09749,0.00310
686.03731,0.00297
683.97714,0.00323
681.91697,0.00347
679.85680,0.00342
677.79663,0.00322
675.73645,0.00312
673.67628,0.00337
671.61611,0.00387
669.55594,0.00257
667.49577,0.00012
665.43559,0.00213
663.37542,0.00198
661.31525,0.00198
659.25508,0.00270
657.19491,0.00306
655.13473,0.00269
653.07456,0.00219
651.01439,0.00172
648.95422,0.00107
646.89404,0.00090
644.83387,0.00150
642.77370,0.00240
640.71353,0.00289
638.65336,0.00274
636.59318,0.00234
634.53301,0.00215
632.47284,0.00205
630.41267,0.00166
628.35250,0.00113
626.29232,0.00121
624.23215,0.00192
622.17198,0.00222
620.11181,0.00162
618.05164,0.00093
615.99146,0.00081
613.93129,0.00075
611.87112,0.00050
609.81095,0.00024
607.75077,0.00025
605.69060,0.00050
603.63043,0.00039
601.57026,0.00000
599.51009,0.00000
