3996.73391,-0.00060
3994.67373,-0.00066
3992.61356,-0.00061
3990.55339,-0.00032
3988.49322,-0.00015
3986.43305,-0.00019
3984.37287,-0.00013
3982.31270,-0.00003
3980.25253,-0.00004
3978.19236,-0.00016
3976.13219,-0.00025
3974.07201,-0.00011
3972.01184,0.00014
3969.95167,0.00018
3967.89150,0.00016
3965.83133,0.00032
3963.77115,0.00053
3961.71098,0.00054
3959.65081,0.00039
3957.59064,0.00026
3955.53046,0.00028
3953.47029,0.00035
3951.41012,0.00030
3949.34995,0.00010
3947.28978,0.00000
3945.22960,0.00014
3943.16943,0.00026
3941.10926,0.00022
3939.04909,0.00021
3936.98892,0.00030
3934.92874,0.00031
3932.86857,0.00035
3930.80840,0.00072
3928.74823,0.00112
3926.68805,0.00116
3924.62788,0.00085
3922.56771,0.00042
3920.50754,0.00024
3918.44737,0.00036
3916.38719,0.00074
3914.32702,0.00117
3912.26685,0.00134
3910.20668,0.00139
3908.14651,0.00140
3906.08633,0.00123
3904.02616,0.00083
3901.96599,0.00067
3899.90582,0.00108
3897.84565,0.00152
3895.78547,0.00147
3893.72530,0.00113
3891.66513,0.00097
3889.60496,0.00102
3887.54478,0.00103
3885.48461,0.00100
3883.42444,0.00089
3881.36427,0.00081
3879.30410,0.00096
3877.24392,0.00111
3875.18375,0.00104
3873.12358,0.00080
3871.06341,0.00057
3869.00324,0.00062
3866.94306,0.00070
3864.88289,0.00062
3862.82272,0.00059
3860.76255,0.00064
3858.70237,0.00056
3856.64220,0.00016
3854.58203,0.00000
3852.52186,0.00073
3850.46169,0.00166
3848.40151,0.00171
3846.34134,0.00139
3844.28117,0.00128
3842.22100,0.00132
3840.16083,0.00134
3838.10065,0.00132
3836.04048,0.00144
3833.98031,0.00172
3831.92014,0.00196
3829.85997,0.00203
3827.79979,0.00192
3825.73962,0.00167
3823.67945,0.00139
3821.61928,0.00130
3819.55910,0.00128
3817.49893,0.00146
3815.43876,0.00200
3813.37859,0.00235
3811.31842,0.00222
3809.25824,0.00207
3807.19807,0.00211
3805.13790,0.00210
3803.07773,0.00206
3801.01756,0.00213
3798.95738,0.00217
3796.89721,0.00227
3794.83704,0.00261
3792.77687,0.00289
3790.71670,0.00288
3788.65652,0.00270
3786.59635,0.00263
3784.53618,0.00269
3782.47601,0.00282
3780.41583,0.00307
3778.35566,0.00333
3776.29549,0.00335
3774.23532,0.00311
3772.17515,0.00285
3770.11497,0.00268
3768.05480,0.00256
3765.99463,0.00247
3763.93446,0.00241
3761.87429,0.00223
3759.81411,0.00183
3757.75394,0.00136
3755.69377,0.00116
3753.63360,0.00125
3751.57342,0.00132
3749.51325,0.00122
3747.45308,0.00107
3745.39291,0.00089
3743.33274,0.00117
3741.27256,0.00144
3739.21239,0.00117
3737.15222,0.00083
3735.09205,0.00083
3733.03188,0.00115
3730.97170,0.00151
3728.91153,0.00179
3726.85136,0.00204
3724.79119,0.00225
3722.73102,0.00228
3720.67084,0.00221
3718.61067,0.00212
3716.55050,0.00205
3714.49033,0.00223
3712.43015,0.00271
3710.36998,0.00283
3708.30981,0.00247
3706.24964,0.00221
3704.18947,0.00232
3702.12929,0.00260
3700.06912,0.00274
3698.00895,0.00271
3695.94878,0.00270
3693.88861,0.00276
3691.82843,0.00296
3689.76826,0.00322
3687.70809,0.00353
3685.64792,0.00377
3683.58775,0.00376
3681.52757,0.00346
3679.46740,0.00301
3677.40723,0.00281
3675.34706,0.00309
3673.28688,0.00327
3671.22671,0.00343
3669.16654,0.00387
3667.10637,0.00396
3665.04620,0.00374
3662.98602,0.00366
3660.92585,0.00367
3658.86568,0.00372
3656.80551,0.00397
3654.74534,0.00421
3652.68516,0.00421
3650.62499,0.00424
3648.56482,0.00453
3646.50465,0.00495
3644.44447,0.00505
3642.38430,0.00521
3640.32413,0.00556
3638.26396,0.00570
3636.20379,0.00562
3634.14361,0.00559
3632.08344,0.00562
3630.02327,0.00574
3627.96310,0.00614
3625.90293,0.00660
3623.84275,0.00679
3621.78258,0.00684
3619.72241,0.00699
3617.66224,0.00723
3615.60207,0.00735
3613.54189,0.00733
3611.48172,0.00722
3609.42155,0.00729
3607.36138,0.00773
3605.30120,0.00826
3603.24103,0.00875
3601.18086,0.00925
3599.12069,0.00951
3597.06052,0.00939
3595.00034,0.00932
3592.94017,0.00964
3590.88000,0.01009
3588.81983,0.01031
3586.75966,0.01025
3584.69948,0.01026
3582.63931,0.01062
3580.57914,0.01119
3578.51897,0.01170
3576.45879,0.01201
3574.39862,0.01213
3572.33845,0.01219
3570.27828,0.01225
3568.21811,0.01234
3566.15793,0.01260
3564.09776,0.01293
3562.03759,0.01313
3559.97742,0.01332
3557.91725,0.01347
3555.85707,0.01361
3553.79690,0.01386
3551.73673,0.01403
3549.67656,0.01397
3547.61639,0.01385
3545.55621,0.01396
3543.49604,0.01438
3541.43587,0.01495
3539.37570,0.01545
3537.31552,0.01578
3535.25535,0.01601
3533.19518,0.01624
3531.13501,0.01645
3529.07484,0.01656
3527.01466,0.01652
3524.95449,0.01650
3522.89432,0.01686
3520.83415,0.01748
3518.77398,0.01790
3516.71380,0.01807
3514.65363,0.01820
3512.59346,0.01826
3510.53329,0.01821
3508.47312,0.01821
3506.41294,0.01835
3504.35277,0.01854
3502.29260,0.01873
3500.23243,0.01913
3498.17225,0.01969
3496.11208,0.02009
3494.05191,0.02020
3491.99174,0.02021
3489.93157,0.02031
3487.87139,0.02052
3485.81122,0.02068
3483.75105,0.02079
3481.69088,0.02089
3479.63071,0.02103
3477.57053,0.02133
3475.51036,0.02163
3473.45019,0.02166
3471.39002,0.02165
3469.32984,0.02190
3467.26967,0.02217
3465.20950,0.02228
3463.14933,0.02226
3461.08916,0.02233
3459.02898,0.02266
3456.96881,0.02302
3454.90864,0.02322
3452.84847,0.02331
3450.78830,0.02338
3448.72812,0.02341
3446.66795,0.02345
3444.60778,0.02353
3442.54761,0.02364
3440.48744,0.02370
3438.42726,0.02379
3436.36709,0.02394
3434.30692,0.02418
3432.24675,0.02446
3430.18657,0.02462
3428.12640,0.02478
3426.06623,0.02490
3424.00606,0.02494
3421.94589,0.02505
3419.88571,0.02515
3417.82554,0.02527
3415.76537,0.02551
3413.70520,0.02573
3411.64503,0.02585
3409.58485,0.02580
3407.52468,0.02578
3405.46451,0.02593
3403.40434,0.02596
3401.34416,0.02590
3399.28399,0.02561
3397.22382,0.02585
3395.16365,0.02611
3393.10348,0.02630
3391.04330,0.02644
3388.98313,0.02660
3386.92296,0.02692
3384.86279,0.02731
3382.80262,0.02751
3380.74244,0.02748
3378.68227,0.02750
3376.62210,0.02761
3374.56193,0.02773
3372.50176,0.02781
3370.44158,0.02787
3368.38141,0.02791
3366.32124,0.02793
3364.26107,0.02814
3362.20089,0.02842
3360.14072,0.02843
3358.08055,0.02833
3356.02038,0.02828
3353.96021,0.02812
3351.90003,0.02805
3349.83986,0.02829
3347.77969,0.02856
3345.71952,0.02864
3343.65935,0.02871
3341.59917,0.02864
3339.53900,0.02840
3337.47883,0.02848
3335.41866,0.02891
3333.35849,0.02920
3331.29831,0.02942
3329.23814,0.02961
3327.17797,0.02951
3325.11780,0.02927
3323.05762,0.02926
3320.99745,0.02942
3318.93728,0.02947
3316.87711,0.02936
3314.81694,0.02920
3312.75676,0.02905
3310.69659,0.02906
3308.63642,0.02928
3306.57625,0.02952
3304.51608,0.02975
3302.45590,0.03009
3300.39573,0.03030
3298.33556,0.03020
3296.27539,0.02997
3294.21521,0.02986
3292.15504,0.02991
3290.09487,0.02998
3288.03470,0.03002
3285.97453,0.03006
3283.91435,0.03014
3281.85418,0.03026
3279.79401,0.03024
3277.73384,0.03012
3275.67367,0.03009
3273.61349,0.03016
3271.55332,0.03020
3269.49315,0.03022
3267.43298,0.03040
3265.37281,0.03066
3263.31263,0.03076
3261.25246,0.03070
3259.19229,0.03061
3257.13212,0.03053
3255.07194,0.03053
3253.01177,0.03062
3250.95160,0.03071
3248.89143,0.03080
3246.83126,0.03086
3244.77108,0.03091
3242.71091,0.03102
3240.65074,0.03105
3238.59057,0.03094
3236.53040,0.03082
3234.47022,0.03077
3232.41005,0.03084
3230.34988,0.03104
3228.28971,0.03115
3226.22954,0.03111
3224.16936,0.03107
3222.10919,0.03095
3220.04902,0.03082
3217.98885,0.03091
3215.92867,0.03107
3213.86850,0.03110
3211.80833,0.03105
3209.74816,0.03094
3207.68799,0.03084
3205.62781,0.03089
3203.56764,0.03097
3201.50747,0.03099
3199.44730,0.03111
3197.38713,0.03122
3195.32695,0.03116
3193.26678,0.03104
3191.20661,0.03094
3189.14644,0.03086
3187.08626,0.03088
3185.02609,0.03090
3182.96592,0.03089
3180.90575,0.03089
3178.84558,0.03090
3176.78540,0.03100
3174.72523,0.03121
3172.66506,0.03128
3170.60489,0.03113
3168.54472,0.03101
3166.48454,0.03100
3164.42437,0.03101
3162.36420,0.03098
3160.30403,0.03088
3158.24386,0.03079
3156.18368,0.03074
3154.12351,0.03067
3152.06334,0.03064
3150.00317,0.03069
3147.94299,0.03065
3145.88282,0.03051
3143.82265,0.03039
3141.76248,0.03033
3139.70231,0.03025
3137.64213,0.03018
3135.58196,0.03014
3133.52179,0.03009
3131.46162,0.03013
3129.40145,0.03022
3127.34127,0.03015
3125.28110,0.02985
3123.22093,0.02956
3121.16076,0.02945
3119.10058,0.02951
3117.04041,0.02952
3114.98024,0.02946
3112.92007,0.02957
3110.85990,0.02979
3108.79972,0.02974
3106.73955,0.02941
3104.67938,0.02915
3102.61921,0.02903
3100.55904,0.02900
3098.49886,0.02906
3096.43869,0.02909
3094.37852,0.02897
3092.31835,0.02889
3090.25818,0.02891
3088.19800,0.02893
3086.13783,0.02892
3084.07766,0.02879
3082.01749,0.02858
3079.95731,0.02852
3077.89714,0.02855
3075.83697,0.02847
3073.77680,0.02836
3071.71663,0.02832
3069.65645,0.02824
3067.59628,0.02810
3065.53611,0.02807
3063.47594,0.02822
3061.41577,0.02828
3059.35559,0.02807
3057.29542,0.02775
3055.23525,0.02759
3053.17508,0.02753
3051.11491,0.02736
3049.05473,0.02715
3046.99456,0.02704
3044.93439,0.02698
3042.87422,0.02692
3040.81404,0.02692
3038.75387,0.02694
3036.69370,0.02681
3034.63353,0.02668
3032.57336,0.02658
3030.51318,0.02634
3028.45301,0.02613
3026.39284,0.02609
3024.33267,0.02614
3022.27250,0.02613
3020.21232,0.02605
3018.15215,0.02588
3016.09198,0.02555
3014.03181,0.02524
3011.97163,0.02512
3009.91146,0.02516
3007.85129,0.02518
3005.79112,0.02513
3003.73095,0.02503
3001.67077,0.02489
2999.61060,0.02471
2997.55043,0.02455
2995.49026,0.02454
2993.43009,0.02452
2991.36991,0.02451
2989.30974,0.02450
2987.24957,0.02442
2985.18940,0.02427
2983.12923,0.02405
2981.06905,0.02393
2979.00888,0.02398
2976.94871,0.02403
2974.88854,0.02396
2972.82836,0.02389
2970.76819,0.02384
2968.70802,0.02360
2966.64785,0.02330
2964.58768,0.02327
2962.52750,0.02335
2960.46733,0.02334
2958.40716,0.02336
2956.34699,0.02341
2954.28682,0.02334
2952.22664,0.02319
2950.16647,0.02308
2948.10630,0.02304
2946.04613,0.02299
2943.98596,0.02285
2941.92578,0.02259
2939.86561,0.02244
2937.80544,0.02249
2935.74527,0.02262
2933.68509,0.02271
2931.62492,0.02270
2929.56475,0.02252
2927.50458,0.02234
2925.44441,0.02230
2923.38423,0.02238
2921.32406,0.02252
2919.26389,0.02257
2917.20372,0.02243
2915.14355,0.02227
2913.08337,0.02214
2911.02320,0.02197
2908.96303,0.02184
2906.90286,0.02171
2904.84268,0.02150
2902.78251,0.02130
2900.72234,0.02117
2898.66217,0.02117
2896.60200,0.02127
2894.54182,0.02127
2892.48165,0.02107
2890.42148,0.02086
2888.36131,0.02087
2886.30114,0.02095
2884.24096,0.02094
2882.18079,0.02095
2880.12062,0.02090
2878.06045,0.02069
2876.00028,0.02044
2873.94010,0.02024
2871.87993,0.02018
2869.81976,0.02018
2867.75959,0.02009
2865.69941,0.01997
2863.63924,0.01984
2861.57907,0.01977
2859.51890,0.01981
2857.45873,0.01986
2855.39855,0.01992
2853.33838,0.01993
2851.27821,0.01984
2849.21804,0.01971
2847.15787,0.01963
2845.09769,0.01960
2843.03752,0.01948
2840.97735,0.01923
2838.91718,0.01898
2836.85700,0.01885
2834.79683,0.01884
2832.73666,0.01884
2830.67649,0.01877
2828.61632,0.01864
2826.55614,0.01854
2824.49597,0.01855
2822.43580,0.01849
2820.37563,0.01824
2818.31546,0.01801
2816.25528,0.01798
2814.19511,0.01803
2812.13494,0.01803
2810.07477,0.01793
2808.01460,0.01782
2805.95442,0.01777
2803.89425,0.01765
2801.83408,0.01744
2799.77391,0.01739
2797.71373,0.01755
2795.65356,0.01763
2793.59339,0.01751
2791.53322,0.01728
2789.47305,0.01706
2787.41287,0.01699
2785.35270,0.01704
2783.29253,0.01711
2781.23236,0.01714
2779.17219,0.01711
2777.11201,0.01699
2775.05184,0.01682
2772.99167,0.01669
2770.93150,0.01662
2768.87133,0.01657
2766.81115,0.01657
2764.75098,0.01657
2762.69081,0.01646
2760.63064,0.01623
2758.57046,0.01607
2756.51029,0.01608
2754.45012,0.01613
2752.38995,0.01613
2750.32978,0.01606
2748.26960,0.01592
2746.20943,0.01577
2744.14926,0.01566
2742.08909,0.01562
2740.02892,0.01563
2737.96874,0.01560
2735.90857,0.01548
2733.84840,0.01536
2731.78823,0.01526
2729.72805,0.01521
2727.66788,0.01516
2725.60771,0.01506
2723.54754,0.01497
2721.48737,0.01497
2719.42719,0.01497
2717.36702,0.01491
2715.30685,0.01486
2713.24668,0.01481
2711.18651,0.01475
2709.12633,0.01473
2707.06616,0.01468
2705.00599,0.01453
2702.94582,0.01440
2700.88565,0.01438
2698.82547,0.01438
2696.76530,0.01431
2694.70513,0.01420
2692.64496,0.01409
2690.58478,0.01402
2688.52461,0.01391
2686.46444,0.01370
2684.40427,0.01350
2682.34410,0.01343
2680.28392,0.01344
2678.22375,0.01350
2676.16358,0.01352
2674.10341,0.01346
2672.04324,0.01339
2669.98306,0.01325
2667.92289,0.01312
2665.86272,0.01315
2663.80255,0.01320
2661.74238,0.01308
2659.68220,0.01294
2657.62203,0.01287
2655.56186,0.01281
2653.50169,0.01277
2651.44151,0.01281
2649.38134,0.01276
2647.32117,0.01256
2645.26100,0.01238
2643.20083,0.01228
2641.14065,0.01226
2639.08048,0.01229
2637.02031,0.01233
2634.96014,0.01234
2632.89997,0.01232
2630.83979,0.01221
2628.77962,0.01195
2626.71945,0.01170
2624.65928,0.01164
2622.59910,0.01176
2620.53893,0.01189
2618.47876,0.01191
2616.41859,0.01184
2614.35842,0.01179
2612.29824,0.01182
2610.23807,0.01181
2608.17790,0.01161
2606.11773,0.01143
2604.05756,0.01148
2601.99738,0.01156
2599.93721,0.01153
2597.87704,0.01142
2595.81687,0.01123
2593.75670,0.01114
2591.69652,0.01130
2589.63635,0.01146
2587.57618,0.01133
2585.51601,0.01106
2583.45583,0.01099
2581.39566,0.01115
2579.33549,0.01135
2577.27532,0.01139
2575.21515,0.01122
2573.15497,0.01106
2571.09480,0.01094
2569.03463,0.01087
2566.97446,0.01090
2564.91429,0.01078
2562.85411,0.01058
2560.79394,0.01068
2558.73377,0.01092
2556.67360,0.01106
2554.61342,0.01114
2552.55325,0.01123
2550.49308,0.01137
2548.43291,0.01140
2546.37274,0.01117
2544.31256,0.01095
2542.25239,0.01094
2540.19222,0.01092
2538.13205,0.01086
2536.07188,0.01100
2534.01170,0.01127
2531.95153,0.01140
2529.89136,0.01134
2527.83119,0.01124
2525.77102,0.01123
2523.71084,0.01121
2521.65067,0.01099
2519.59050,0.01081
2517.53033,0.01089
2515.47015,0.01104
2513.40998,0.01103
2511.34981,0.01103
2509.28964,0.01116
2507.22947,0.01118
2505.16929,0.01107
2503.10912,0.01100
2501.04895,0.01091
2498.98878,0.01080
2496.92861,0.01095
2494.86843,0.01132
2492.80826,0.01149
2490.74809,0.01145
2488.68792,0.01147
2486.62775,0.01151
2484.56757,0.01146
2482.50740,0.01134
2480.44723,0.01126
2478.38706,0.01135
2476.32688,0.01152
2474.26671,0.01167
2472.20654,0.01172
2470.14637,0.01165
2468.08620,0.01155
2466.02602,0.01146
2463.96585,0.01147
2461.90568,0.01154
2459.84551,0.01156
2457.78534,0.01141
2455.72516,0.01130
2453.66499,0.01141
2451.60482,0.01153
2449.54465,0.01155
2447.48447,0.01165
2445.42430,0.01178
2443.36413,0.01177
2441.30396,0.01179
2439.24379,0.01189
2437.18361,0.01193
2435.12344,0.01176
2433.06327,0.01152
2431.00310,0.01148
2428.94293,0.01158
2426.88275,0.01168
2424.82258,0.01171
2422.76241,0.01169
2420.70224,0.01164
2418.64207,0.01151
2416.58189,0.01143
2414.52172,0.01146
2412.46155,0.01129
2410.40138,0.01087
2408.34120,0.01069
2406.28103,0.01096
2404.22086,0.01139
2402.16069,0.01164
2400.10052,0.01163
2398.04034,0.01160
2395.98017,0.01147
2393.92000,0.01133
2391.85983,0.01126
2389.79966,0.01122
2387.73948,0.01108
2385.67931,0.01082
2383.61914,0.01059
2381.55897,0.01054
2379.49880,0.01061
2377.43862,0.01063
2375.37845,0.01058
2373.31828,0.01079
2371.25811,0.01117
2369.19793,0.01133
2367.13776,0.01125
2365.07759,0.01081
2363.01742,0.00991
2360.95725,0.00992
2358.89707,0.01030
2356.83690,0.01046
2354.77673,0.01029
2352.71656,0.01014
2350.65639,0.01043
2348.59621,0.01054
2346.53604,0.00937
2344.47587,0.00907
2342.41570,0.00947
2340.35552,0.00995
2338.29535,0.01015
2336.23518,0.01012
2334.17501,0.01018
2332.11484,0.01015
2330.05466,0.00990
2327.99449,0.00947
2325.93432,0.00941
2323.87415,0.00930
2321.81398,0.00932
2319.75380,0.00912
2317.69363,0.00897
2315.63346,0.00878
2313.57329,0.00882
2311.51312,0.00921
2309.45294,0.00968
2307.39277,0.00995
2305.33260,0.01003
2303.27243,0.01010
2301.21225,0.01011
2299.15208,0.00993
2297.09191,0.00964
2295.03174,0.00953
2292.97157,0.00964
2290.91139,0.00980
2288.85122,0.01001
2286.79105,0.01012
2284.73088,0.01000
2282.67071,0.00992
2280.61053,0.01008
2278.55036,0.01028
2276.49019,0.01024
2274.43002,0.01006
2272.36984,0.00985
2270.30967,0.00974
2268.24950,0.00991
2266.18933,0.01009
2264.12916,0.00984
2262.06898,0.00937
2260.00881,0.00923
2257.94864,0.00943
2255.88847,0.00966
2253.82830,0.00968
2251.76812,0.00948
2249.70795,0.00938
2247.64778,0.00948
2245.58761,0.00959
2243.52744,0.00929
2241.46726,0.00875
2239.40709,0.00862
2237.34692,0.00876
2235.28675,0.00863
2233.22657,0.00853
2231.16640,0.00882
2229.10623,0.00916
2227.04606,0.00930
2224.98589,0.00932
2222.92571,0.00925
2220.86554,0.00912
2218.80537,0.00924
2216.74520,0.00958
2214.68503,0.00980
2212.62485,0.00997
2210.56468,0.01001
2208.50451,0.00959
2206.44434,0.00897
2204.38417,0.00877
2202.32399,0.00903
2200.26382,0.00920
2198.20365,0.00939
2196.14348,0.00963
2194.08330,0.00924
2192.02313,0.00882
2189.96296,0.00900
2187.90279,0.00902
2185.84262,0.00855
2183.78244,0.00826
2181.72227,0.00818
2179.66210,0.00799
2177.60193,0.00813
2175.54176,0.00837
2173.48158,0.00832
2171.42141,0.00849
2169.36124,0.00876
2167.30107,0.00868
2165.24089,0.00887
2163.18072,0.00912
2161.12055,0.00827
2159.06038,0.00712
2157.00021,0.00678
2154.94003,0.00711
2152.87986,0.00808
2150.81969,0.00891
2148.75952,0.00890
2146.69935,0.00836
2144.63917,0.00790
2142.57900,0.00807
2140.51883,0.00874
2138.45866,0.00900
2136.39849,0.00848
2134.33831,0.00777
2132.27814,0.00743
2130.21797,0.00749
2128.15780,0.00780
2126.09762,0.00796
2124.03745,0.00777
2121.97728,0.00780
2119.91711,0.00823
2117.85694,0.00835
2115.79676,0.00802
2113.73659,0.00787
2111.67642,0.00803
2109.61625,0.00808
2107.55608,0.00780
2105.49590,0.00750
2103.43573,0.00734
2101.37556,0.00732
2099.31539,0.00775
2097.25521,0.00784
2095.19504,0.00744
2093.13487,0.00701
2091.07470,0.00686
2089.01453,0.00697
2086.95435,0.00714
2084.89418,0.00726
2082.83401,0.00765
2080.77384,0.00815
2078.71367,0.00809
2076.65349,0.00776
2074.59332,0.00784
2072.53315,0.00796
2070.47298,0.00766
2068.41281,0.00758
2066.35263,0.00790
2064.29246,0.00765
2062.23229,0.00704
2060.17212,0.00700
2058.11194,0.00730
2056.05177,0.00745
2053.99160,0.00778
2051.93143,0.00834
2049.87126,0.00862
2047.81108,0.00857
2045.75091,0.00869
2043.69074,0.00904
2041.63057,0.00916
2039.57040,0.00929
2037.51022,0.00929
2035.45005,0.00850
2033.38988,0.00746
2031.32971,0.00687
2029.26954,0.00664
2027.20936,0.00708
2025.14919,0.00836
2023.08902,0.00914
2021.02885,0.00880
2018.96867,0.00817
2016.90850,0.00759
2014.84833,0.00708
2012.78816,0.00687
2010.72799,0.00722
2008.66781,0.00805
2006.60764,0.00851
2004.54747,0.00808
2002.48730,0.00768
2000.42713,0.00777
1998.36695,0.00754
1996.30678,0.00713
1994.24661,0.00722
1992.18644,0.00703
1990.12626,0.00615
1988.06609,0.00574
1986.00592,0.00612
1983.94575,0.00701
1981.88558,0.00826
1979.82540,0.00935
1977.76523,0.00962
1975.70506,0.00892
1973.64489,0.00818
1971.58472,0.00816
1969.52454,0.00835
1967.46437,0.00806
1965.40420,0.00714
1963.34403,0.00615
1961.28386,0.00595
1959.22368,0.00632
1957.16351,0.00649
1955.10334,0.00640
1953.04317,0.00651
1950.98299,0.00690
1948.92282,0.00724
1946.86265,0.00726
1944.80248,0.00724
1942.74231,0.00750
1940.68213,0.00759
1938.62196,0.00719
1936.56179,0.00662
1934.50162,0.00631
1932.44145,0.00624
1930.38127,0.00632
1928.32110,0.00654
1926.26093,0.00651
1924.20076,0.00621
1922.14059,0.00612
1920.08041,0.00615
1918.02024,0.00601
1915.96007,0.00593
1913.89990,0.00623
1911.83972,0.00644
1909.77955,0.00623
1907.71938,0.00604
1905.65921,0.00620
1903.59904,0.00641
1901.53886,0.00643
1899.47869,0.00638
1897.41852,0.00640
1895.35835,0.00634
1893.29818,0.00615
1891.23800,0.00611
1889.17783,0.00626
1887.11766,0.00643
1885.05749,0.00646
1882.99731,0.00626
1880.93714,0.00595
1878.87697,0.00576
1876.81680,0.00583
1874.75663,0.00610
1872.69645,0.00643
1870.63628,0.00675
1868.57611,0.00679
1866.51594,0.00645
1864.45577,0.00613
1862.39559,0.00604
1860.33542,0.00603
1858.27525,0.00603
1856.21508,0.00609
1854.15491,0.00606
1852.09473,0.00593
1850.03456,0.00592
1847.97439,0.00597
1845.91422,0.00583
1843.85404,0.00561
1841.79387,0.00564
1839.73370,0.00590
1837.67353,0.00604
1835.61336,0.00592
1833.55318,0.00591
1831.49301,0.00629
1829.43284,0.00660
1827.37267,0.00648
1825.31250,0.00628
1823.25232,0.00632
1821.19215,0.00647
1819.13198,0.00644
1817.07181,0.00624
1815.01163,0.00608
1812.95146,0.00595
1810.89129,0.00578
1808.83112,0.00571
1806.77095,0.00586
1804.71077,0.00601
1802.65060,0.00594
1800.59043,0.00585
1798.53026,0.00577
1796.47009,0.00568
1794.40991,0.00569
1792.34974,0.00574
1790.28957,0.00560
1788.22940,0.00539
1786.16923,0.00530
1784.10905,0.00543
1782.04888,0.00570
1779.98871,0.00590
1777.92854,0.00598
1775.86836,0.00613
1773.80819,0.00637
1771.74802,0.00635
1769.68785,0.00596
1767.62768,0.00571
1765.56750,0.00581
1763.50733,0.00600
1761.44716,0.00598
1759.38699,0.00589
1757.32682,0.00596
1755.26664,0.00614
1753.20647,0.00627
1751.14630,0.00635
1749.08613,0.00640
1747.02596,0.00642
1744.96578,0.00644
1742.90561,0.00662
1740.84544,0.00685
1738.78527,0.00694
1736.72509,0.00703
1734.66492,0.00716
1732.60475,0.00715
1730.54458,0.00721
1728.48441,0.00726
1726.42423,0.00726
1724.36406,0.00724
1722.30389,0.00737
1720.24372,0.00774
1718.18355,0.00787
1716.12337,0.00731
1714.06320,0.00694
1712.00303,0.00708
1709.94286,0.00745
1707.88268,0.00778
1705.82251,0.00790
1703.76234,0.00803
1701.70217,0.00838
1699.64200,0.00860
1697.58182,0.00855
1695.52165,0.00860
1693.46148,0.00889
1691.40131,0.00931
1689.34114,0.00979
1687.28096,0.01037
1685.22079,0.01096
1683.16062,0.01115
1681.10045,0.01120
1679.04028,0.01149
1676.98010,0.01208
1674.91993,0.01282
1672.85976,0.01342
1670.79959,0.01379
1668.73941,0.01385
1666.67924,0.01386
1664.61907,0.01408
1662.55890,0.01429
1660.49873,0.01426
1658.43855,0.01434
1656.37838,0.01484
1654.31821,0.01528
1652.25804,0.01493
1650.19787,0.01476
1648.13769,0.01496
1646.07752,0.01493
1644.01735,0.01468
1641.95718,0.01473
1639.89701,0.01508
1637.83683,0.01537
1635.77666,0.01506
1633.71649,0.01454
1631.65632,0.01447
1629.59614,0.01461
1627.53597,0.01461
1625.47580,0.01451
1623.41563,0.01428
1621.35546,0.01399
1619.29528,0.01405
1617.23511,0.01421
1615.17494,0.01388
1613.11477,0.01344
1611.05460,0.01326
1608.99442,0.01316
1606.93425,0.01309
1604.87408,0.01315
1602.81391,0.01315
1600.75373,0.01298
1598.69356,0.01286
1596.63339,0.01284
1594.57322,0.01273
1592.51305,0.01247
1590.45287,0.01221
1588.39270,0.01201
1586.33253,0.01184
1584.27236,0.01164
1582.21219,0.01139
1580.15201,0.01135
1578.09184,0.01141
1576.03167,0.01097
1573.97150,0.01021
1571.91133,0.00990
1569.85115,0.00982
1567.79098,0.00953
1565.73081,0.00922
1563.67064,0.00922
1561.61046,0.00966
1559.55029,0.00975
1557.49012,0.00854
1555.42995,0.00754
1553.36978,0.00722
1551.30960,0.00719
1549.24943,0.00719
1547.18926,0.00726
1545.12909,0.00752
1543.06892,0.00786
1541.00874,0.00786
1538.94857,0.00714
1536.88840,0.00650
1534.82823,0.00630
1532.76805,0.00624
1530.70788,0.00612
1528.64771,0.00609
1526.58754,0.00597
1524.52737,0.00575
1522.46719,0.00555
1520.40702,0.00519
1518.34685,0.00488
1516.28668,0.00460
1514.22651,0.00423
1512.16633,0.00412
1510.10616,0.00457
1508.04599,0.00510
1505.98582,0.00485
1503.92565,0.00430
1501.86547,0.00410
1499.80530,0.00430
1497.74513,0.00450
1495.68496,0.00449
1493.62478,0.00467
1491.56461,0.00506
1489.50444,0.00506
1487.44427,0.00473
1485.38410,0.00463
1483.32392,0.00473
1481.26375,0.00478
1479.20358,0.00481
1477.14341,0.00492
1475.08324,0.00503
1473.02306,0.00497
1470.96289,0.00475
1468.90272,0.00468
1466.84255,0.00491
1464.78238,0.00514
1462.72220,0.00516
1460.66203,0.00533
1458.60186,0.00545
1456.54169,0.00493
1454.48151,0.00450
1452.42134,0.00459
1450.36117,0.00494
1448.30100,0.00525
1446.24083,0.00539
1444.18065,0.00544
1442.12048,0.00550
1440.06031,0.00560
1438.00014,0.00562
1435.93997,0.00550
1433.87979,0.00547
1431.81962,0.00567
1429.75945,0.00590
1427.69928,0.00597
1425.63910,0.00600
1423.57893,0.00607
1421.51876,0.00612
1419.45859,0.00597
1417.39842,0.00578
1415.33824,0.00593
1413.27807,0.00628
1411.21790,0.00654
1409.15773,0.00671
1407.09756,0.00685
1405.03738,0.00684
1402.97721,0.00665
1400.91704,0.00643
1398.85687,0.00617
1396.79670,0.00596
1394.73652,0.00595
1392.67635,0.00597
1390.61618,0.00595
1388.55601,0.00593
1386.49583,0.00589
1384.43566,0.00583
1382.37549,0.00582
1380.31532,0.00583
1378.25515,0.00592
1376.19497,0.00602
1374.13480,0.00587
1372.07463,0.00557
1370.01446,0.00549
1367.95429,0.00560
1365.89411,0.00568
1363.83394,0.00552
1361.77377,0.00515
1359.71360,0.00501
1357.65343,0.00513
1355.59325,0.00525
1353.53308,0.00527
1351.47291,0.00524
1349.41274,0.00519
1347.35256,0.00509
1345.29239,0.00497
1343.23222,0.00483
1341.17205,0.00461
1339.11188,0.00438
1337.05170,0.00442
1334.99153,0.00469
1332.93136,0.00488
1330.87119,0.00486
1328.81102,0.00477
1326.75084,0.00475
1324.69067,0.00479
1322.63050,0.00483
1320.57033,0.00482
1318.51015,0.00474
1316.44998,0.00466
1314.38981,0.00460
1312.32964,0.00453
1310.26947,0.00450
1308.20929,0.00455
1306.14912,0.00461
1304.08895,0.00468
1302.02878,0.00474
1299.96861,0.00477
1297.90843,0.00481
1295.84826,0.00490
1293.78809,0.00493
1291.72792,0.00485
1289.66775,0.00481
1287.60757,0.00487
1285.54740,0.00491
1283.48723,0.00493
1281.42706,0.00499
1279.36688,0.00508
1277.30671,0.00515
1275.24654,0.00518
1273.18637,0.00516
1271.12620,0.00512
1269.06602,0.00510
1267.00585,0.00511
1264.94568,0.00512
1262.88551,0.00511
1260.82534,0.00509
1258.76516,0.00508
1256.70499,0.00504
1254.64482,0.00496
1252.58465,0.00492
1250.52447,0.00495
1248.46430,0.00493
1246.40413,0.00482
1244.34396,0.00475
1242.28379,0.00476
1240.22361,0.00470
1238.16344,0.00463
1236.10327,0.00461
1234.04310,0.00453
1231.98293,0.00442
1229.92275,0.00428
1227.86258,0.00401
1225.80241,0.00381
1223.74224,0.00379
1221.68207,0.00378
1219.62189,0.00370
1217.56172,0.00354
1215.50155,0.00330
1213.44138,0.00300
1211.38120,0.00272
1209.32103,0.00254
1207.26086,0.00248
1205.20069,0.00251
1203.14052,0.00251
1201.08034,0.00241
1199.02017,0.00229
1196.96000,0.00236
1194.89983,0.00242
1192.83966,0.00232
1190.77948,0.00215
1188.71931,0.00203
1186.65914,0.00203
1184.59897,0.00220
1182.53880,0.00241
1180.47862,0.00259
1178.41845,0.00278
1176.35828,0.00286
1174.29811,0.00285
1172.23793,0.00294
1170.17776,0.00310
1168.11759,0.00326
1166.05742,0.00346
1163.99725,0.00377
1161.93707,0.00411
1159.87690,0.00442
1157.81673,0.00479
1155.75656,0.00525
1153.69639,0.00569
1151.63621,0.00614
1149.57604,0.00665
1147.51587,0.00717
1145.45570,0.00767
1143.39552,0.00818
1141.33535,0.00865
1139.27518,0.00910
1137.21501,0.00971
1135.15484,0.01052
1133.09466,0.01139
1131.03449,0.01220
1128.97432,0.01299
1126.91415,0.01389
1124.85398,0.01495
1122.79380,0.01607
1120.73363,0.01704
1118.67346,0.01787
1116.61329,0.01882
1114.55312,0.01996
1112.49294,0.02100
1110.43277,0.02185
1108.37260,0.02275
1106.31243,0.02379
1104.25225,0.02474
1102.19208,0.02555
1100.13191,0.02637
1098.07174,0.02722
1096.01157,0.02803
1093.95139,0.02882
1091.89122,0.02954
1089.83105,0.03022
1087.77088,0.03102
1085.71071,0.03183
1083.65053,0.03246
1081.59036,0.03308
1079.53019,0.03377
1077.47002,0.03448
1075.40985,0.03517
1073.34967,0.03580
1071.28950,0.03639
1069.22933,0.03688
1067.16916,0.03715
1065.10898,0.03720
1063.04881,0.03719
1060.98864,0.03718
1058.92847,0.03713
1056.86830,0.03696
1054.80812,0.03655
1052.74795,0.03590
1050.68778,0.03499
1048.62761,0.03390
1046.56744,0.03278
1044.50726,0.03157
1042.44709,0.03018
1040.38692,0.02870
1038.32675,0.02728
1036.26657,0.02579
1034.20640,0.02407
1032.14623,0.02243
1030.08606,0.02124
1028.02589,0.02020
1025.96571,0.01906
1023.90554,0.01798
1021.84537,0.01702
1019.78520,0.01621
1017.72503,0.01563
1015.66485,0.01539
1013.60468,0.01543
1011.54451,0.01556
1009.48434,0.01581
1007.42417,0.01624
1005.36399,0.01676
1003.30382,0.01740
1001.24365,0.01819
999.18348,0.01913
997.12330,0.02024
995.06313,0.02125
993.00296,0.02204
990.94279,0.02287
988.88262,0.02384
986.82244,0.02476
984.76227,0.02550
982.70210,0.02595
980.64193,0.02623
978.58176,0.02633
976.52158,0.02619
974.46141,0.02600
972.40124,0.02581
970.34107,0.02534
968.28089,0.02453
966.22072,0.02352
964.16055,0.02238
962.10038,0.02124
960.04021,0.02029
957.98003,0.01947
955.91986,0.01856
953.85969,0.01748
951.79952,0.01628
949.73935,0.01508
947.67917,0.01411
945.61900,0.01339
943.55883,0.01269
941.49866,0.01192
939.43849,0.01108
937.37831,0.01030
935.31814,0.00965
933.25797,0.00916
931.19780,0.00872
929.13762,0.00817
927.07745,0.00768
925.01728,0.00743
922.95711,0.00723
920.89694,0.00703
918.83676,0.00690
916.77659,0.00659
914.71642,0.00606
912.65625,0.00577
910.59608,0.00573
908.53590,0.00553
906.47573,0.00528
904.41556,0.00516
902.35539,0.00523
900.29522,0.00546
898.23504,0.00576
896.17487,0.00621
894.11470,0.00664
892.05453,0.00687
889.99435,0.00713
887.93418,0.00749
885.87401,0.00799
883.81384,0.00872
881.75367,0.00938
879.69349,0.00971
877.63332,0.00998
875.57315,0.01037
873.51298,0.01075
871.45281,0.01122
869.39263,0.01192
867.33246,0.01262
865.27229,0.01298
863.21212,0.01301
861.15194,0.01294
859.09177,0.01296
857.03160,0.01297
854.97143,0.01281
852.91126,0.01275
850.85108,0.01288
848.79091,0.01284
846.73074,0.01258
844.67057,0.01231
842.61040,0.01193
840.55022,0.01140
838.49005,0.01088
836.42988,0.01035
834.36971,0.00996
832.30954,0.00967
830.24936,0.00932
828.18919,0.00904
826.12902,0.00873
824.06885,0.00838
822.00867,0.00828
819.94850,0.00821
817.88833,0.00783
815.82816,0.00730
813.76799,0.00684
811.70781,0.00638
809.64764,0.00595
807.58747,0.00576
805.52730,0.00581
803.46713,0.00581
801.40695,0.00569
799.34678,0.00551
797.28661,0.00528
795.22644,0.00506
793.16627,0.00504
791.10609,0.00519
789.04592,0.00511
786.98575,0.00482
784.92558,0.00465
782.86540,0.00457
780.80523,0.00437
778.74506,0.00423
776.68489,0.00429
774.62472,0.00432
772.56454,0.00430
770.50437,0.00436
768.44420,0.00417
766.38403,0.00367
764.32386,0.00348
762.26368,0.00356
760.20351,0.00343
758.14334,0.00334
756.08317,0.00343
754.02299,0.00336
751.96282,0.00326
749.90265,0.00328
747.84248,0.00308
745.78231,0.00277
743.72213,0.00263
741.66196,0.00245
739.60179,0.00212
737.54162,0.00204
735.48145,0.00240
733.42127,0.00277
731.36110,0.00281
729.30093,0.00264
727.24076,0.00237
725.18059,0.00210
723.12041,0.00205
721.06024,0.00230
719.00007,0.00282
716.93990,0.00302
714.87972,0.00294
712.81955,0.00275
710.75938,0.00237
708.69921,0.00203
706.63904,0.00209
704.57886,0.00249
702.51869,0.00278
700.45852,0.00264
698.39835,0.00210
696.33818,0.00173
694.27800,0.00196
692.21783,0.00239
690.15766,0.00257
688.09749,0.00256
686.03731,0.00254
683.97714,0.00281
681.91697,0.00328
679.85680,0.00344
677.79663,0.00310
675.73645,0.00283
673.67628,0.00333
671.61611,0.00453
669.55594,0.00398
667.49577,0.00160
665.43559,0.00317
663.37542,0.00226
661.31525,0.00141
659.25508,0.00150
657.19491,0.00162
655.13473,0.00146
653.07456,0.00141
651.01439,0.00139
648.95422,0.00127
646.89404,0.00149
644.83387,0.00210
642.77370,0.00271
640.71353,0.00287
638.65336,0.00273
636.59318,0.00256
634.53301,0.00206
632.47284,0.00110
630.41267,0.00028
628.35250,0.00017
626.29232,0.00091
624.23215,0.00190
622.17198,0.00227
620.11181,0.00131
618.05164,0.00000
615.99146,-0.00004
613.93129,0.00116
611.87112,0.00217
609.81095,0.00187
607.75077,0.00062
605.69060,-0.00030
603.63043,-0.00050
601.57026,-0.00047
599.51009,0.00000
