3996.73391,-0.00014
3994.67373,-0.00029
3992.61356,-0.00022
3990.55339,0.00008
3988.49322,0.00039
3986.43305,0.00058
3984.37287,0.00063
3982.31270,0.00061
3980.25253,0.00064
3978.19236,0.00066
3976.13219,0.00061
3974.07201,0.00060
3972.01184,0.00068
3969.95167,0.00082
3967.89150,0.00101
3965.83133,0.00109
3963.77115,0.00092
3961.71098,0.00066
3959.65081,0.00061
3957.59064,0.00074
3955.53046,0.00098
3953.47029,0.00124
3951.41012,0.00112
3949.34995,0.00044
3947.28978,0.00000
3945.22960,0.00031
3943.16943,0.00063
3941.10926,0.00064
3939.04909,0.00078
3936.98892,0.00095
3934.92874,0.00075
3932.86857,0.00042
3930.80840,0.00054
3928.74823,0.00110
3926.68805,0.00152
3924.62788,0.00132
3922.56771,0.00057
3920.50754,-0.00003
3918.44737,-0.00018
3916.38719,0.00033
3914.32702,0.00127
3912.26685,0.00194
3910.20668,0.00221
3908.14651,0.00229
3906.08633,0.00196
3904.02616,0.00096
3901.96599,0.00012
3899.90582,0.00033
3897.84565,0.00082
3895.78547,0.00106
3893.72530,0.00111
3891.66513,0.00101
3889.60496,0.00104
3887.54478,0.00120
3885.48461,0.00118
3883.42444,0.00085
3881.36427,0.00046
3879.30410,0.00033
3877.24392,0.00057
3875.18375,0.00073
3873.12358,0.00053
3871.06341,0.00023
3869.00324,0.00027
3866.94306,0.00058
3864.88289,0.00066
3862.82272,0.00040
3860.76255,0.00021
3858.70237,0.00015
3856.64220,-0.00005
3854.58203,0.00000
3852.52186,0.00045
3850.46169,0.00100
3848.40151,0.00106
3846.34134,0.00116
3844.28117,0.00156
3842.22100,0.00174
3840.16083,0.00131
3838.10065,0.00066
3836.04048,0.00073
3833.98031,0.00141
3831.92014,0.00208
3829.85997,0.00270
3827.79979,0.00301
3825.73962,0.00287
3823.67945,0.00277
3821.61928,0.00293
3819.55910,0.00278
3817.49893,0.00263
3815.43876,0.00276
3813.37859,0.00302
3811.31842,0.00324
3809.25824,0.00338
3807.19807,0.00324
3805.13790,0.00311
3803.07773,0.00344
3801.01756,0.00377
3798.95738,0.00381
3796.89721,0.00383
3794.83704,0.00416
3792.77687,0.00462
3790.71670,0.00478
3788.65652,0.00477
3786.59635,0.00493
3784.53618,0.00519
3782.47601,0.00550
3780.41583,0.00583
3778.35566,0.00594
3776.29549,0.00594
3774.23532,0.00600
3772.17515,0.00601
3770.11497,0.00573
3768.05480,0.00516
3765.99463,0.00463
3763.93446,0.00439
3761.87429,0.00439
3759.81411,0.00416
3757.75394,0.00354
3755.69377,0.00321
3753.63360,0.00320
3751.57342,0.00254
3749.51325,0.00115
3747.45308,0.00042
3745.39291,0.00000
3743.33274,0.00021
3741.27256,0.00094
3739.21239,0.00123
3737.15222,0.00129
3735.09205,0.00139
3733.03188,0.00187
3730.97170,0.00264
3728.91153,0.00329
3726.85136,0.00361
3724.79119,0.00363
3722.73102,0.00356
3720.67084,0.00362
3718.61067,0.00350
3716.55050,0.00328
3714.49033,0.00348
3712.43015,0.00424
3710.36998,0.00486
3708.30981,0.00521
3706.24964,0.00561
3704.18947,0.00590
3702.12929,0.00592
3700.06912,0.00582
3698.00895,0.00591
3695.94878,0.00622
3693.88861,0.00659
3691.82843,0.00684
3689.76826,0.00642
3687.70809,0.00575
3685.64792,0.00574
3683.58775,0.00603
3681.52757,0.00625
3679.46740,0.00639
3677.40723,0.00632
3675.34706,0.00594
3673.28688,0.00566
3671.22671,0.00580
3669.16654,0.00616
3667.10637,0.00649
3665.04620,0.00677
3662.98602,0.00699
3660.92585,0.00708
3658.86568,0.00706
3656.80551,0.00706
3654.74534,0.00729
3652.68516,0.00798
3650.62499,0.00865
3648.56482,0.00854
3646.50465,0.00852
3644.44447,0.00865
3642.38430,0.00896
3640.32413,0.00947
3638.26396,0.00980
3636.20379,0.00987
3634.14361,0.01007
3632.08344,0.01052
3630.02327,0.01104
3627.96310,0.01141
3625.90293,0.01185
3623.84275,0.01242
3621.78258,0.01283
3619.72241,0.01272
3617.66224,0.01225
3615.60207,0.01192
3613.54189,0.01187
3611.48172,0.01208
3609.42155,0.01286
3607.36138,0.01397
3605.30120,0.01499
3603.24103,0.01598
3601.18086,0.01683
3599.12069,0.01727
3597.06052,0.01739
3595.00034,0.01764
3592.94017,0.01821
3590.88000,0.01888
3588.81983,0.01907
3586.75966,0.01894
3584.69948,0.01928
3582.63931,0.02008
3580.57914,0.02085
3578.51897,0.02143
3576.45879,0.02191
3574.39862,0.02234
3572.33845,0.02292
3570.27828,0.02359
3568.21811,0.02384
3566.15793,0.02376
3564.09776,0.02414
3562.03759,0.02483
3559.97742,0.02548
3557.91725,0.02602
3555.85707,0.02635
3553.79690,0.02654
3551.73673,0.02666
3549.67656,0.02660
3547.61639,0.02640
3545.55621,0.02664
3543.49604,0.02768
3541.43587,0.02889
3539.37570,0.02973
3537.31552,0.03021
3535.25535,0.03057
3533.19518,0.03098
3531.13501,0.03132
3529.07484,0.03144
3527.01466,0.03139
3524.95449,0.03150
3522.89432,0.03209
3520.83415,0.03304
3518.77398,0.03387
3516.71380,0.03440
3514.65363,0.03484
3512.59346,0.03527
3510.53329,0.03557
3508.47312,0.03580
3506.41294,0.03608
3504.35277,0.03629
3502.29260,0.03643
3500.23243,0.03697
3498.17225,0.03783
3496.11208,0.03852
3494.05191,0.03894
3491.99174,0.03930
3489.93157,0.03967
3487.87139,0.03998
3485.81122,0.04017
3483.75105,0.04040
3481.69088,0.04060
3479.63071,0.04073
3477.57053,0.04105
3475.51036,0.04162
3473.45019,0.04216
3471.39002,0.04255
3469.32984,0.04294
3467.26967,0.04348
3465.20950,0.04403
3463.14933,0.04438
3461.08916,0.04444
3459.02898,0.04445
3456.96881,0.04468
3454.90864,0.04525
3452.84847,0.04592
3450.78830,0.04630
3448.72812,0.04629
3446.66795,0.04621
3444.60778,0.04635
3442.54761,0.04657
3440.48744,0.04668
3438.42726,0.04688
3436.36709,0.04728
3434.30692,0.04781
3432.24675,0.04823
3430.18657,0.04847
3428.12640,0.04868
3426.06623,0.04886
3424.00606,0.04902
3421.94589,0.04919
3419.88571,0.04923
3417.82554,0.04950
3415.76537,0.04996
3413.70520,0.05022
3411.64503,0.05039
3409.58485,0.05066
3407.52468,0.05096
3405.46451,0.05126
3403.40434,0.05142
3401.34416,0.05133
3399.28399,0.05041
3397.22382,0.05071
3395.16365,0.05113
3393.10348,0.05132
3391.04330,0.05161
3388.98313,0.05200
3386.92296,0.05220
3384.86279,0.05230
3382.80262,0.05261
3380.74244,0.05311
3378.68227,0.05359
3376.62210,0.05376
3374.56193,0.05373
3372.50176,0.05378
3370.44158,0.05394
3368.38141,0.05411
3366.32124,0.05425
3364.26107,0.05434
3362.20089,0.05428
3360.14072,0.05419
3358.08055,0.05422
3356.02038,0.05434
3353.96021,0.05447
3351.90003,0.05462
3349.83986,0.05479
3347.77969,0.05493
3345.71952,0.05500
3343.65935,0.05508
3341.59917,0.05509
3339.53900,0.05488
3337.47883,0.05477
3335.41866,0.05499
3333.35849,0.05526
3331.29831,0.05546
3329.23814,0.05568
3327.17797,0.05581
3325.11780,0.05575
3323.05762,0.05577
3320.99745,0.05599
3318.93728,0.05614
3316.87711,0.05603
3314.81694,0.05563
3312.75676,0.05528
3310.69659,0.05537
3308.63642,0.05576
3306.57625,0.05605
3304.51608,0.05618
3302.45590,0.05629
3300.39573,0.05622
3298.33556,0.05595
3296.27539,0.05577
3294.21521,0.05581
3292.15504,0.05591
3290.09487,0.05598
3288.03470,0.05610
3285.97453,0.05627
3283.91435,0.05641
3281.85418,0.05655
3279.79401,0.05649
3277.73384,0.05615
3275.67367,0.05591
3273.61349,0.05602
3271.55332,0.05634
3269.49315,0.05650
3267.43298,0.05646
3265.37281,0.05644
3263.31263,0.05640
3261.25246,0.05630
3259.19229,0.05628
3257.13212,0.05614
3255.07194,0.05581
3253.01177,0.05563
3250.95160,0.05570
3248.89143,0.05585
3246.83126,0.05593
3244.77108,0.05596
3242.71091,0.05604
3240.65074,0.05603
3238.59057,0.05589
3236.53040,0.05580
3234.47022,0.05577
3232.41005,0.05570
3230.34988,0.05558
3228.28971,0.05548
3226.22954,0.05541
3224.16936,0.05530
3222.10919,0.05501
3220.04902,0.05460
3217.98885,0.05443
3215.92867,0.05453
3213.86850,0.05463
3211.80833,0.05460
3209.74816,0.05444
3207.68799,0.05438
3205.62781,0.05455
3203.56764,0.05464
3201.50747,0.05442
3199.44730,0.05410
3197.38713,0.05397
3195.32695,0.05398
3193.26678,0.05392
3191.20661,0.05371
3189.14644,0.05349
3187.08626,0.05331
3185.02609,0.05311
3182.96592,0.05297
3180.90575,0.05287
3178.84558,0.05275
3176.78540,0.05274
3174.72523,0.05276
3172.66506,0.05264
3170.60489,0.05249
3168.54472,0.05235
3166.48454,0.05220
3164.42437,0.05215
3162.36420,0.05205
3160.30403,0.05179
3158.24386,0.05158
3156.18368,0.05148
3154.12351,0.05129
3152.06334,0.05103
3150.00317,0.05080
3147.94299,0.05056
3145.88282,0.05038
3143.82265,0.05033
3141.76248,0.05028
3139.70231,0.05014
3137.64213,0.04994
3135.58196,0.04957
3133.52179,0.04913
3131.46162,0.04896
3129.40145,0.04890
3127.34127,0.04870
3125.28110,0.04842
3123.22093,0.04814
3121.16076,0.04793
3119.10058,0.04775
3117.04041,0.04746
3114.98024,0.04726
3112.92007,0.04732
3110.85990,0.04737
3108.79972,0.04725
3106.73955,0.04703
3104.67938,0.04668
3102.61921,0.04627
3100.55904,0.04600
3098.49886,0.04585
3096.43869,0.04567
3094.37852,0.04558
3092.31835,0.04565
3090.25818,0.04568
3088.19800,0.04556
3086.13783,0.04547
3084.07766,0.04534
3082.01749,0.04500
3079.95731,0.04468
3077.89714,0.04450
3075.83697,0.04429
3073.77680,0.04412
3071.71663,0.04419
3069.65645,0.04422
3067.59628,0.04391
3065.53611,0.04349
3063.47594,0.04332
3061.41577,0.04333
3059.35559,0.04325
3057.29542,0.04290
3055.23525,0.04250
3053.17508,0.04232
3051.11491,0.04227
3049.05473,0.04215
3046.99456,0.04192
3044.93439,0.04171
3042.87422,0.04157
3040.81404,0.04143
3038.75387,0.04121
3036.69370,0.04093
3034.63353,0.04062
3032.57336,0.04021
3030.51318,0.03972
3028.45301,0.03944
3026.39284,0.03941
3024.33267,0.03942
3022.27250,0.03945
3020.21232,0.03946
3018.15215,0.03928
3016.09198,0.03876
3014.03181,0.03816
3011.97163,0.03779
3009.91146,0.03770
3007.85129,0.03770
3005.79112,0.03760
3003.73095,0.03743
3001.67077,0.03731
2999.61060,0.03734
2997.55043,0.03716
2995.49026,0.03690
2993.43009,0.03672
2991.36991,0.03680
2989.30974,0.03686
2987.24957,0.03680
2985.18940,0.03687
2983.12923,0.03707
2981.06905,0.03715
2979.00888,0.03709
2976.94871,0.03704
2974.88854,0.03696
2972.82836,0.03685
2970.76819,0.03680
2968.70802,0.03681
2966.64785,0.03688
2964.58768,0.03697
2962.52750,0.03702
2960.46733,0.03712
2958.40716,0.03732
2956.34699,0.03744
2954.28682,0.03742
2952.22664,0.03748
2950.16647,0.03756
2948.10630,0.03751
2946.04613,0.03753
2943.98596,0.03764
2941.92578,0.03755
2939.86561,0.03737
2937.80544,0.03737
2935.74527,0.03755
2933.68509,0.03773
2931.62492,0.03783
2929.56475,0.03780
2927.50458,0.03764
2925.44441,0.03745
2923.38423,0.03733
2921.32406,0.03738
2919.26389,0.03750
2917.20372,0.03738
2915.14355,0.03711
2913.08337,0.03687
2911.02320,0.03668
2908.96303,0.03649
2906.90286,0.03628
2904.84268,0.03604
2902.78251,0.03583
2900.72234,0.03571
2898.66217,0.03566
2896.60200,0.03567
2894.54182,0.03563
2892.48165,0.03544
2890.42148,0.03529
2888.36131,0.03536
2886.30114,0.03548
2884.24096,0.03550
2882.18079,0.03543
2880.12062,0.03526
2878.06045,0.03508
2876.00028,0.03499
2873.94010,0.03482
2871.87993,0.03453
2869.81976,0.03426
2867.75959,0.03405
2865.69941,0.03384
2863.63924,0.03367
2861.57907,0.03365
2859.51890,0.03360
2857.45873,0.03340
2855.39855,0.03325
2853.33838,0.03309
2851.27821,0.03283
2849.21804,0.03266
2847.15787,0.03258
2845.09769,0.03230
2843.03752,0.03194
2840.97735,0.03173
2838.91718,0.03152
2836.85700,0.03126
2834.79683,0.03108
2832.73666,0.03093
2830.67649,0.03071
2828.61632,0.03044
2826.55614,0.03018
2824.49597,0.02998
2822.43580,0.02980
2820.37563,0.02960
2818.31546,0.02942
2816.25528,0.02926
2814.19511,0.02920
2812.13494,0.02924
2810.07477,0.02910
2808.01460,0.02869
2805.95442,0.02832
2803.89425,0.02811
2801.83408,0.02793
2799.77391,0.02778
2797.71373,0.02769
2795.65356,0.02758
2793.59339,0.02744
2791.53322,0.02735
2789.47305,0.02726
2787.41287,0.02706
2785.35270,0.02678
2783.29253,0.02660
2781.23236,0.02648
2779.17219,0.02642
2777.11201,0.02641
2775.05184,0.02631
2772.99167,0.02611
2770.93150,0.02590
2768.87133,0.02568
2766.81115,0.02545
2764.75098,0.02528
2762.69081,0.02516
2760.63064,0.02503
2758.57046,0.02492
2756.51029,0.02484
2754.45012,0.02473
2752.38995,0.02468
2750.32978,0.02464
2748.26960,0.02451
2746.20943,0.02433
2744.14926,0.02410
2742.08909,0.02385
2740.02892,0.02373
2737.96874,0.02367
2735.90857,0.02347
2733.84840,0.02324
2731.78823,0.02319
2729.72805,0.02324
2727.66788,0.02319
2725.60771,0.02300
2723.54754,0.02274
2721.48737,0.02254
2719.42719,0.02248
2717.36702,0.02245
2715.30685,0.02234
2713.24668,0.02215
2711.18651,0.02201
2709.12633,0.02192
2707.06616,0.02174
2705.00599,0.02158
2702.94582,0.02155
2700.88565,0.02153
2698.82547,0.02144
2696.76530,0.02131
2694.70513,0.02122
2692.64496,0.02118
2690.58478,0.02111
2688.52461,0.02100
2686.46444,0.02083
2684.40427,0.02067
2682.34410,0.02054
2680.28392,0.02042
2678.22375,0.02037
2676.16358,0.02034
2674.10341,0.02030
2672.04324,0.02025
2669.98306,0.02007
2667.92289,0.01983
2665.86272,0.01983
2663.80255,0.01992
2661.74238,0.01987
2659.68220,0.01983
2657.62203,0.01981
2655.56186,0.01969
2653.50169,0.01957
2651.44151,0.01956
2649.38134,0.01953
2647.32117,0.01935
2645.26100,0.01915
2643.20083,0.01903
2641.14065,0.01893
2639.08048,0.01882
2637.02031,0.01883
2634.96014,0.01891
2632.89997,0.01888
2630.83979,0.01875
2628.77962,0.01851
2626.71945,0.01821
2624.65928,0.01809
2622.59910,0.01812
2620.53893,0.01813
2618.47876,0.01816
2616.41859,0.01824
2614.35842,0.01831
2612.29824,0.01832
2610.23807,0.01820
2608.17790,0.01795
2606.11773,0.01769
2604.05756,0.01763
2601.99738,0.01781
2599.93721,0.01791
2597.87704,0.01781
2595.81687,0.01775
2593.75670,0.01779
2591.69652,0.01782
2589.63635,0.01781
2587.57618,0.01778
2585.51601,0.01773
2583.45583,0.01764
2581.39566,0.01749
2579.33549,0.01743
2577.27532,0.01744
2575.21515,0.01732
2573.15497,0.01727
2571.09480,0.01736
2569.03463,0.01733
2566.97446,0.01727
2564.91429,0.01735
2562.85411,0.01741
2560.79394,0.01747
2558.73377,0.01754
2556.67360,0.01744
2554.61342,0.01726
2552.55325,0.01730
2550.49308,0.01753
2548.43291,0.01773
2546.37274,0.01772
2544.31256,0.01753
2542.25239,0.01743
2540.19222,0.01742
2538.13205,0.01745
2536.07188,0.01743
2534.01170,0.01738
2531.95153,0.01742
2529.89136,0.01750
2527.83119,0.01759
2525.77102,0.01768
2523.71084,0.01772
2521.65067,0.01769
2519.59050,0.01777
2517.53033,0.01792
2515.47015,0.01784
2513.40998,0.01761
2511.34981,0.01753
2509.28964,0.01757
2507.22947,0.01764
2505.16929,0.01782
2503.10912,0.01804
2501.04895,0.01797
2498.98878,0.01751
2496.92861,0.01738
2494.86843,0.01789
2492.80826,0.01830
2490.74809,0.01835
2488.68792,0.01832
2486.62775,0.01846
2484.56757,0.01875
2482.50740,0.01882
2480.44723,0.01864
2478.38706,0.01865
2476.32688,0.01896
2474.26671,0.01927
2472.20654,0.01923
2470.14637,0.01896
2468.08620,0.01879
2466.02602,0.01868
2463.96585,0.01861
2461.90568,0.01878
2459.84551,0.01911
2457.78534,0.01922
2455.72516,0.01915
2453.66499,0.01923
2451.60482,0.01921
2449.54465,0.01905
2447.48447,0.01919
2445.42430,0.01955
2443.36413,0.01972
2441.30396,0.01967
2439.24379,0.01956
2437.18361,0.01948
2435.12344,0.01942
2433.06327,0.01920
2431.00310,0.01888
2428.94293,0.01893
2426.88275,0.01927
2424.82258,0.01933
2422.76241,0.01920
2420.70224,0.01916
2418.64207,0.01914
2416.58189,0.01917
2414.52172,0.01916
2412.46155,0.01894
2410.40138,0.01856
2408.34120,0.01837
2406.28103,0.01847
2404.22086,0.01863
2402.16069,0.01882
2400.10052,0.01895
2398.04034,0.01843
2395.98017,0.01850
2393.92000,0.01881
2391.85983,0.01884
2389.79966,0.01876
2387.73948,0.01884
2385.67931,0.01886
2383.61914,0.01848
2381.55897,0.01786
2379.49880,0.01750
2377.43862,0.01756
2375.37845,0.01737
2373.31828,0.01720
2371.25811,0.01769
2369.19793,0.01880
2367.13776,0.02006
2365.07759,0.02046
2363.01742,0.01928
2360.95725,0.01953
2358.89707,0.01966
2356.83690,0.01986
2354.77673,0.01982
2352.71656,0.01990
2350.65639,0.02182
2348.59621,0.02286
2346.53604,0.01909
2344.47587,0.01804
2342.41570,0.01945
2340.35552,0.02091
2338.29535,0.02152
2336.23518,0.02131
2334.17501,0.02082
2332.11484,0.01979
2330.05466,0.01904
2327.99449,0.01844
2325.93432,0.01837
2323.87415,0.01720
2321.81398,0.01611
2319.75380,0.01510
2317.69363,0.01517
2315.63346,0.01500
2313.57329,0.01437
2311.51312,0.01406
2309.45294,0.01420
2307.39277,0.01460
2305.33260,0.01512
2303.27243,0.01567
2301.21225,0.01577
2299.15208,0.01557
2297.09191,0.01525
2295.03174,0.01512
2292.97157,0.01529
2290.91139,0.01549
2288.85122,0.01561
2286.79105,0.01551
2284.73088,0.01517
2282.67071,0.01489
2280.61053,0.01473
2278.55036,0.01451
2276.49019,0.01441
2274.43002,0.01455
2272.36984,0.01455
2270.30967,0.01434
2268.24950,0.01424
2266.18933,0.01438
2264.12916,0.01456
2262.06898,0.01464
2260.00881,0.01441
2257.94864,0.01392
2255.88847,0.01355
2253.82830,0.01345
2251.76812,0.01333
2249.70795,0.01297
2247.64778,0.01296
2245.58761,0.01291
2243.52744,0.01256
2241.46726,0.01213
2239.40709,0.01195
2237.34692,0.01199
2235.28675,0.01218
2233.22657,0.01253
2231.16640,0.01267
2229.10623,0.01258
2227.04606,0.01256
2224.98589,0.01243
2222.92571,0.01194
2220.86554,0.01113
2218.80537,0.01059
2216.74520,0.01066
2214.68503,0.01072
2212.62485,0.01080
2210.56468,0.01110
2208.50451,0.01122
2206.44434,0.01108
2204.38417,0.01107
2202.32399,0.01125
2200.26382,0.01090
2198.20365,0.01025
2196.14348,0.01043
2194.08330,0.01082
2192.02313,0.01071
2189.96296,0.01052
2187.90279,0.01000
2185.84262,0.00901
2183.78244,0.00847
2181.72227,0.00855
2179.66210,0.00873
2177.60193,0.00910
2175.54176,0.00947
2173.48158,0.00917
2171.42141,0.00858
2169.36124,0.00860
2167.30107,0.00894
2165.24089,0.00907
2163.18072,0.00875
2161.12055,0.00766
2159.06038,0.00614
2157.00021,0.00521
2154.94003,0.00572
2152.87986,0.00734
2150.81969,0.00856
2148.75952,0.00833
2146.69935,0.00754
2144.63917,0.00734
2142.57900,0.00744
2140.51883,0.00749
2138.45866,0.00769
2136.39849,0.00788
2134.33831,0.00798
2132.27814,0.00817
2130.21797,0.00826
2128.15780,0.00821
2126.09762,0.00812
2124.03745,0.00792
2121.97728,0.00789
2119.91711,0.00826
2117.85694,0.00851
2115.79676,0.00818
2113.73659,0.00782
2111.67642,0.00792
2109.61625,0.00807
2107.55608,0.00798
2105.49590,0.00776
2103.43573,0.00748
2101.37556,0.00749
2099.31539,0.00862
2097.25521,0.00913
2095.19504,0.00855
2093.13487,0.00746
2091.07470,0.00673
2089.01453,0.00689
2086.95435,0.00774
2084.89418,0.00837
2082.83401,0.00842
2080.77384,0.00857
2078.71367,0.00906
2076.65349,0.00932
2074.59332,0.00917
2072.53315,0.00893
2070.47298,0.00863
2068.41281,0.00846
2066.35263,0.00832
2064.29246,0.00770
2062.23229,0.00689
2060.17212,0.00650
2058.11194,0.00659
2056.05177,0.00695
2053.99160,0.00730
2051.93143,0.00768
2049.87126,0.00850
2047.81108,0.00963
2045.75091,0.01042
2043.69074,0.01036
2041.63057,0.00986
2039.57040,0.00964
2037.51022,0.00967
2035.45005,0.00960
2033.38988,0.00907
2031.32971,0.00813
2029.26954,0.00731
2027.20936,0.00712
2025.14919,0.00785
2023.08902,0.00865
2021.02885,0.00823
2018.96867,0.00698
2016.90850,0.00652
2014.84833,0.00702
2012.78816,0.00755
2010.72799,0.00817
2008.66781,0.00883
2006.60764,0.00885
2004.54747,0.00790
2002.48730,0.00662
2000.42713,0.00593
1998.36695,0.00583
1996.30678,0.00583
1994.24661,0.00593
1992.18644,0.00581
1990.12626,0.00539
1988.06609,0.00527
1986.00592,0.00552
1983.94575,0.00606
1981.88558,0.00749
1979.82540,0.00939
1977.76523,0.01018
1975.70506,0.00949
1973.64489,0.00851
1971.58472,0.00804
1969.52454,0.00801
1967.46437,0.00807
1965.40420,0.00783
1963.34403,0.00718
1961.28386,0.00642
1959.22368,0.00610
1957.16351,0.00614
1955.10334,0.00598
1953.04317,0.00587
1950.98299,0.00620
1948.92282,0.00679
1946.86265,0.00732
1944.80248,0.00779
1942.74231,0.00838
1940.68213,0.00874
1938.62196,0.00865
1936.56179,0.00838
1934.50162,0.00813
1932.44145,0.00781
1930.38127,0.00771
1928.32110,0.00791
1926.26093,0.00792
1924.20076,0.00763
1922.14059,0.00737
1920.08041,0.00724
1918.02024,0.00730
1915.96007,0.00760
1913.89990,0.00813
1911.83972,0.00853
1909.77955,0.00852
1907.71938,0.00832
1905.65921,0.00834
1903.59904,0.00846
1901.53886,0.00838
1899.47869,0.00827
1897.41852,0.00840
1895.35835,0.00855
1893.29818,0.00853
1891.23800,0.00860
1889.17783,0.00874
1887.11766,0.00880
1885.05749,0.00877
1882.99731,0.00869
1880.93714,0.00862
1878.87697,0.00860
1876.81680,0.00862
1874.75663,0.00874
1872.69645,0.00905
1870.63628,0.00954
1868.57611,0.00984
1866.51594,0.00964
1864.45577,0.00923
1862.39559,0.00899
1860.33542,0.00905
1858.27525,0.00936
1856.21508,0.00971
1854.15491,0.00989
1852.09473,0.00991
1850.03456,0.00993
1847.97439,0.00992
1845.91422,0.00960
1843.85404,0.00907
1841.79387,0.00893
1839.73370,0.00925
1837.67353,0.00962
1835.61336,0.00968
1833.55318,0.00974
1831.49301,0.01024
1829.43284,0.01069
1827.37267,0.01069
1825.31250,0.01061
1823.25232,0.01075
1821.19215,0.01096
1819.13198,0.01085
1817.07181,0.01048
1815.01163,0.01031
1812.95146,0.01035
1810.89129,0.01027
1808.83112,0.01007
1806.77095,0.00998
1804.71077,0.00992
1802.65060,0.00984
1800.59043,0.00996
1798.53026,0.01010
1796.47009,0.01011
1794.40991,0.01018
1792.34974,0.01020
1790.28957,0.01001
1788.22940,0.00979
1786.16923,0.00958
1784.10905,0.00966
1782.04888,0.01009
1779.98871,0.01022
1777.92854,0.01002
1775.86836,0.01018
1773.80819,0.01068
1771.74802,0.01068
1769.68785,0.01003
1767.62768,0.00973
1765.56750,0.01011
1763.50733,0.01069
1761.44716,0.01098
1759.38699,0.01100
1757.32682,0.01114
1755.26664,0.01147
1753.20647,0.01187
1751.14630,0.01230
1749.08613,0.01273
1747.02596,0.01299
1744.96578,0.01320
1742.90561,0.01354
1740.84544,0.01381
1738.78527,0.01381
1736.72509,0.01376
1734.66492,0.01365
1732.60475,0.01330
1730.54458,0.01308
1728.48441,0.01296
1726.42423,0.01289
1724.36406,0.01276
1722.30389,0.01276
1720.24372,0.01323
1718.18355,0.01342
1716.12337,0.01234
1714.06320,0.01141
1712.00303,0.01122
1709.94286,0.01154
1707.88268,0.01202
1705.82251,0.01207
1703.76234,0.01181
1701.70217,0.01211
1699.64200,0.01273
1697.58182,0.01310
1695.52165,0.01335
1693.46148,0.01378
1691.40131,0.01451
1689.34114,0.01572
1687.28096,0.01742
1685.22079,0.01946
1683.16062,0.02047
1681.10045,0.02052
1679.04028,0.02100
1676.98010,0.02233
1674.91993,0.02406
1672.85976,0.02564
1670.79959,0.02692
1668.73941,0.02772
1666.67924,0.02815
1664.61907,0.02883
1662.55890,0.02955
1660.49873,0.02964
1658.43855,0.02970
1656.37838,0.03059
1654.31821,0.03192
1652.25804,0.03214
1650.19787,0.03191
1648.13769,0.03194
1646.07752,0.03185
1644.01735,0.03126
1641.95718,0.03090
1639.89701,0.03128
1637.83683,0.03214
1635.77666,0.03237
1633.71649,0.03161
1631.65632,0.03089
1629.59614,0.03066
1627.53597,0.03068
1625.47580,0.03069
1623.41563,0.03048
1621.35546,0.03006
1619.29528,0.03021
1617.23511,0.03078
1615.17494,0.03052
1613.11477,0.02972
1611.05460,0.02931
1608.99442,0.02926
1606.93425,0.02919
1604.87408,0.02911
1602.81391,0.02898
1600.75373,0.02868
1598.69356,0.02837
1596.63339,0.02815
1594.57322,0.02785
1592.51305,0.02733
1590.45287,0.02673
1588.39270,0.02615
1586.33253,0.02560
1584.27236,0.02502
1582.21219,0.02443
1580.15201,0.02414
1578.09184,0.02410
1576.03167,0.02335
1573.97150,0.02189
1571.91133,0.02105
1569.85115,0.02073
1567.79098,0.02000
1565.73081,0.01909
1563.67064,0.01882
1561.61046,0.01967
1559.55029,0.02025
1557.49012,0.01836
1555.42995,0.01631
1553.36978,0.01534
1551.30960,0.01498
1549.24943,0.01473
1547.18926,0.01463
1545.12909,0.01505
1543.06892,0.01593
1541.00874,0.01654
1538.94857,0.01552
1536.88840,0.01385
1534.82823,0.01299
1532.76805,0.01272
1530.70788,0.01229
1528.64771,0.01187
1526.58754,0.01145
1524.52737,0.01109
1522.46719,0.01086
1520.40702,0.01030
1518.34685,0.00975
1516.28668,0.00924
1514.22651,0.00846
1512.16633,0.00793
1510.10616,0.00823
1508.04599,0.00889
1505.98582,0.00872
1503.92565,0.00783
1501.86547,0.00721
1499.80530,0.00745
1497.74513,0.00789
1495.68496,0.00789
1493.62478,0.00804
1491.56461,0.00852
1489.50444,0.00859
1487.44427,0.00814
1485.38410,0.00783
1483.32392,0.00786
1481.26375,0.00811
1479.20358,0.00844
1477.14341,0.00891
1475.08324,0.00948
1473.02306,0.00989
1470.96289,0.00995
1468.90272,0.00994
1466.84255,0.01037
1464.78238,0.01091
1462.72220,0.01111
1460.66203,0.01163
1458.60186,0.01231
1456.54169,0.01201
1454.48151,0.01143
1452.42134,0.01141
1450.36117,0.01212
1448.30100,0.01303
1446.24083,0.01350
1444.18065,0.01366
1442.12048,0.01382
1440.06031,0.01401
1438.00014,0.01410
1435.93997,0.01403
1433.87979,0.01412
1431.81962,0.01455
1429.75945,0.01519
1427.69928,0.01579
1425.63910,0.01642
1423.57893,0.01702
1421.51876,0.01745
1419.45859,0.01778
1417.39842,0.01827
1415.33824,0.01906
1413.27807,0.01995
1411.21790,0.02068
1409.15773,0.02121
1407.09756,0.02164
1405.03738,0.02192
1402.97721,0.02203
1400.91704,0.02201
1398.85687,0.02169
1396.79670,0.02126
1394.73652,0.02108
1392.67635,0.02099
1390.61618,0.02090
1388.55601,0.02089
1386.49583,0.02091
1384.43566,0.02091
1382.37549,0.02088
1380.31532,0.02089
1378.25515,0.02109
1376.19497,0.02147
1374.13480,0.02159
1372.07463,0.02139
1370.01446,0.02132
1367.95429,0.02139
1365.89411,0.02136
1363.83394,0.02105
1361.77377,0.02066
1359.71360,0.02064
1357.65343,0.02089
1355.59325,0.02104
1353.53308,0.02090
1351.47291,0.02058
1349.41274,0.02014
1347.35256,0.01956
1345.29239,0.01888
1343.23222,0.01814
1341.17205,0.01729
1339.11188,0.01640
1337.05170,0.01601
1334.99153,0.01611
1332.93136,0.01612
1330.87119,0.01578
1328.81102,0.01539
1326.75084,0.01508
1324.69067,0.01472
1322.63050,0.01436
1320.57033,0.01413
1318.51015,0.01391
1316.44998,0.01364
1314.38981,0.01336
1312.32964,0.01312
1310.26947,0.01297
1308.20929,0.01286
1306.14912,0.01272
1304.08895,0.01261
1302.02878,0.01253
1299.96861,0.01240
1297.90843,0.01228
1295.84826,0.01226
1293.78809,0.01225
1291.72792,0.01203
1289.66775,0.01168
1287.60757,0.01142
1285.54740,0.01134
1283.48723,0.01139
1281.42706,0.01145
1279.36688,0.01144
1277.30671,0.01144
1275.24654,0.01147
1273.18637,0.01147
1271.12620,0.01143
1269.06602,0.01140
1267.00585,0.01145
1264.94568,0.01156
1262.88551,0.01177
1260.82534,0.01201
1258.76516,0.01218
1256.70499,0.01220
1254.64482,0.01212
1252.58465,0.01211
1250.52447,0.01214
1248.46430,0.01207
1246.40413,0.01190
1244.34396,0.01170
1242.28379,0.01154
1240.22361,0.01137
1238.16344,0.01119
1236.10327,0.01103
1234.04310,0.01080
1231.98293,0.01057
1229.92275,0.01034
1227.86258,0.01002
1225.80241,0.00969
1223.74224,0.00943
1221.68207,0.00910
1219.62189,0.00869
1217.56172,0.00831
1215.50155,0.00795
1213.44138,0.00758
1211.38120,0.00732
1209.32103,0.00725
1207.26086,0.00730
1205.20069,0.00749
1203.14052,0.00783
1201.08034,0.00819
1199.02017,0.00855
1196.96000,0.00937
1194.89983,0.01046
1192.83966,0.01159
1190.77948,0.01287
1188.71931,0.01433
1186.65914,0.01605
1184.59897,0.01807
1182.53880,0.02017
1180.47862,0.02228
1178.41845,0.02445
1176.35828,0.02646
1174.29811,0.02830
1172.23793,0.03031
1170.17776,0.03235
1168.11759,0.03414
1166.05742,0.03584
1163.99725,0.03767
1161.93707,0.03945
1159.87690,0.04110
1157.81673,0.04274
1155.75656,0.04432
1153.69639,0.04578
1151.63621,0.04722
1149.57604,0.04857
1147.51587,0.04974
1145.45570,0.05070
1143.39552,0.05141
1141.33535,0.05186
1139.27518,0.05205
1137.21501,0.05207
1135.15484,0.05208
1133.09466,0.05217
1131.03449,0.05229
1128.97432,0.05248
1126.91415,0.05284
1124.85398,0.05342
1122.79380,0.05433
1120.73363,0.05561
1118.67346,0.05707
1116.61329,0.05856
1114.55312,0.06022
1112.49294,0.06205
1110.43277,0.06396
1108.37260,0.06592
1106.31243,0.06789
1104.25225,0.06986
1102.19208,0.07195
1100.13191,0.07417
1098.07174,0.07630
1096.01157,0.07816
1093.95139,0.07987
1091.89122,0.08164
1089.83105,0.08354
1087.77088,0.08550
1085.71071,0.08735
1083.65053,0.08913
1081.59036,0.09099
1079.53019,0.09278
1077.47002,0.09430
1075.40985,0.09553
1073.34967,0.09646
1071.28950,0.09701
1069.22933,0.09718
1067.16916,0.09706
1065.10898,0.09655
1063.04881,0.09573
1060.98864,0.09487
1058.92847,0.09392
1056.86830,0.09275
1054.80812,0.09132
1052.74795,0.08962
1050.68778,0.08770
1048.62761,0.08571
1046.56744,0.08372
1044.50726,0.08164
1042.44709,0.07931
1040.38692,0.07680
1038.32675,0.07416
1036.26657,0.07127
1034.20640,0.06816
1032.14623,0.06531
1030.08606,0.06297
1028.02589,0.06077
1025.96571,0.05854
1023.90554,0.05642
1021.84537,0.05447
1019.78520,0.05266
1017.72503,0.05104
1015.66485,0.04970
1013.60468,0.04865
1011.54451,0.04783
1009.48434,0.04728
1007.42417,0.04701
1005.36399,0.04696
1003.30382,0.04728
1001.24365,0.04808
999.18348,0.04907
997.12330,0.05002
995.06313,0.05086
993.00296,0.05158
990.94279,0.05235
988.88262,0.05314
986.82244,0.05380
984.76227,0.05434
982.70210,0.05468
980.64193,0.05476
978.58176,0.05457
976.52158,0.05413
974.46141,0.05364
972.40124,0.05318
970.34107,0.05265
968.28089,0.05196
966.22072,0.05111
964.16055,0.05034
962.10038,0.04979
960.04021,0.04932
957.98003,0.04889
955.91986,0.04849
953.85969,0.04802
951.79952,0.04751
949.73935,0.04712
947.67917,0.04690
945.61900,0.04666
943.55883,0.04617
941.49866,0.04547
939.43849,0.04467
937.37831,0.04381
935.31814,0.04273
933.25797,0.04135
931.19780,0.03987
929.13762,0.03843
927.07745,0.03692
925.01728,0.03534
922.95711,0.03370
920.89694,0.03206
918.83676,0.03051
916.77659,0.02902
914.71642,0.02745
912.65625,0.02596
910.59608,0.02475
908.53590,0.02363
906.47573,0.02254
904.41556,0.02165
902.35539,0.02105
900.29522,0.02066
898.23504,0.02031
896.17487,0.02008
894.11470,0.02010
892.05453,0.02041
889.99435,0.02088
887.93418,0.02134
885.87401,0.02207
883.81384,0.02328
881.75367,0.02474
879.69349,0.02627
877.63332,0.02806
875.57315,0.03023
873.51298,0.03263
871.45281,0.03520
869.39263,0.03793
867.33246,0.04074
865.27229,0.04352
863.21212,0.04615
861.15194,0.04846
859.09177,0.05033
857.03160,0.05154
854.97143,0.05195
852.91126,0.05186
850.85108,0.05145
848.79091,0.05049
846.73074,0.04903
844.67057,0.04753
842.61040,0.04598
840.55022,0.04430
838.49005,0.04256
836.42988,0.04064
834.36971,0.03880
832.30954,0.03716
830.24936,0.03564
828.18919,0.03436
826.12902,0.03315
824.06885,0.03182
822.00867,0.03080
819.94850,0.03002
817.88833,0.02891
815.82816,0.02759
813.76799,0.02651
811.70781,0.02552
809.64764,0.02451
807.58747,0.02383
805.52730,0.02336
803.46713,0.02284
801.40695,0.02236
799.34678,0.02176
797.28661,0.02084
795.22644,0.02000
793.16627,0.01951
791.10609,0.01909
789.04592,0.01855
786.98575,0.01810
784.92558,0.01783
782.86540,0.01762
780.80523,0.01733
778.74506,0.01706
776.68489,0.01687
774.62472,0.01650
772.56454,0.01582
770.50437,0.01528
768.44420,0.01509
766.38403,0.01495
764.32386,0.01472
762.26368,0.01438
760.20351,0.01389
758.14334,0.01336
756.08317,0.01290
754.02299,0.01252
751.96282,0.01237
749.90265,0.01243
747.84248,0.01218
745.78231,0.01163
743.72213,0.01115
741.66196,0.01063
739.60179,0.01011
737.54162,0.01002
735.48145,0.01030
733.42127,0.01052
731.36110,0.01048
729.30093,0.01010
727.24076,0.00966
725.18059,0.00947
723.12041,0.00967
721.06024,0.00897
719.00007,0.00926
716.93990,0.00965
714.87972,0.00952
712.81955,0.00946
710.75938,0.00956
708.69921,0.00943
706.63904,0.00924
704.57886,0.00951
702.51869,0.01010
700.45852,0.01026
698.39835,0.00969
696.33818,0.00905
694.27800,0.00894
692.21783,0.00909
690.15766,0.00891
688.09749,0.00866
686.03731,0.00904
683.97714,0.00995
681.91697,0.01063
679.85680,0.01060
677.79663,0.01018
675.73645,0.01018
673.67628,0.01120
671.61611,0.01247
669.55594,0.00880
667.49577,0.00366
665.43559,0.01060
663.37542,0.00988
661.31525,0.00839
659.25508,0.00832
657.19491,0.00820
655.13473,0.00772
653.07456,0.00756
651.01439,0.00759
648.95422,0.00706
646.89404,0.00649
644.83387,0.00616
642.77370,0.00643
640.71353,0.00671
638.65336,0.00626
636.59318,0.00525
634.53301,0.00445
632.47284,0.00398
630.41267,0.00343
628.35250,0.00319
626.29232,0.00378
624.23215,0.00435
622.17198,0.00419
620.11181,0.00314
618.05164,0.00184
615.99146,0.00106
613.93129,0.00046
611.87112,0.00057
609.81095,0.00164
607.75077,0.00198
605.69060,0.00117
603.63043,0.00035
601.57026,0.00000
599.51009,0.00000
