3996.73391,0.00021
3994.67373,-0.00014
3992.61356,-0.00034
3990.55339,-0.00031
3988.49322,-0.00011
3986.43305,0.00016
3984.37287,0.00029
3982.31270,0.00026
3980.25253,0.00023
3978.19236,0.00026
3976.13219,0.00029
3974.07201,0.00043
3972.01184,0.00065
3969.95167,0.00080
3967.89150,0.00095
3965.83133,0.00112
3963.77115,0.00109
3961.71098,0.00091
3959.65081,0.00083
3957.59064,0.00087
3955.53046,0.00103
3953.47029,0.00126
3951.41012,0.00106
3949.34995,0.00031
3947.28978,0.00000
3945.22960,0.00058
3943.16943,0.00107
3941.10926,0.00107
3939.04909,0.00108
3936.98892,0.00113
3934.92874,0.00096
3932.86857,0.00077
3930.80840,0.00103
3928.74823,0.00154
3926.68805,0.00170
3924.62788,0.00126
3922.56771,0.00061
3920.50754,0.00028
3918.44737,0.00019
3916.38719,0.00055
3914.32702,0.00139
3912.26685,0.00197
3910.20668,0.00202
3908.14651,0.00190
3906.08633,0.00153
3904.02616,0.00060
3901.96599,0.00000
3899.90582,0.00056
3897.84565,0.00130
3895.78547,0.00149
3893.72530,0.00126
3891.66513,0.00085
3889.60496,0.00070
3887.54478,0.00079
3885.48461,0.00073
3883.42444,0.00054
3881.36427,0.00043
3879.30410,0.00055
3877.24392,0.00107
3875.18375,0.00149
3873.12358,0.00127
3871.06341,0.00062
3869.00324,0.00026
3866.94306,0.00039
3864.88289,0.00058
3862.82272,0.00062
3860.76255,0.00068
3858.70237,0.00069
3856.64220,0.00030
3854.58203,0.00000
3852.52186,0.00028
3850.46169,0.00109
3848.40151,0.00150
3846.34134,0.00173
3844.28117,0.00200
3842.22100,0.00206
3840.16083,0.00166
3838.10065,0.00099
3836.04048,0.00087
3833.98031,0.00143
3831.92014,0.00214
3829.85997,0.00280
3827.79979,0.00317
3825.73962,0.00317
3823.67945,0.00313
3821.61928,0.00309
3819.55910,0.00270
3817.49893,0.00258
3815.43876,0.00285
3813.37859,0.00316
3811.31842,0.00333
3809.25824,0.00350
3807.19807,0.00351
3805.13790,0.00353
3803.07773,0.00381
3801.01756,0.00391
3798.95738,0.00382
3796.89721,0.00386
3794.83704,0.00421
3792.77687,0.00472
3790.71670,0.00511
3788.65652,0.00546
3786.59635,0.00581
3784.53618,0.00604
3782.47601,0.00632
3780.41583,0.00659
3778.35566,0.00647
3776.29549,0.00623
3774.23532,0.00617
3772.17515,0.00618
3770.11497,0.00595
3768.05480,0.00550
3765.99463,0.00520
3763.93446,0.00509
3761.87429,0.00502
3759.81411,0.00466
3757.75394,0.00385
3755.69377,0.00319
3753.63360,0.00276
3751.57342,0.00183
3749.51325,0.00057
3747.45308,0.00015
3745.39291,0.00000
3743.33274,0.00043
3741.27256,0.00137
3739.21239,0.00182
3737.15222,0.00200
3735.09205,0.00204
3733.03188,0.00234
3730.97170,0.00301
3728.91153,0.00360
3726.85136,0.00373
3724.79119,0.00358
3722.73102,0.00360
3720.67084,0.00392
3718.61067,0.00417
3716.55050,0.00431
3714.49033,0.00466
3712.43015,0.00520
3710.36998,0.00534
3708.30981,0.00549
3706.24964,0.00604
3704.18947,0.00660
3702.12929,0.00676
3700.06912,0.00659
3698.00895,0.00659
3695.94878,0.00690
3693.88861,0.00737
3691.82843,0.00766
3689.76826,0.00711
3687.70809,0.00630
3685.64792,0.00637
3683.58775,0.00675
3681.52757,0.00696
3679.46740,0.00704
3677.40723,0.00686
3675.34706,0.00626
3673.28688,0.00587
3671.22671,0.00611
3669.16654,0.00659
3667.10637,0.00696
3665.04620,0.00730
3662.98602,0.00770
3660.92585,0.00805
3658.86568,0.00828
3656.80551,0.00837
3654.74534,0.00856
3652.68516,0.00918
3650.62499,0.00958
3648.56482,0.00895
3646.50465,0.00872
3644.44447,0.00905
3642.38430,0.00954
3640.32413,0.01019
3638.26396,0.01075
3636.20379,0.01109
3634.14361,0.01147
3632.08344,0.01209
3630.02327,0.01267
3627.96310,0.01282
3625.90293,0.01297
3623.84275,0.01330
3621.78258,0.01352
3619.72241,0.01350
3617.66224,0.01338
3615.60207,0.01328
3613.54189,0.01311
3611.48172,0.01307
3609.42155,0.01361
3607.36138,0.01463
3605.30120,0.01580
3603.24103,0.01691
3601.18086,0.01774
3599.12069,0.01821
3597.06052,0.01849
3595.00034,0.01882
3592.94017,0.01936
3590.88000,0.01990
3588.81983,0.01995
3586.75966,0.01978
3584.69948,0.02016
3582.63931,0.02101
3580.57914,0.02187
3578.51897,0.02254
3576.45879,0.02299
3574.39862,0.02339
3572.33845,0.02391
3570.27828,0.02443
3568.21811,0.02455
3566.15793,0.02452
3564.09776,0.02494
3562.03759,0.02559
3559.97742,0.02624
3557.91725,0.02693
3555.85707,0.02751
3553.79690,0.02781
3551.73673,0.02791
3549.67656,0.02792
3547.61639,0.02777
3545.55621,0.02785
3543.49604,0.02870
3541.43587,0.02994
3539.37570,0.03099
3537.31552,0.03173
3535.25535,0.03225
3533.19518,0.03261
3531.13501,0.03280
3529.07484,0.03283
3527.01466,0.03280
3524.95449,0.03304
3522.89432,0.03372
3520.83415,0.03461
3518.77398,0.03539
3516.71380,0.03599
3514.65363,0.03644
3512.59346,0.03660
3510.53329,0.03648
3508.47312,0.03646
3506.41294,0.03685
3504.35277,0.03731
3502.29260,0.03765
3500.23243,0.03832
3498.17225,0.03928
3496.11208,0.03999
3494.05191,0.04030
3491.99174,0.04051
3489.93157,0.04076
3487.87139,0.04107
3485.81122,0.04143
3483.75105,0.04183
3481.69088,0.04212
3479.63071,0.04232
3477.57053,0.04273
3475.51036,0.04332
3473.45019,0.04374
3471.39002,0.04393
3469.32984,0.04425
3467.26967,0.04484
3465.20950,0.04526
3463.14933,0.04526
3461.08916,0.04526
3459.02898,0.04561
3456.96881,0.04612
3454.90864,0.04663
3452.84847,0.04710
3450.78830,0.04741
3448.72812,0.04758
3446.66795,0.04764
3444.60778,0.04773
3442.54761,0.04788
3440.48744,0.04804
3438.42726,0.04828
3436.36709,0.04862
3434.30692,0.04899
3432.24675,0.04924
3430.18657,0.04955
3428.12640,0.05000
3426.06623,0.05017
3424.00606,0.05005
3421.94589,0.05005
3419.88571,0.05032
3417.82554,0.05092
3415.76537,0.05146
3413.70520,0.05162
3411.64503,0.05167
3409.58485,0.05184
3407.52468,0.05214
3405.46451,0.05248
3403.40434,0.05259
3401.34416,0.05247
3399.28399,0.05152
3397.22382,0.05179
3395.16365,0.05214
3393.10348,0.05220
3391.04330,0.05240
3388.98313,0.05286
3386.92296,0.05324
3384.86279,0.05353
3382.80262,0.05390
3380.74244,0.05428
3378.68227,0.05454
3376.62210,0.05474
3374.56193,0.05498
3372.50176,0.05507
3370.44158,0.05499
3368.38141,0.05491
3366.32124,0.05484
3364.26107,0.05493
3362.20089,0.05525
3360.14072,0.05563
3358.08055,0.05589
3356.02038,0.05590
3353.96021,0.05582
3351.90003,0.05583
3349.83986,0.05599
3347.77969,0.05621
3345.71952,0.05618
3343.65935,0.05605
3341.59917,0.05600
3339.53900,0.05590
3337.47883,0.05583
3335.41866,0.05596
3333.35849,0.05627
3331.29831,0.05672
3329.23814,0.05706
3327.17797,0.05703
3325.11780,0.05675
3323.05762,0.05660
3320.99745,0.05676
3318.93728,0.05697
3316.87711,0.05695
3314.81694,0.05675
3312.75676,0.05658
3310.69659,0.05654
3308.63642,0.05658
3306.57625,0.05679
3304.51608,0.05708
3302.45590,0.05731
3300.39573,0.05742
3298.33556,0.05738
3296.27539,0.05727
3294.21521,0.05717
3292.15504,0.05711
3290.09487,0.05714
3288.03470,0.05725
3285.97453,0.05736
3283.91435,0.05741
3281.85418,0.05745
3279.79401,0.05750
3277.73384,0.05747
3275.67367,0.05740
3273.61349,0.05733
3271.55332,0.05728
3269.49315,0.05728
3267.43298,0.05736
3265.37281,0.05747
3263.31263,0.05753
3261.25246,0.05743
3259.19229,0.05724
3257.13212,0.05708
3255.07194,0.05692
3253.01177,0.05687
3250.95160,0.05696
3248.89143,0.05697
3246.83126,0.05687
3244.77108,0.05689
3242.71091,0.05707
3240.65074,0.05707
3238.59057,0.05690
3236.53040,0.05685
3234.47022,0.05676
3232.41005,0.05651
3230.34988,0.05621
3228.28971,0.05596
3226.22954,0.05592
3224.16936,0.05600
3222.10919,0.05588
3220.04902,0.05566
3217.98885,0.05563
3215.92867,0.05557
3213.86850,0.05536
3211.80833,0.05523
3209.74816,0.05515
3207.68799,0.05501
3205.62781,0.05497
3203.56764,0.05508
3201.50747,0.05511
3199.44730,0.05491
3197.38713,0.05463
3195.32695,0.05444
3193.26678,0.05434
3191.20661,0.05429
3189.14644,0.05425
3187.08626,0.05405
3185.02609,0.05373
3182.96592,0.05355
3180.90575,0.05350
3178.84558,0.05341
3176.78540,0.05338
3174.72523,0.05339
3172.66506,0.05329
3170.60489,0.05319
3168.54472,0.05316
3166.48454,0.05310
3164.42437,0.05292
3162.36420,0.05261
3160.30403,0.05231
3158.24386,0.05223
3156.18368,0.05216
3154.12351,0.05186
3152.06334,0.05152
3150.00317,0.05133
3147.94299,0.05118
3145.88282,0.05103
3143.82265,0.05092
3141.76248,0.05081
3139.70231,0.05063
3137.64213,0.05039
3135.58196,0.05013
3133.52179,0.04982
3131.46162,0.04961
3129.40145,0.04950
3127.34127,0.04930
3125.28110,0.04901
3123.22093,0.04867
3121.16076,0.04844
3119.10058,0.04834
3117.04041,0.04817
3114.98024,0.04796
3112.92007,0.04791
3110.85990,0.04788
3108.79972,0.04775
3106.73955,0.04759
3104.67938,0.04737
3102.61921,0.04701
3100.55904,0.04673
3098.49886,0.04663
3096.43869,0.04648
3094.37852,0.04625
3092.31835,0.04611
3090.25818,0.04609
3088.19800,0.04602
3086.13783,0.04588
3084.07766,0.04568
3082.01749,0.04537
3079.95731,0.04511
3077.89714,0.04497
3075.83697,0.04488
3073.77680,0.04472
3071.71663,0.04459
3069.65645,0.04454
3067.59628,0.04443
3065.53611,0.04430
3063.47594,0.04425
3061.41577,0.04413
3059.35559,0.04378
3057.29542,0.04330
3055.23525,0.04295
3053.17508,0.04276
3051.11491,0.04260
3049.05473,0.04241
3046.99456,0.04226
3044.93439,0.04213
3042.87422,0.04193
3040.81404,0.04172
3038.75387,0.04155
3036.69370,0.04134
3034.63353,0.04100
3032.57336,0.04059
3030.51318,0.04024
3028.45301,0.04002
3026.39284,0.03993
3024.33267,0.03990
3022.27250,0.03978
3020.21232,0.03958
3018.15215,0.03936
3016.09198,0.03896
3014.03181,0.03851
3011.97163,0.03821
3009.91146,0.03808
3007.85129,0.03803
3005.79112,0.03789
3003.73095,0.03761
3001.67077,0.03744
2999.61060,0.03752
2997.55043,0.03738
2995.49026,0.03722
2993.43009,0.03713
2991.36991,0.03710
2989.30974,0.03703
2987.24957,0.03690
2985.18940,0.03681
2983.12923,0.03678
2981.06905,0.03678
2979.00888,0.03682
2976.94871,0.03689
2974.88854,0.03692
2972.82836,0.03691
2970.76819,0.03699
2968.70802,0.03712
2966.64785,0.03716
2964.58768,0.03714
2962.52750,0.03718
2960.46733,0.03727
2958.40716,0.03740
2956.34699,0.03749
2954.28682,0.03742
2952.22664,0.03734
2950.16647,0.03737
2948.10630,0.03730
2946.04613,0.03728
2943.98596,0.03743
2941.92578,0.03746
2939.86561,0.03737
2937.80544,0.03739
2935.74527,0.03751
2933.68509,0.03760
2931.62492,0.03764
2929.56475,0.03757
2927.50458,0.03742
2925.44441,0.03728
2923.38423,0.03721
2921.32406,0.03727
2919.26389,0.03724
2917.20372,0.03709
2915.14355,0.03698
2913.08337,0.03673
2911.02320,0.03630
2908.96303,0.03598
2906.90286,0.03584
2904.84268,0.03576
2902.78251,0.03559
2900.72234,0.03534
2898.66217,0.03525
2896.60200,0.03532
2894.54182,0.03532
2892.48165,0.03515
2890.42148,0.03497
2888.36131,0.03489
2886.30114,0.03487
2884.24096,0.03490
2882.18079,0.03494
2880.12062,0.03484
2878.06045,0.03462
2876.00028,0.03442
2873.94010,0.03415
2871.87993,0.03393
2869.81976,0.03393
2867.75959,0.03391
2865.69941,0.03370
2863.63924,0.03335
2861.57907,0.03302
2859.51890,0.03280
2857.45873,0.03267
2855.39855,0.03264
2853.33838,0.03261
2851.27821,0.03242
2849.21804,0.03219
2847.15787,0.03204
2845.09769,0.03186
2843.03752,0.03157
2840.97735,0.03124
2838.91718,0.03092
2836.85700,0.03059
2834.79683,0.03032
2832.73666,0.03016
2830.67649,0.03002
2828.61632,0.02984
2826.55614,0.02967
2824.49597,0.02958
2822.43580,0.02940
2820.37563,0.02909
2818.31546,0.02890
2816.25528,0.02881
2814.19511,0.02879
2812.13494,0.02878
2810.07477,0.02856
2808.01460,0.02817
2805.95442,0.02785
2803.89425,0.02766
2801.83408,0.02754
2799.77391,0.02743
2797.71373,0.02726
2795.65356,0.02702
2793.59339,0.02680
2791.53322,0.02665
2789.47305,0.02655
2787.41287,0.02642
2785.35270,0.02628
2783.29253,0.02618
2781.23236,0.02600
2779.17219,0.02579
2777.11201,0.02563
2775.05184,0.02544
2772.99167,0.02518
2770.93150,0.02495
2768.87133,0.02481
2766.81115,0.02468
2764.75098,0.02458
2762.69081,0.02449
2760.63064,0.02429
2758.57046,0.02408
2756.51029,0.02400
2754.45012,0.02399
2752.38995,0.02402
2750.32978,0.02403
2748.26960,0.02387
2746.20943,0.02358
2744.14926,0.02325
2742.08909,0.02309
2740.02892,0.02313
2737.96874,0.02310
2735.90857,0.02293
2733.84840,0.02271
2731.78823,0.02255
2729.72805,0.02248
2727.66788,0.02235
2725.60771,0.02212
2723.54754,0.02197
2721.48737,0.02195
2719.42719,0.02191
2717.36702,0.02181
2715.30685,0.02175
2713.24668,0.02163
2711.18651,0.02147
2709.12633,0.02130
2707.06616,0.02111
2705.00599,0.02099
2702.94582,0.02097
2700.88565,0.02091
2698.82547,0.02077
2696.76530,0.02062
2694.70513,0.02058
2692.64496,0.02058
2690.58478,0.02048
2688.52461,0.02027
2686.46444,0.02013
2684.40427,0.02008
2682.34410,0.01995
2680.28392,0.01981
2678.22375,0.01978
2676.16358,0.01977
2674.10341,0.01966
2672.04324,0.01945
2669.98306,0.01920
2667.92289,0.01907
2665.86272,0.01910
2663.80255,0.01911
2661.74238,0.01903
2659.68220,0.01901
2657.62203,0.01900
2655.56186,0.01890
2653.50169,0.01879
2651.44151,0.01872
2649.38134,0.01856
2647.32117,0.01834
2645.26100,0.01816
2643.20083,0.01803
2641.14065,0.01796
2639.08048,0.01791
2637.02031,0.01791
2634.96014,0.01790
2632.89997,0.01783
2630.83979,0.01782
2628.77962,0.01782
2626.71945,0.01768
2624.65928,0.01751
2622.59910,0.01736
2620.53893,0.01725
2618.47876,0.01732
2616.41859,0.01746
2614.35842,0.01751
2612.29824,0.01749
2610.23807,0.01728
2608.17790,0.01698
2606.11773,0.01684
2604.05756,0.01691
2601.99738,0.01712
2599.93721,0.01729
2597.87704,0.01717
2595.81687,0.01690
2593.75670,0.01673
2591.69652,0.01665
2589.63635,0.01668
2587.57618,0.01682
2585.51601,0.01680
2583.45583,0.01658
2581.39566,0.01647
2579.33549,0.01663
2577.27532,0.01679
2575.21515,0.01680
2573.15497,0.01667
2571.09480,0.01645
2569.03463,0.01633
2566.97446,0.01648
2564.91429,0.01667
2562.85411,0.01677
2560.79394,0.01688
2558.73377,0.01686
2556.67360,0.01659
2554.61342,0.01639
2552.55325,0.01643
2550.49308,0.01657
2548.43291,0.01669
2546.37274,0.01665
2544.31256,0.01652
2542.25239,0.01645
2540.19222,0.01642
2538.13205,0.01644
2536.07188,0.01648
2534.01170,0.01655
2531.95153,0.01678
2529.89136,0.01700
2527.83119,0.01706
2525.77102,0.01710
2523.71084,0.01703
2521.65067,0.01670
2519.59050,0.01645
2517.53033,0.01657
2515.47015,0.01668
2513.40998,0.01655
2511.34981,0.01647
2509.28964,0.01660
2507.22947,0.01682
2505.16929,0.01695
2503.10912,0.01693
2501.04895,0.01692
2498.98878,0.01683
2496.92861,0.01679
2494.86843,0.01699
2492.80826,0.01716
2490.74809,0.01720
2488.68792,0.01721
2486.62775,0.01730
2484.56757,0.01760
2482.50740,0.01790
2480.44723,0.01805
2478.38706,0.01808
2476.32688,0.01805
2474.26671,0.01803
2472.20654,0.01805
2470.14637,0.01798
2468.08620,0.01774
2466.02602,0.01756
2463.96585,0.01766
2461.90568,0.01794
2459.84551,0.01806
2457.78534,0.01789
2455.72516,0.01770
2453.66499,0.01770
2451.60482,0.01776
2449.54465,0.01782
2447.48447,0.01810
2445.42430,0.01847
2443.36413,0.01856
2441.30396,0.01855
2439.24379,0.01876
2437.18361,0.01881
2435.12344,0.01853
2433.06327,0.01827
2431.00310,0.01812
2428.94293,0.01819
2426.88275,0.01838
2424.82258,0.01823
2422.76241,0.01792
2420.70224,0.01772
2418.64207,0.01762
2416.58189,0.01768
2414.52172,0.01777
2412.46155,0.01768
2410.40138,0.01749
2408.34120,0.01740
2406.28103,0.01756
2404.22086,0.01773
2402.16069,0.01764
2400.10052,0.01739
2398.04034,0.01684
2395.98017,0.01708
2393.92000,0.01753
2391.85983,0.01772
2389.79966,0.01778
2387.73948,0.01781
2385.67931,0.01763
2383.61914,0.01704
2381.55897,0.01626
2379.49880,0.01579
2377.43862,0.01582
2375.37845,0.01614
2373.31828,0.01658
2371.25811,0.01716
2369.19793,0.01793
2367.13776,0.01878
2365.07759,0.01929
2363.01742,0.01930
2360.95725,0.01917
2358.89707,0.01887
2356.83690,0.01860
2354.77673,0.01881
2352.71656,0.01887
2350.65639,0.01865
2348.59621,0.01847
2346.53604,0.01821
2344.47587,0.01822
2342.41570,0.01868
2340.35552,0.01883
2338.29535,0.01847
2336.23518,0.01814
2334.17501,0.01790
2332.11484,0.01725
2330.05466,0.01666
2327.99449,0.01659
2325.93432,0.01636
2323.87415,0.01539
2321.81398,0.01414
2319.75380,0.01349
2317.69363,0.01345
2315.63346,0.01333
2313.57329,0.01290
2311.51312,0.01269
2309.45294,0.01291
2307.39277,0.01332
2305.33260,0.01379
2303.27243,0.01429
2301.21225,0.01454
2299.15208,0.01437
2297.09191,0.01402
2295.03174,0.01397
2292.97157,0.01418
2290.91139,0.01429
2288.85122,0.01426
2286.79105,0.01406
2284.73088,0.01374
2282.67071,0.01366
2280.61053,0.01384
2278.55036,0.01395
2276.49019,0.01393
2274.43002,0.01381
2272.36984,0.01350
2270.30967,0.01314
2268.24950,0.01287
2266.18933,0.01271
2264.12916,0.01282
2262.06898,0.01311
2260.00881,0.01325
2257.94864,0.01301
2255.88847,0.01264
2253.82830,0.01255
2251.76812,0.01260
2249.70795,0.01235
2247.64778,0.01235
2245.58761,0.01232
2243.52744,0.01185
2241.46726,0.01134
2239.40709,0.01139
2237.34692,0.01164
2235.28675,0.01145
2233.22657,0.01124
2231.16640,0.01174
2229.10623,0.01245
2227.04606,0.01251
2224.98589,0.01196
2222.92571,0.01137
2220.86554,0.01118
2218.80537,0.01103
2216.74520,0.01035
2214.68503,0.00953
2212.62485,0.00948
2210.56468,0.01007
2208.50451,0.01029
2206.44434,0.00984
2204.38417,0.00941
2202.32399,0.00947
2200.26382,0.00944
2198.20365,0.00922
2196.14348,0.00920
2194.08330,0.00911
2192.02313,0.00912
2189.96296,0.00956
2187.90279,0.00967
2185.84262,0.00907
2183.78244,0.00870
2181.72227,0.00886
2179.66210,0.00897
2177.60193,0.00918
2175.54176,0.00943
2173.48158,0.00927
2171.42141,0.00902
2169.36124,0.00887
2167.30107,0.00863
2165.24089,0.00828
2163.18072,0.00783
2161.12055,0.00737
2159.06038,0.00630
2157.00021,0.00537
2154.94003,0.00604
2152.87986,0.00716
2150.81969,0.00739
2148.75952,0.00701
2146.69935,0.00642
2144.63917,0.00617
2142.57900,0.00678
2140.51883,0.00758
2138.45866,0.00750
2136.39849,0.00686
2134.33831,0.00668
2132.27814,0.00678
2130.21797,0.00683
2128.15780,0.00708
2126.09762,0.00730
2124.03745,0.00710
2121.97728,0.00703
2119.91711,0.00749
2117.85694,0.00763
2115.79676,0.00710
2113.73659,0.00683
2111.67642,0.00694
2109.61625,0.00674
2107.55608,0.00653
2105.49590,0.00665
2103.43573,0.00669
2101.37556,0.00687
2099.31539,0.00794
2097.25521,0.00833
2095.19504,0.00784
2093.13487,0.00688
2091.07470,0.00623
2089.01453,0.00631
2086.95435,0.00677
2084.89418,0.00716
2082.83401,0.00740
2080.77384,0.00765
2078.71367,0.00777
2076.65349,0.00769
2074.59332,0.00765
2072.53315,0.00755
2070.47298,0.00741
2068.41281,0.00761
2066.35263,0.00783
2064.29246,0.00738
2062.23229,0.00647
2060.17212,0.00571
2058.11194,0.00545
2056.05177,0.00572
2053.99160,0.00643
2051.93143,0.00725
2049.87126,0.00795
2047.81108,0.00857
2045.75091,0.00886
2043.69074,0.00823
2041.63057,0.00728
2039.57040,0.00744
2037.51022,0.00821
2035.45005,0.00820
2033.38988,0.00744
2031.32971,0.00638
2029.26954,0.00566
2027.20936,0.00625
2025.14919,0.00784
2023.08902,0.00873
2021.02885,0.00793
2018.96867,0.00652
2016.90850,0.00618
2014.84833,0.00698
2012.78816,0.00793
2010.72799,0.00865
2008.66781,0.00898
2006.60764,0.00841
2004.54747,0.00717
2002.48730,0.00631
2000.42713,0.00605
1998.36695,0.00576
1996.30678,0.00507
1994.24661,0.00438
1992.18644,0.00412
1990.12626,0.00448
1988.06609,0.00525
1986.00592,0.00582
1983.94575,0.00630
1981.88558,0.00763
1979.82540,0.00960
1977.76523,0.01065
1975.70506,0.01015
1973.64489,0.00895
1971.58472,0.00804
1969.52454,0.00753
1967.46437,0.00715
1965.40420,0.00687
1963.34403,0.00644
1961.28386,0.00586
1959.22368,0.00553
1957.16351,0.00545
1955.10334,0.00553
1953.04317,0.00589
1950.98299,0.00642
1948.92282,0.00687
1946.86265,0.00700
1944.80248,0.00676
1942.74231,0.00661
1940.68213,0.00680
1938.62196,0.00703
1936.56179,0.00685
1934.50162,0.00649
1932.44145,0.00631
1930.38127,0.00626
1928.32110,0.00626
1926.26093,0.00615
1924.20076,0.00592
1922.14059,0.00593
1920.08041,0.00622
1918.02024,0.00649
1915.96007,0.00669
1913.89990,0.00705
1911.83972,0.00745
1909.77955,0.00761
1907.71938,0.00747
1905.65921,0.00736
1903.59904,0.00738
1901.53886,0.00740
1899.47869,0.00740
1897.41852,0.00745
1895.35835,0.00744
1893.29818,0.00727
1891.23800,0.00715
1889.17783,0.00713
1887.11766,0.00714
1885.05749,0.00721
1882.99731,0.00727
1880.93714,0.00732
1878.87697,0.00741
1876.81680,0.00761
1874.75663,0.00786
1872.69645,0.00808
1870.63628,0.00828
1868.57611,0.00835
1866.51594,0.00819
1864.45577,0.00798
1862.39559,0.00776
1860.33542,0.00760
1858.27525,0.00771
1856.21508,0.00803
1854.15491,0.00821
1852.09473,0.00820
1850.03456,0.00815
1847.97439,0.00805
1845.91422,0.00778
1843.85404,0.00750
1841.79387,0.00763
1839.73370,0.00801
1837.67353,0.00814
1835.61336,0.00793
1833.55318,0.00797
1831.49301,0.00862
1829.43284,0.00918
1827.37267,0.00918
1825.31250,0.00906
1823.25232,0.00919
1821.19215,0.00944
1819.13198,0.00941
1817.07181,0.00909
1815.01163,0.00890
1812.95146,0.00885
1810.89129,0.00863
1808.83112,0.00834
1806.77095,0.00827
1804.71077,0.00824
1802.65060,0.00812
1800.59043,0.00819
1798.53026,0.00837
1796.47009,0.00839
1794.40991,0.00841
1792.34974,0.00835
1790.28957,0.00807
1788.22940,0.00778
1786.16923,0.00764
1784.10905,0.00794
1782.04888,0.00857
1779.98871,0.00881
1777.92854,0.00866
1775.86836,0.00881
1773.80819,0.00925
1771.74802,0.00912
1769.68785,0.00831
1767.62768,0.00791
1765.56750,0.00825
1763.50733,0.00881
1761.44716,0.00913
1759.38699,0.00929
1757.32682,0.00956
1755.26664,0.00988
1753.20647,0.01026
1751.14630,0.01078
1749.08613,0.01117
1747.02596,0.01120
1744.96578,0.01124
1742.90561,0.01163
1740.84544,0.01202
1738.78527,0.01202
1736.72509,0.01182
1734.66492,0.01156
1732.60475,0.01125
1730.54458,0.01118
1728.48441,0.01112
1726.42423,0.01099
1724.36406,0.01085
1722.30389,0.01091
1720.24372,0.01136
1718.18355,0.01149
1716.12337,0.01050
1714.06320,0.00972
1712.00303,0.00959
1709.94286,0.00992
1707.88268,0.01039
1705.82251,0.01045
1703.76234,0.01028
1701.70217,0.01068
1699.64200,0.01127
1697.58182,0.01148
1695.52165,0.01170
1693.46148,0.01224
1691.40131,0.01301
1689.34114,0.01410
1687.28096,0.01559
1685.22079,0.01737
1683.16062,0.01831
1681.10045,0.01855
1679.04028,0.01918
1676.98010,0.02055
1674.91993,0.02231
1672.85976,0.02390
1670.79959,0.02515
1668.73941,0.02587
1666.67924,0.02629
1664.61907,0.02705
1662.55890,0.02791
1660.49873,0.02813
1658.43855,0.02822
1656.37838,0.02899
1654.31821,0.03008
1652.25804,0.03012
1650.19787,0.02978
1648.13769,0.02976
1646.07752,0.02974
1644.01735,0.02930
1641.95718,0.02907
1639.89701,0.02953
1637.83683,0.03033
1635.77666,0.03039
1633.71649,0.02970
1631.65632,0.02922
1629.59614,0.02918
1627.53597,0.02927
1625.47580,0.02922
1623.41563,0.02893
1621.35546,0.02847
1619.29528,0.02860
1617.23511,0.02912
1615.17494,0.02881
1613.11477,0.02801
1611.05460,0.02762
1608.99442,0.02754
1606.93425,0.02746
1604.87408,0.02745
1602.81391,0.02735
1600.75373,0.02701
1598.69356,0.02665
1596.63339,0.02641
1594.57322,0.02610
1592.51305,0.02561
1590.45287,0.02506
1588.39270,0.02452
1586.33253,0.02398
1584.27236,0.02338
1582.21219,0.02274
1580.15201,0.02239
1578.09184,0.02225
1576.03167,0.02151
1573.97150,0.02023
1571.91133,0.01950
1569.85115,0.01914
1567.79098,0.01836
1565.73081,0.01743
1563.67064,0.01701
1561.61046,0.01754
1559.55029,0.01789
1557.49012,0.01622
1555.42995,0.01451
1553.36978,0.01368
1551.30960,0.01333
1549.24943,0.01302
1547.18926,0.01280
1545.12909,0.01303
1543.06892,0.01366
1541.00874,0.01405
1538.94857,0.01307
1536.88840,0.01168
1534.82823,0.01108
1532.76805,0.01090
1530.70788,0.01045
1528.64771,0.01001
1526.58754,0.00957
1524.52737,0.00913
1522.46719,0.00883
1520.40702,0.00836
1518.34685,0.00798
1516.28668,0.00754
1514.22651,0.00672
1512.16633,0.00610
1510.10616,0.00618
1508.04599,0.00660
1505.98582,0.00650
1503.92565,0.00601
1501.86547,0.00567
1499.80530,0.00598
1497.74513,0.00640
1495.68496,0.00639
1493.62478,0.00650
1491.56461,0.00690
1489.50444,0.00687
1487.44427,0.00642
1485.38410,0.00622
1483.32392,0.00633
1481.26375,0.00656
1479.20358,0.00687
1477.14341,0.00731
1475.08324,0.00779
1473.02306,0.00805
1470.96289,0.00802
1468.90272,0.00805
1466.84255,0.00852
1464.78238,0.00902
1462.72220,0.00916
1460.66203,0.00959
1458.60186,0.01014
1456.54169,0.00987
1454.48151,0.00952
1452.42134,0.00962
1450.36117,0.01028
1448.30100,0.01112
1446.24083,0.01164
1444.18065,0.01184
1442.12048,0.01195
1440.06031,0.01207
1438.00014,0.01214
1435.93997,0.01212
1433.87979,0.01229
1431.81962,0.01275
1429.75945,0.01337
1427.69928,0.01388
1425.63910,0.01441
1423.57893,0.01498
1421.51876,0.01544
1419.45859,0.01573
1417.39842,0.01619
1415.33824,0.01704
1413.27807,0.01798
1411.21790,0.01874
1409.15773,0.01928
1407.09756,0.01969
1405.03738,0.01990
1402.97721,0.01991
1400.91704,0.01983
1398.85687,0.01948
1396.79670,0.01904
1394.73652,0.01891
1392.67635,0.01892
1390.61618,0.01888
1388.55601,0.01883
1386.49583,0.01881
1384.43566,0.01882
1382.37549,0.01879
1380.31532,0.01875
1378.25515,0.01886
1376.19497,0.01916
1374.13480,0.01924
1372.07463,0.01904
1370.01446,0.01893
1367.95429,0.01897
1365.89411,0.01900
1363.83394,0.01877
1361.77377,0.01842
1359.71360,0.01844
1357.65343,0.01869
1355.59325,0.01877
1353.53308,0.01863
1351.47291,0.01838
1349.41274,0.01801
1347.35256,0.01745
1345.29239,0.01680
1343.23222,0.01608
1341.17205,0.01520
1339.11188,0.01430
1337.05170,0.01393
1334.99153,0.01406
1332.93136,0.01409
1330.87119,0.01379
1328.81102,0.01344
1326.75084,0.01321
1324.69067,0.01296
1322.63050,0.01265
1320.57033,0.01236
1318.51015,0.01202
1316.44998,0.01174
1314.38981,0.01154
1312.32964,0.01136
1310.26947,0.01126
1308.20929,0.01122
1306.14912,0.01113
1304.08895,0.01103
1302.02878,0.01092
1299.96861,0.01080
1297.90843,0.01067
1295.84826,0.01059
1293.78809,0.01049
1291.72792,0.01022
1289.66775,0.00992
1287.60757,0.00984
1285.54740,0.00989
1283.48723,0.00989
1281.42706,0.00985
1279.36688,0.00980
1277.30671,0.00975
1275.24654,0.00977
1273.18637,0.00990
1271.12620,0.01001
1269.06602,0.01002
1267.00585,0.00997
1264.94568,0.01001
1262.88551,0.01016
1260.82534,0.01028
1258.76516,0.01038
1256.70499,0.01051
1254.64482,0.01060
1252.58465,0.01065
1250.52447,0.01068
1248.46430,0.01063
1246.40413,0.01045
1244.34396,0.01022
1242.28379,0.01008
1240.22361,0.00995
1238.16344,0.00980
1236.10327,0.00960
1234.04310,0.00935
1231.98293,0.00914
1229.92275,0.00893
1227.86258,0.00859
1225.80241,0.00820
1223.74224,0.00788
1221.68207,0.00754
1219.62189,0.00719
1217.56172,0.00690
1215.50155,0.00659
1213.44138,0.00619
1211.38120,0.00584
1209.32103,0.00567
1207.26086,0.00566
1205.20069,0.00582
1203.14052,0.00615
1201.08034,0.00648
1199.02017,0.00682
1196.96000,0.00756
1194.89983,0.00852
1192.83966,0.00950
1190.77948,0.01069
1188.71931,0.01220
1186.65914,0.01395
1184.59897,0.01585
1182.53880,0.01775
1180.47862,0.01965
1178.41845,0.02168
1176.35828,0.02363
1174.29811,0.02544
1172.23793,0.02721
1170.17776,0.02894
1168.11759,0.03064
1166.05742,0.03233
1163.99725,0.03404
1161.93707,0.03574
1159.87690,0.03739
1157.81673,0.03892
1155.75656,0.04032
1153.69639,0.04168
1151.63621,0.04313
1149.57604,0.04459
1147.51587,0.04588
1145.45570,0.04692
1143.39552,0.04773
1141.33535,0.04826
1139.27518,0.04853
1137.21501,0.04859
1135.15484,0.04866
1133.09466,0.04882
1131.03449,0.04896
1128.97432,0.04915
1126.91415,0.04956
1124.85398,0.05029
1122.79380,0.05140
1120.73363,0.05276
1118.67346,0.05421
1116.61329,0.05567
1114.55312,0.05723
1112.49294,0.05898
1110.43277,0.06090
1108.37260,0.06286
1106.31243,0.06484
1104.25225,0.06680
1102.19208,0.06877
1100.13191,0.07083
1098.07174,0.07291
1096.01157,0.07474
1093.95139,0.07633
1091.89122,0.07789
1089.83105,0.07965
1087.77088,0.08159
1085.71071,0.08340
1083.65053,0.08508
1081.59036,0.08680
1079.53019,0.08843
1077.47002,0.08988
1075.40985,0.09105
1073.34967,0.09195
1071.28950,0.09258
1069.22933,0.09273
1067.16916,0.09240
1065.10898,0.09180
1063.04881,0.09112
1060.98864,0.09039
1058.92847,0.08949
1056.86830,0.08835
1054.80812,0.08700
1052.74795,0.08547
1050.68778,0.08377
1048.62761,0.08190
1046.56744,0.07997
1044.50726,0.07799
1042.44709,0.07576
1040.38692,0.07333
1038.32675,0.07073
1036.26657,0.06777
1034.20640,0.06458
1032.14623,0.06186
1030.08606,0.05983
1028.02589,0.05796
1025.96571,0.05592
1023.90554,0.05383
1021.84537,0.05182
1019.78520,0.04988
1017.72503,0.04816
1015.66485,0.04691
1013.60468,0.04599
1011.54451,0.04516
1009.48434,0.04456
1007.42417,0.04429
1005.36399,0.04430
1003.30382,0.04473
1001.24365,0.04557
999.18348,0.04659
997.12330,0.04762
995.06313,0.04843
993.00296,0.04901
990.94279,0.04978
988.88262,0.05073
986.82244,0.05137
984.76227,0.05164
982.70210,0.05176
980.64193,0.05185
978.58176,0.05180
976.52158,0.05157
974.46141,0.05127
972.40124,0.05080
970.34107,0.05006
968.28089,0.04917
966.22072,0.04826
964.16055,0.04744
962.10038,0.04678
960.04021,0.04627
957.98003,0.04582
955.91986,0.04545
953.85969,0.04512
951.79952,0.04472
949.73935,0.04427
947.67917,0.04381
945.61900,0.04334
943.55883,0.04288
941.49866,0.04229
939.43849,0.04143
937.37831,0.04042
935.31814,0.03934
933.25797,0.03810
931.19780,0.03678
929.13762,0.03548
927.07745,0.03411
925.01728,0.03268
922.95711,0.03136
920.89694,0.03006
918.83676,0.02861
916.77659,0.02700
914.71642,0.02532
912.65625,0.02380
910.59608,0.02255
908.53590,0.02145
906.47573,0.02053
904.41556,0.01979
902.35539,0.01923
900.29522,0.01889
898.23504,0.01861
896.17487,0.01838
894.11470,0.01834
892.05453,0.01853
889.99435,0.01883
887.93418,0.01932
885.87401,0.02020
883.81384,0.02136
881.75367,0.02263
879.69349,0.02419
877.63332,0.02611
875.57315,0.02823
873.51298,0.03044
871.45281,0.03276
869.39263,0.03519
867.33246,0.03777
865.27229,0.04055
863.21212,0.04329
861.15194,0.04555
859.09177,0.04710
857.03160,0.04800
854.97143,0.04834
852.91126,0.04842
850.85108,0.04831
848.79091,0.04744
846.73074,0.04592
844.67057,0.04438
842.61040,0.04274
840.55022,0.04097
838.49005,0.03930
836.42988,0.03771
834.36971,0.03630
832.30954,0.03495
830.24936,0.03360
828.18919,0.03237
826.12902,0.03104
824.06885,0.02964
822.00867,0.02853
819.94850,0.02761
817.88833,0.02668
815.82816,0.02579
813.76799,0.02492
811.70781,0.02391
809.64764,0.02282
807.58747,0.02201
805.52730,0.02160
803.46713,0.02146
801.40695,0.02122
799.34678,0.02039
797.28661,0.01916
795.22644,0.01830
793.16627,0.01794
791.10609,0.01770
789.04592,0.01726
786.98575,0.01687
784.92558,0.01679
782.86540,0.01671
780.80523,0.01647
778.74506,0.01618
776.68489,0.01577
774.62472,0.01513
772.56454,0.01444
770.50437,0.01399
768.44420,0.01373
766.38403,0.01358
764.32386,0.01357
762.26368,0.01352
760.20351,0.01315
758.14334,0.01253
756.08317,0.01194
754.02299,0.01142
751.96282,0.01115
749.90265,0.01117
747.84248,0.01083
745.78231,0.01020
743.72213,0.00992
741.66196,0.00968
739.60179,0.00928
737.54162,0.00909
735.48145,0.00932
733.42127,0.00974
731.36110,0.00986
729.30093,0.00963
727.24076,0.00958
725.18059,0.00967
723.12041,0.00955
721.06024,0.00883
719.00007,0.00869
716.93990,0.00897
714.87972,0.00910
712.81955,0.00917
710.75938,0.00904
708.69921,0.00854
706.63904,0.00805
704.57886,0.00819
702.51869,0.00891
700.45852,0.00943
698.39835,0.00907
696.33818,0.00817
694.27800,0.00776
692.21783,0.00795
690.15766,0.00796
688.09749,0.00758
686.03731,0.00745
683.97714,0.00785
681.91697,0.00847
679.85680,0.00888
677.79663,0.00905
675.73645,0.00916
673.67628,0.00886
671.61611,0.00722
669.55594,0.00506
667.49577,0.00489
665.43559,0.00584
663.37542,0.00699
661.31525,0.00711
659.25508,0.00637
657.19491,0.00569
655.13473,0.00556
653.07456,0.00585
651.01439,0.00606
648.95422,0.00581
646.89404,0.00538
644.83387,0.00522
642.77370,0.00544
640.71353,0.00562
638.65336,0.00535
636.59318,0.00483
634.53301,0.00453
632.47284,0.00424
630.41267,0.00335
628.35250,0.00228
626.29232,0.00215
624.23215,0.00323
622.17198,0.00424
620.11181,0.00376
618.05164,0.00227
615.99146,0.00133
613.93129,0.00083
611.87112,0.00047
609.81095,0.00029
607.75077,0.00000
605.69060,-0.00009
603.63043,0.00012
601.57026,0.00007
599.51009,0.00000
