3996.73391,0.00015
3994.67373,-0.00009
3992.61356,-0.00014
3990.55339,0.00018
3988.49322,0.00047
3986.43305,0.00055
3984.37287,0.00058
3982.31270,0.00058
3980.25253,0.00054
3978.19236,0.00052
3976.13219,0.00043
3974.07201,0.00033
3972.01184,0.00036
3969.95167,0.00063
3967.89150,0.00108
3965.83133,0.00141
3963.77115,0.00137
3961.71098,0.00104
3959.65081,0.00077
3957.59064,0.00078
3955.53046,0.00102
3953.47029,0.00129
3951.41012,0.00116
3949.34995,0.00047
3947.28978,0.00000
3945.22960,0.00030
3943.16943,0.00064
3941.10926,0.00065
3939.04909,0.00082
3936.98892,0.00109
3934.92874,0.00104
3932.86857,0.00087
3930.80840,0.00109
3928.74823,0.00157
3926.68805,0.00185
3924.62788,0.00165
3922.56771,0.00102
3920.50754,0.00043
3918.44737,0.00013
3916.38719,0.00049
3914.32702,0.00130
3912.26685,0.00180
3910.20668,0.00196
3908.14651,0.00210
3906.08633,0.00193
3904.02616,0.00104
3901.96599,0.00029
3899.90582,0.00053
3897.84565,0.00098
3895.78547,0.00116
3893.72530,0.00117
3891.66513,0.00096
3889.60496,0.00078
3887.54478,0.00079
3885.48461,0.00060
3883.42444,0.00026
3881.36427,0.00017
3879.30410,0.00034
3877.24392,0.00069
3875.18375,0.00094
3873.12358,0.00071
3871.06341,0.00017
3869.00324,-0.00002
3866.94306,0.00028
3864.88289,0.00054
3862.82272,0.00057
3860.76255,0.00066
3858.70237,0.00067
3856.64220,0.00034
3854.58203,0.00020
3852.52186,0.00042
3850.46169,0.00076
3848.40151,0.00075
3846.34134,0.00083
3844.28117,0.00111
3842.22100,0.00122
3840.16083,0.00104
3838.10065,0.00081
3836.04048,0.00106
3833.98031,0.00157
3831.92014,0.00204
3829.85997,0.00260
3827.79979,0.00296
3825.73962,0.00289
3823.67945,0.00276
3821.61928,0.00263
3819.55910,0.00226
3817.49893,0.00224
3815.43876,0.00253
3813.37859,0.00279
3811.31842,0.00290
3809.25824,0.00302
3807.19807,0.00301
3805.13790,0.00309
3803.07773,0.00368
3801.01756,0.00418
3798.95738,0.00407
3796.89721,0.00382
3794.83704,0.00412
3792.77687,0.00478
3790.71670,0.00515
3788.65652,0.00532
3786.59635,0.00552
3784.53618,0.00568
3782.47601,0.00596
3780.41583,0.00632
3778.35566,0.00632
3776.29549,0.00618
3774.23532,0.00616
3772.17515,0.00604
3770.11497,0.00553
3768.05480,0.00493
3765.99463,0.00472
3763.93446,0.00471
3761.87429,0.00475
3759.81411,0.00453
3757.75394,0.00380
3755.69377,0.00313
3753.63360,0.00274
3751.57342,0.00180
3749.51325,0.00038
3747.45308,-0.00007
3745.39291,0.00000
3743.33274,0.00068
3741.27256,0.00162
3739.21239,0.00194
3737.15222,0.00200
3735.09205,0.00189
3733.03188,0.00215
3730.97170,0.00280
3728.91153,0.00345
3726.85136,0.00362
3724.79119,0.00344
3722.73102,0.00367
3720.67084,0.00406
3718.61067,0.00430
3716.55050,0.00413
3714.49033,0.00422
3712.43015,0.00525
3710.36998,0.00567
3708.30981,0.00581
3706.24964,0.00616
3704.18947,0.00657
3702.12929,0.00665
3700.06912,0.00638
3698.00895,0.00632
3695.94878,0.00655
3693.88861,0.00705
3691.82843,0.00733
3689.76826,0.00701
3687.70809,0.00636
3685.64792,0.00638
3683.58775,0.00657
3681.52757,0.00684
3679.46740,0.00711
3677.40723,0.00717
3675.34706,0.00674
3673.28688,0.00641
3671.22671,0.00658
3669.16654,0.00674
3667.10637,0.00684
3665.04620,0.00721
3662.98602,0.00769
3660.92585,0.00798
3658.86568,0.00806
3656.80551,0.00803
3654.74534,0.00815
3652.68516,0.00887
3650.62499,0.00979
3648.56482,0.00990
3646.50465,0.00987
3644.44447,0.00990
3642.38430,0.01002
3640.32413,0.01040
3638.26396,0.01075
3636.20379,0.01091
3634.14361,0.01116
3632.08344,0.01153
3630.02327,0.01196
3627.96310,0.01230
3625.90293,0.01281
3623.84275,0.01321
3621.78258,0.01364
3619.72241,0.01400
3617.66224,0.01387
3615.60207,0.01356
3613.54189,0.01316
3611.48172,0.01335
3609.42155,0.01422
3607.36138,0.01525
3605.30120,0.01629
3603.24103,0.01716
3601.18086,0.01788
3599.12069,0.01824
3597.06052,0.01849
3595.00034,0.01859
3592.94017,0.01909
3590.88000,0.01976
3588.81983,0.02023
3586.75966,0.02030
3584.69948,0.02065
3582.63931,0.02143
3580.57914,0.02225
3578.51897,0.02290
3576.45879,0.02332
3574.39862,0.02364
3572.33845,0.02417
3570.27828,0.02481
3568.21811,0.02499
3566.15793,0.02482
3564.09776,0.02506
3562.03759,0.02566
3559.97742,0.02641
3557.91725,0.02723
3555.85707,0.02787
3553.79690,0.02827
3551.73673,0.02850
3549.67656,0.02854
3547.61639,0.02839
3545.55621,0.02852
3543.49604,0.02932
3541.43587,0.03052
3539.37570,0.03162
3537.31552,0.03225
3535.25535,0.03254
3533.19518,0.03283
3531.13501,0.03307
3529.07484,0.03316
3527.01466,0.03321
3524.95449,0.03353
3522.89432,0.03423
3520.83415,0.03509
3518.77398,0.03588
3516.71380,0.03649
3514.65363,0.03684
3512.59346,0.03700
3510.53329,0.03707
3508.47312,0.03717
3506.41294,0.03748
3504.35277,0.03788
3502.29260,0.03826
3500.23243,0.03893
3498.17225,0.03986
3496.11208,0.04059
3494.05191,0.04096
3491.99174,0.04125
3489.93157,0.04162
3487.87139,0.04202
3485.81122,0.04237
3483.75105,0.04278
3481.69088,0.04312
3479.63071,0.04332
3477.57053,0.04367
3475.51036,0.04419
3473.45019,0.04455
3471.39002,0.04483
3469.32984,0.04520
3467.26967,0.04555
3465.20950,0.04581
3463.14933,0.04599
3461.08916,0.04619
3459.02898,0.04661
3456.96881,0.04716
3454.90864,0.04759
3452.84847,0.04798
3450.78830,0.04838
3448.72812,0.04855
3446.66795,0.04848
3444.60778,0.04850
3442.54761,0.04878
3440.48744,0.04915
3438.42726,0.04948
3436.36709,0.04979
3434.30692,0.05015
3432.24675,0.05052
3430.18657,0.05089
3428.12640,0.05120
3426.06623,0.05131
3424.00606,0.05145
3421.94589,0.05191
3419.88571,0.05238
3417.82554,0.05268
3415.76537,0.05289
3413.70520,0.05309
3411.64503,0.05328
3409.58485,0.05337
3407.52468,0.05344
3405.46451,0.05362
3403.40434,0.05375
3401.34416,0.05375
3399.28399,0.05304
3397.22382,0.05356
3395.16365,0.05405
3393.10348,0.05405
3391.04330,0.05412
3388.98313,0.05457
3386.92296,0.05509
3384.86279,0.05547
3382.80262,0.05583
3380.74244,0.05612
3378.68227,0.05630
3376.62210,0.05648
3374.56193,0.05669
3372.50176,0.05692
3370.44158,0.05712
3368.38141,0.05714
3366.32124,0.05695
3364.26107,0.05695
3362.20089,0.05729
3360.14072,0.05758
3358.08055,0.05760
3356.02038,0.05758
3353.96021,0.05772
3351.90003,0.05786
3349.83986,0.05801
3347.77969,0.05823
3345.71952,0.05823
3343.65935,0.05812
3341.59917,0.05814
3339.53900,0.05814
3337.47883,0.05817
3335.41866,0.05840
3333.35849,0.05876
3331.29831,0.05911
3329.23814,0.05930
3327.17797,0.05922
3325.11780,0.05903
3323.05762,0.05896
3320.99745,0.05908
3318.93728,0.05924
3316.87711,0.05934
3314.81694,0.05932
3312.75676,0.05909
3310.69659,0.05886
3308.63642,0.05899
3306.57625,0.05936
3304.51608,0.05959
3302.45590,0.05967
3300.39573,0.05967
3298.33556,0.05969
3296.27539,0.05971
3294.21521,0.05958
3292.15504,0.05935
3290.09487,0.05936
3288.03470,0.05963
3285.97453,0.05984
3283.91435,0.05992
3281.85418,0.05999
3279.79401,0.05996
3277.73384,0.05976
3275.67367,0.05961
3273.61349,0.05973
3271.55332,0.06000
3269.49315,0.06021
3267.43298,0.06026
3265.37281,0.06024
3263.31263,0.06020
3261.25246,0.06016
3259.19229,0.06013
3257.13212,0.06010
3255.07194,0.06003
3253.01177,0.05985
3250.95160,0.05959
3248.89143,0.05950
3246.83126,0.05962
3244.77108,0.05969
3242.71091,0.05971
3240.65074,0.05975
3238.59057,0.05975
3236.53040,0.05964
3234.47022,0.05956
3232.41005,0.05961
3230.34988,0.05964
3228.28971,0.05952
3226.22954,0.05940
3224.16936,0.05936
3222.10919,0.05926
3220.04902,0.05913
3217.98885,0.05918
3215.92867,0.05933
3213.86850,0.05928
3211.80833,0.05902
3209.74816,0.05878
3207.68799,0.05869
3205.62781,0.05868
3203.56764,0.05856
3201.50747,0.05835
3199.44730,0.05817
3197.38713,0.05809
3195.32695,0.05808
3193.26678,0.05809
3191.20661,0.05799
3189.14644,0.05781
3187.08626,0.05766
3185.02609,0.05751
3182.96592,0.05743
3180.90575,0.05736
3178.84558,0.05726
3176.78540,0.05731
3174.72523,0.05736
3172.66506,0.05719
3170.60489,0.05701
3168.54472,0.05682
3166.48454,0.05659
3164.42437,0.05652
3162.36420,0.05654
3160.30403,0.05647
3158.24386,0.05640
3156.18368,0.05627
3154.12351,0.05593
3152.06334,0.05564
3150.00317,0.05564
3147.94299,0.05570
3145.88282,0.05555
3143.82265,0.05523
3141.76248,0.05495
3139.70231,0.05478
3137.64213,0.05455
3135.58196,0.05419
3133.52179,0.05387
3131.46162,0.05387
3129.40145,0.05397
3127.34127,0.05368
3125.28110,0.05310
3123.22093,0.05262
3121.16076,0.05245
3119.10058,0.05246
3117.04041,0.05245
3114.98024,0.05240
3112.92007,0.05234
3110.85990,0.05227
3108.79972,0.05218
3106.73955,0.05209
3104.67938,0.05192
3102.61921,0.05163
3100.55904,0.05144
3098.49886,0.05147
3096.43869,0.05135
3094.37852,0.05101
3092.31835,0.05084
3090.25818,0.05081
3088.19800,0.05068
3086.13783,0.05049
3084.07766,0.05022
3082.01749,0.04983
3079.95731,0.04953
3077.89714,0.04954
3075.83697,0.04962
3073.77680,0.04953
3071.71663,0.04935
3069.65645,0.04915
3067.59628,0.04890
3065.53611,0.04876
3063.47594,0.04879
3061.41577,0.04884
3059.35559,0.04867
3057.29542,0.04824
3055.23525,0.04783
3053.17508,0.04765
3051.11491,0.04757
3049.05473,0.04731
3046.99456,0.04691
3044.93439,0.04660
3042.87422,0.04647
3040.81404,0.04637
3038.75387,0.04614
3036.69370,0.04583
3034.63353,0.04555
3032.57336,0.04532
3030.51318,0.04509
3028.45301,0.04493
3026.39284,0.04485
3024.33267,0.04481
3022.27250,0.04471
3020.21232,0.04450
3018.15215,0.04414
3016.09198,0.04371
3014.03181,0.04340
3011.97163,0.04319
3009.91146,0.04306
3007.85129,0.04300
3005.79112,0.04288
3003.73095,0.04270
3001.67077,0.04257
2999.61060,0.04255
2997.55043,0.04228
2995.49026,0.04205
2993.43009,0.04200
2991.36991,0.04205
2989.30974,0.04199
2987.24957,0.04193
2985.18940,0.04204
2983.12923,0.04212
2981.06905,0.04204
2979.00888,0.04197
2976.94871,0.04205
2974.88854,0.04208
2972.82836,0.04198
2970.76819,0.04191
2968.70802,0.04186
2966.64785,0.04182
2964.58768,0.04190
2962.52750,0.04210
2960.46733,0.04227
2958.40716,0.04244
2956.34699,0.04256
2954.28682,0.04251
2952.22664,0.04243
2950.16647,0.04245
2948.10630,0.04237
2946.04613,0.04221
2943.98596,0.04213
2941.92578,0.04206
2939.86561,0.04205
2937.80544,0.04216
2935.74527,0.04227
2933.68509,0.04232
2931.62492,0.04244
2929.56475,0.04246
2927.50458,0.04226
2925.44441,0.04205
2923.38423,0.04200
2921.32406,0.04209
2919.26389,0.04225
2917.20372,0.04229
2915.14355,0.04211
2913.08337,0.04178
2911.02320,0.04135
2908.96303,0.04102
2906.90286,0.04091
2904.84268,0.04095
2902.78251,0.04090
2900.72234,0.04070
2898.66217,0.04049
2896.60200,0.04047
2894.54182,0.04053
2892.48165,0.04046
2890.42148,0.04030
2888.36131,0.04030
2886.30114,0.04031
2884.24096,0.04022
2882.18079,0.04017
2880.12062,0.04008
2878.06045,0.03989
2876.00028,0.03978
2873.94010,0.03971
2871.87993,0.03954
2869.81976,0.03932
2867.75959,0.03912
2865.69941,0.03894
2863.63924,0.03882
2861.57907,0.03872
2859.51890,0.03854
2857.45873,0.03837
2855.39855,0.03830
2853.33838,0.03815
2851.27821,0.03782
2849.21804,0.03761
2847.15787,0.03760
2845.09769,0.03752
2843.03752,0.03734
2840.97735,0.03716
2838.91718,0.03687
2836.85700,0.03650
2834.79683,0.03621
2832.73666,0.03609
2830.67649,0.03601
2828.61632,0.03579
2826.55614,0.03551
2824.49597,0.03525
2822.43580,0.03498
2820.37563,0.03470
2818.31546,0.03448
2816.25528,0.03440
2814.19511,0.03446
2812.13494,0.03444
2810.07477,0.03422
2808.01460,0.03392
2805.95442,0.03362
2803.89425,0.03340
2801.83408,0.03334
2799.77391,0.03332
2797.71373,0.03314
2795.65356,0.03284
2793.59339,0.03263
2791.53322,0.03260
2789.47305,0.03258
2787.41287,0.03243
2785.35270,0.03223
2783.29253,0.03210
2781.23236,0.03195
2779.17219,0.03181
2777.11201,0.03174
2775.05184,0.03160
2772.99167,0.03133
2770.93150,0.03105
2768.87133,0.03087
2766.81115,0.03079
2764.75098,0.03070
2762.69081,0.03063
2760.63064,0.03059
2758.57046,0.03050
2756.51029,0.03038
2754.45012,0.03026
2752.38995,0.03017
2750.32978,0.03007
2748.26960,0.02992
2746.20943,0.02966
2744.14926,0.02935
2742.08909,0.02926
2740.02892,0.02938
2737.96874,0.02942
2735.90857,0.02932
2733.84840,0.02915
2731.78823,0.02897
2729.72805,0.02891
2727.66788,0.02885
2725.60771,0.02863
2723.54754,0.02835
2721.48737,0.02815
2719.42719,0.02811
2717.36702,0.02812
2715.30685,0.02801
2713.24668,0.02784
2711.18651,0.02779
2709.12633,0.02771
2707.06616,0.02750
2705.00599,0.02735
2702.94582,0.02728
2700.88565,0.02718
2698.82547,0.02702
2696.76530,0.02676
2694.70513,0.02663
2692.64496,0.02664
2690.58478,0.02659
2688.52461,0.02646
2686.46444,0.02633
2684.40427,0.02624
2682.34410,0.02620
2680.28392,0.02624
2678.22375,0.02624
2676.16358,0.02609
2674.10341,0.02594
2672.04324,0.02589
2669.98306,0.02582
2667.92289,0.02570
2665.86272,0.02567
2663.80255,0.02563
2661.74238,0.02547
2659.68220,0.02532
2657.62203,0.02526
2655.56186,0.02523
2653.50169,0.02516
2651.44151,0.02506
2649.38134,0.02493
2647.32117,0.02480
2645.26100,0.02472
2643.20083,0.02473
2641.14065,0.02472
2639.08048,0.02463
2637.02031,0.02459
2634.96014,0.02452
2632.89997,0.02434
2630.83979,0.02418
2628.77962,0.02404
2626.71945,0.02396
2624.65928,0.02406
2622.59910,0.02413
2620.53893,0.02397
2618.47876,0.02380
2616.41859,0.02387
2614.35842,0.02404
2612.29824,0.02403
2610.23807,0.02380
2608.17790,0.02354
2606.11773,0.02341
2604.05756,0.02346
2601.99738,0.02362
2599.93721,0.02371
2597.87704,0.02354
2595.81687,0.02334
2593.75670,0.02337
2591.69652,0.02353
2589.63635,0.02365
2587.57618,0.02374
2585.51601,0.02373
2583.45583,0.02356
2581.39566,0.02340
2579.33549,0.02346
2577.27532,0.02358
2575.21515,0.02360
2573.15497,0.02351
2571.09480,0.02327
2569.03463,0.02321
2566.97446,0.02347
2564.91429,0.02360
2562.85411,0.02348
2560.79394,0.02349
2558.73377,0.02361
2556.67360,0.02352
2554.61342,0.02339
2552.55325,0.02340
2550.49308,0.02348
2548.43291,0.02363
2546.37274,0.02369
2544.31256,0.02352
2542.25239,0.02339
2540.19222,0.02337
2538.13205,0.02337
2536.07188,0.02336
2534.01170,0.02338
2531.95153,0.02353
2529.89136,0.02378
2527.83119,0.02390
2525.77102,0.02391
2523.71084,0.02396
2521.65067,0.02392
2519.59050,0.02383
2517.53033,0.02386
2515.47015,0.02395
2513.40998,0.02403
2511.34981,0.02414
2509.28964,0.02424
2507.22947,0.02433
2505.16929,0.02423
2503.10912,0.02401
2501.04895,0.02397
2498.98878,0.02387
2496.92861,0.02379
2494.86843,0.02406
2492.80826,0.02442
2490.74809,0.02459
2488.68792,0.02468
2486.62775,0.02479
2484.56757,0.02494
2482.50740,0.02506
2480.44723,0.02509
2478.38706,0.02504
2476.32688,0.02501
2474.26671,0.02508
2472.20654,0.02523
2470.14637,0.02538
2468.08620,0.02546
2466.02602,0.02543
2463.96585,0.02540
2461.90568,0.02555
2459.84551,0.02573
2457.78534,0.02569
2455.72516,0.02563
2453.66499,0.02562
2451.60482,0.02552
2449.54465,0.02545
2447.48447,0.02557
2445.42430,0.02573
2443.36413,0.02583
2441.30396,0.02595
2439.24379,0.02611
2437.18361,0.02607
2435.12344,0.02586
2433.06327,0.02564
2431.00310,0.02551
2428.94293,0.02566
2426.88275,0.02588
2424.82258,0.02578
2422.76241,0.02561
2420.70224,0.02559
2418.64207,0.02548
2416.58189,0.02531
2414.52172,0.02530
2412.46155,0.02532
2410.40138,0.02511
2408.34120,0.02493
2406.28103,0.02510
2404.22086,0.02535
2402.16069,0.02549
2400.10052,0.02549
2398.04034,0.02496
2395.98017,0.02506
2393.92000,0.02533
2391.85983,0.02534
2389.79966,0.02522
2387.73948,0.02504
2385.67931,0.02445
2383.61914,0.02368
2381.55897,0.02337
2379.49880,0.02323
2377.43862,0.02336
2375.37845,0.02490
2373.31828,0.02452
2371.25811,0.02457
2369.19793,0.02702
2367.13776,0.02892
2365.07759,0.02777
2363.01742,0.02880
2360.95725,0.02517
2358.89707,0.02636
2356.83690,0.02806
2354.77673,0.03158
2352.71656,0.03039
2350.65639,0.02145
2348.59621,0.01490
2346.53604,0.02897
2344.47587,0.03185
2342.41570,0.02909
2340.35552,0.02665
2338.29535,0.02602
2336.23518,0.02521
2334.17501,0.02497
2332.11484,0.02563
2330.05466,0.02487
2327.99449,0.02653
2325.93432,0.02299
2323.87415,0.02304
2321.81398,0.02135
2319.75380,0.02306
2317.69363,0.02145
2315.63346,0.02120
2313.57329,0.02257
2311.51312,0.02210
2309.45294,0.02156
2307.39277,0.02130
2305.33260,0.02127
2303.27243,0.02144
2301.21225,0.02213
2299.15208,0.02196
2297.09191,0.02160
2295.03174,0.02208
2292.97157,0.02247
2290.91139,0.02262
2288.85122,0.02271
2286.79105,0.02251
2284.73088,0.02202
2282.67071,0.02169
2280.61053,0.02170
2278.55036,0.02206
2276.49019,0.02245
2274.43002,0.02238
2272.36984,0.02200
2270.30967,0.02141
2268.24950,0.02118
2266.18933,0.02141
2264.12916,0.02155
2262.06898,0.02144
2260.00881,0.02164
2257.94864,0.02150
2255.88847,0.02109
2253.82830,0.02075
2251.76812,0.02055
2249.70795,0.02030
2247.64778,0.02062
2245.58761,0.02136
2243.52744,0.02151
2241.46726,0.02058
2239.40709,0.01986
2237.34692,0.01995
2235.28675,0.02001
2233.22657,0.01991
2231.16640,0.02016
2229.10623,0.02064
2227.04606,0.02089
2224.98589,0.02073
2222.92571,0.02016
2220.86554,0.01959
2218.80537,0.01961
2216.74520,0.01975
2214.68503,0.01926
2212.62485,0.01881
2210.56468,0.01905
2208.50451,0.01932
2206.44434,0.01904
2204.38417,0.01883
2202.32399,0.01912
2200.26382,0.01907
2198.20365,0.01860
2196.14348,0.01832
2194.08330,0.01788
2192.02313,0.01743
2189.96296,0.01744
2187.90279,0.01765
2185.84262,0.01777
2183.78244,0.01787
2181.72227,0.01820
2179.66210,0.01881
2177.60193,0.01916
2175.54176,0.01852
2173.48158,0.01751
2171.42141,0.01696
2169.36124,0.01645
2167.30107,0.01617
2165.24089,0.01653
2163.18072,0.01652
2161.12055,0.01525
2159.06038,0.01385
2157.00021,0.01409
2154.94003,0.01557
2152.87986,0.01682
2150.81969,0.01727
2148.75952,0.01699
2146.69935,0.01656
2144.63917,0.01630
2142.57900,0.01590
2140.51883,0.01537
2138.45866,0.01528
2136.39849,0.01573
2134.33831,0.01613
2132.27814,0.01635
2130.21797,0.01643
2128.15780,0.01653
2126.09762,0.01671
2124.03745,0.01669
2121.97728,0.01669
2119.91711,0.01677
2117.85694,0.01671
2115.79676,0.01661
2113.73659,0.01671
2111.67642,0.01696
2109.61625,0.01708
2107.55608,0.01691
2105.49590,0.01651
2103.43573,0.01622
2101.37556,0.01633
2099.31539,0.01724
2097.25521,0.01762
2095.19504,0.01727
2093.13487,0.01622
2091.07470,0.01537
2089.01453,0.01521
2086.95435,0.01527
2084.89418,0.01556
2082.83401,0.01630
2080.77384,0.01711
2078.71367,0.01737
2076.65349,0.01720
2074.59332,0.01697
2072.53315,0.01678
2070.47298,0.01666
2068.41281,0.01665
2066.35263,0.01648
2064.29246,0.01595
2062.23229,0.01523
2060.17212,0.01458
2058.11194,0.01436
2056.05177,0.01445
2053.99160,0.01468
2051.93143,0.01544
2049.87126,0.01676
2047.81108,0.01763
2045.75091,0.01763
2043.69074,0.01733
2041.63057,0.01738
2039.57040,0.01784
2037.51022,0.01806
2035.45005,0.01789
2033.38988,0.01768
2031.32971,0.01693
2029.26954,0.01577
2027.20936,0.01551
2025.14919,0.01612
2023.08902,0.01633
2021.02885,0.01596
2018.96867,0.01568
2016.90850,0.01594
2014.84833,0.01648
2012.78816,0.01645
2010.72799,0.01639
2008.66781,0.01718
2006.60764,0.01766
2004.54747,0.01661
2002.48730,0.01478
2000.42713,0.01373
1998.36695,0.01375
1996.30678,0.01390
1994.24661,0.01373
1992.18644,0.01355
1990.12626,0.01391
1988.06609,0.01468
1986.00592,0.01508
1983.94575,0.01526
1981.88558,0.01616
1979.82540,0.01789
1977.76523,0.01922
1975.70506,0.01918
1973.64489,0.01845
1971.58472,0.01788
1969.52454,0.01723
1967.46437,0.01642
1965.40420,0.01605
1963.34403,0.01638
1961.28386,0.01670
1959.22368,0.01632
1957.16351,0.01537
1955.10334,0.01453
1953.04317,0.01452
1950.98299,0.01531
1948.92282,0.01618
1946.86265,0.01650
1944.80248,0.01627
1942.74231,0.01625
1940.68213,0.01670
1938.62196,0.01715
1936.56179,0.01737
1934.50162,0.01748
1932.44145,0.01746
1930.38127,0.01730
1928.32110,0.01701
1926.26093,0.01662
1924.20076,0.01628
1922.14059,0.01613
1920.08041,0.01603
1918.02024,0.01597
1915.96007,0.01619
1913.89990,0.01673
1911.83972,0.01709
1909.77955,0.01716
1907.71938,0.01717
1905.65921,0.01714
1903.59904,0.01711
1901.53886,0.01711
1899.47869,0.01708
1897.41852,0.01692
1895.35835,0.01678
1893.29818,0.01696
1891.23800,0.01739
1889.17783,0.01752
1887.11766,0.01733
1885.05749,0.01728
1882.99731,0.01744
1880.93714,0.01760
1878.87697,0.01763
1876.81680,0.01757
1874.75663,0.01760
1872.69645,0.01794
1870.63628,0.01850
1868.57611,0.01885
1866.51594,0.01878
1864.45577,0.01858
1862.39559,0.01846
1860.33542,0.01840
1858.27525,0.01847
1856.21508,0.01861
1854.15491,0.01864
1852.09473,0.01865
1850.03456,0.01878
1847.97439,0.01878
1845.91422,0.01841
1843.85404,0.01795
1841.79387,0.01794
1839.73370,0.01828
1837.67353,0.01850
1835.61336,0.01840
1833.55318,0.01852
1831.49301,0.01920
1829.43284,0.01980
1827.37267,0.01988
1825.31250,0.01990
1823.25232,0.02011
1821.19215,0.02031
1819.13198,0.02019
1817.07181,0.01984
1815.01163,0.01961
1812.95146,0.01944
1810.89129,0.01917
1808.83112,0.01894
1806.77095,0.01893
1804.71077,0.01901
1802.65060,0.01906
1800.59043,0.01923
1798.53026,0.01943
1796.47009,0.01955
1794.40991,0.01970
1792.34974,0.01972
1790.28957,0.01943
1788.22940,0.01901
1786.16923,0.01864
1784.10905,0.01869
1782.04888,0.01917
1779.98871,0.01943
1777.92854,0.01941
1775.86836,0.01972
1773.80819,0.02032
1771.74802,0.02031
1769.68785,0.01955
1767.62768,0.01915
1765.56750,0.01952
1763.50733,0.02014
1761.44716,0.02040
1759.38699,0.02040
1757.32682,0.02059
1755.26664,0.02094
1753.20647,0.02136
1751.14630,0.02183
1749.08613,0.02219
1747.02596,0.02227
1744.96578,0.02236
1742.90561,0.02273
1740.84544,0.02310
1738.78527,0.02321
1736.72509,0.02325
1734.66492,0.02313
1732.60475,0.02264
1730.54458,0.02237
1728.48441,0.02230
1726.42423,0.02222
1724.36406,0.02206
1722.30389,0.02212
1720.24372,0.02276
1718.18355,0.02319
1716.12337,0.02233
1714.06320,0.02142
1712.00303,0.02110
1709.94286,0.02128
1707.88268,0.02173
1705.82251,0.02189
1703.76234,0.02185
1701.70217,0.02241
1699.64200,0.02313
1697.58182,0.02337
1695.52165,0.02360
1693.46148,0.02409
1691.40131,0.02477
1689.34114,0.02579
1687.28096,0.02736
1685.22079,0.02939
1683.16062,0.03045
1681.10045,0.03052
1679.04028,0.03105
1676.98010,0.03248
1674.91993,0.03427
1672.85976,0.03584
1670.79959,0.03718
1668.73941,0.03801
1666.67924,0.03834
1664.61907,0.03889
1662.55890,0.03958
1660.49873,0.03980
1658.43855,0.03998
1656.37838,0.04091
1654.31821,0.04227
1652.25804,0.04252
1650.19787,0.04222
1648.13769,0.04214
1646.07752,0.04202
1644.01735,0.04145
1641.95718,0.04115
1639.89701,0.04165
1637.83683,0.04254
1635.77666,0.04262
1633.71649,0.04174
1631.65632,0.04105
1629.59614,0.04094
1627.53597,0.04109
1625.47580,0.04117
1623.41563,0.04096
1621.35546,0.04048
1619.29528,0.04053
1617.23511,0.04099
1615.17494,0.04071
1613.11477,0.03999
1611.05460,0.03969
1608.99442,0.03970
1606.93425,0.03961
1604.87408,0.03946
1602.81391,0.03921
1600.75373,0.03879
1598.69356,0.03845
1596.63339,0.03828
1594.57322,0.03798
1592.51305,0.03741
1590.45287,0.03678
1588.39270,0.03623
1586.33253,0.03568
1584.27236,0.03505
1582.21219,0.03442
1580.15201,0.03418
1578.09184,0.03423
1576.03167,0.03357
1573.97150,0.03215
1571.91133,0.03130
1569.85115,0.03101
1567.79098,0.03029
1565.73081,0.02932
1563.67064,0.02892
1561.61046,0.02966
1559.55029,0.03024
1557.49012,0.02850
1555.42995,0.02659
1553.36978,0.02567
1551.30960,0.02535
1549.24943,0.02511
1547.18926,0.02497
1545.12909,0.02534
1543.06892,0.02618
1541.00874,0.02681
1538.94857,0.02591
1536.88840,0.02439
1534.82823,0.02367
1532.76805,0.02335
1530.70788,0.02277
1528.64771,0.02232
1526.58754,0.02199
1524.52737,0.02168
1522.46719,0.02142
1520.40702,0.02078
1518.34685,0.02022
1516.28668,0.01978
1514.22651,0.01906
1512.16633,0.01856
1510.10616,0.01890
1508.04599,0.01966
1505.98582,0.01959
1503.92565,0.01870
1501.86547,0.01805
1499.80530,0.01833
1497.74513,0.01888
1495.68496,0.01894
1493.62478,0.01903
1491.56461,0.01947
1489.50444,0.01960
1487.44427,0.01926
1485.38410,0.01899
1483.32392,0.01897
1481.26375,0.01911
1479.20358,0.01938
1477.14341,0.01989
1475.08324,0.02054
1473.02306,0.02101
1470.96289,0.02104
1468.90272,0.02098
1466.84255,0.02142
1464.78238,0.02195
1462.72220,0.02212
1460.66203,0.02262
1458.60186,0.02321
1456.54169,0.02281
1454.48151,0.02226
1452.42134,0.02230
1450.36117,0.02299
1448.30100,0.02388
1446.24083,0.02441
1444.18065,0.02461
1442.12048,0.02474
1440.06031,0.02492
1438.00014,0.02509
1435.93997,0.02511
1433.87979,0.02521
1431.81962,0.02565
1429.75945,0.02633
1427.69928,0.02686
1425.63910,0.02737
1423.57893,0.02792
1421.51876,0.02842
1419.45859,0.02878
1417.39842,0.02920
1415.33824,0.02993
1413.27807,0.03081
1411.21790,0.03154
1409.15773,0.03208
1407.09756,0.03255
1405.03738,0.03279
1402.97721,0.03276
1400.91704,0.03263
1398.85687,0.03231
1396.79670,0.03197
1394.73652,0.03195
1392.67635,0.03197
1390.61618,0.03191
1388.55601,0.03192
1386.49583,0.03200
1384.43566,0.03210
1382.37549,0.03217
1380.31532,0.03216
1378.25515,0.03225
1376.19497,0.03254
1374.13480,0.03261
1372.07463,0.03243
1370.01446,0.03240
1367.95429,0.03254
1365.89411,0.03262
1363.83394,0.03247
1361.77377,0.03213
1359.71360,0.03204
1357.65343,0.03212
1355.59325,0.03214
1353.53308,0.03204
1351.47291,0.03184
1349.41274,0.03151
1347.35256,0.03098
1345.29239,0.03030
1343.23222,0.02955
1341.17205,0.02871
1339.11188,0.02786
1337.05170,0.02750
1334.99153,0.02764
1332.93136,0.02769
1330.87119,0.02739
1328.81102,0.02698
1326.75084,0.02665
1324.69067,0.02636
1322.63050,0.02610
1320.57033,0.02590
1318.51015,0.02559
1316.44998,0.02528
1314.38981,0.02507
1312.32964,0.02491
1310.26947,0.02479
1308.20929,0.02468
1306.14912,0.02455
1304.08895,0.02448
1302.02878,0.02444
1299.96861,0.02437
1297.90843,0.02426
1295.84826,0.02418
1293.78809,0.02413
1291.72792,0.02397
1289.66775,0.02368
1287.60757,0.02352
1285.54740,0.02354
1283.48723,0.02359
1281.42706,0.02361
1279.36688,0.02359
1277.30671,0.02360
1275.24654,0.02363
1273.18637,0.02364
1271.12620,0.02364
1269.06602,0.02364
1267.00585,0.02367
1264.94568,0.02382
1262.88551,0.02407
1260.82534,0.02422
1258.76516,0.02433
1256.70499,0.02442
1254.64482,0.02441
1252.58465,0.02439
1250.52447,0.02444
1248.46430,0.02439
1246.40413,0.02416
1244.34396,0.02393
1242.28379,0.02383
1240.22361,0.02379
1238.16344,0.02368
1236.10327,0.02347
1234.04310,0.02318
1231.98293,0.02292
1229.92275,0.02271
1227.86258,0.02244
1225.80241,0.02213
1223.74224,0.02189
1221.68207,0.02163
1219.62189,0.02126
1217.56172,0.02090
1215.50155,0.02062
1213.44138,0.02031
1211.38120,0.02008
1209.32103,0.02003
1207.26086,0.02005
1205.20069,0.02009
1203.14052,0.02029
1201.08034,0.02070
1199.02017,0.02124
1196.96000,0.02209
1194.89983,0.02315
1192.83966,0.02428
1190.77948,0.02557
1188.71931,0.02709
1186.65914,0.02886
1184.59897,0.03097
1182.53880,0.03320
1180.47862,0.03539
1178.41845,0.03757
1176.35828,0.03957
1174.29811,0.04142
1172.23793,0.04341
1170.17776,0.04544
1168.11759,0.04730
1166.05742,0.04906
1163.99725,0.05086
1161.93707,0.05265
1159.87690,0.05445
1157.81673,0.05621
1155.75656,0.05779
1153.69639,0.05923
1151.63621,0.06061
1149.57604,0.06190
1147.51587,0.06308
1145.45570,0.06407
1143.39552,0.06482
1141.33535,0.06540
1139.27518,0.06570
1137.21501,0.06573
1135.15484,0.06577
1133.09466,0.06588
1131.03449,0.06600
1128.97432,0.06625
1126.91415,0.06676
1124.85398,0.06753
1122.79380,0.06858
1120.73363,0.06990
1118.67346,0.07132
1116.61329,0.07283
1114.55312,0.07462
1112.49294,0.07665
1110.43277,0.07873
1108.37260,0.08077
1106.31243,0.08288
1104.25225,0.08512
1102.19208,0.08733
1100.13191,0.08952
1098.07174,0.09168
1096.01157,0.09365
1093.95139,0.09553
1091.89122,0.09744
1089.83105,0.09941
1087.77088,0.10149
1085.71071,0.10353
1083.65053,0.10543
1081.59036,0.10730
1079.53019,0.10923
1077.47002,0.11101
1075.40985,0.11241
1073.34967,0.11348
1071.28950,0.11421
1069.22933,0.11453
1067.16916,0.11448
1065.10898,0.11401
1063.04881,0.11328
1060.98864,0.11249
1058.92847,0.11154
1056.86830,0.11025
1054.80812,0.10878
1052.74795,0.10731
1050.68778,0.10557
1048.62761,0.10348
1046.56744,0.10129
1044.50726,0.09902
1042.44709,0.09653
1040.38692,0.09382
1038.32675,0.09100
1036.26657,0.08794
1034.20640,0.08468
1032.14623,0.08177
1030.08606,0.07946
1028.02589,0.07731
1025.96571,0.07504
1023.90554,0.07275
1021.84537,0.07052
1019.78520,0.06854
1017.72503,0.06693
1015.66485,0.06558
1013.60468,0.06443
1011.54451,0.06356
1009.48434,0.06298
1007.42417,0.06265
1005.36399,0.06260
1003.30382,0.06307
1001.24365,0.06410
999.18348,0.06540
997.12330,0.06662
995.06313,0.06758
993.00296,0.06840
990.94279,0.06936
988.88262,0.07033
986.82244,0.07104
984.76227,0.07149
982.70210,0.07165
980.64193,0.07161
978.58176,0.07150
976.52158,0.07134
974.46141,0.07109
972.40124,0.07058
970.34107,0.06980
968.28089,0.06887
966.22072,0.06790
964.16055,0.06702
962.10038,0.06630
960.04021,0.06576
957.98003,0.06534
955.91986,0.06504
953.85969,0.06485
951.79952,0.06456
949.73935,0.06409
947.67917,0.06364
945.61900,0.06332
943.55883,0.06292
941.49866,0.06231
939.43849,0.06138
937.37831,0.06019
935.31814,0.05898
933.25797,0.05774
931.19780,0.05640
929.13762,0.05491
927.07745,0.05330
925.01728,0.05179
922.95711,0.05040
920.89694,0.04893
918.83676,0.04734
916.77659,0.04565
914.71642,0.04385
912.65625,0.04222
910.59608,0.04091
908.53590,0.03977
906.47573,0.03867
904.41556,0.03774
902.35539,0.03720
900.29522,0.03687
898.23504,0.03647
896.17487,0.03630
894.11470,0.03650
892.05453,0.03689
889.99435,0.03738
887.93418,0.03796
885.87401,0.03879
883.81384,0.03989
881.75367,0.04123
879.69349,0.04294
877.63332,0.04509
875.57315,0.04757
873.51298,0.05012
871.45281,0.05271
869.39263,0.05547
867.33246,0.05833
865.27229,0.06130
863.21212,0.06423
861.15194,0.06675
859.09177,0.06867
857.03160,0.06994
854.97143,0.07045
852.91126,0.07036
850.85108,0.06986
848.79091,0.06893
846.73074,0.06757
844.67057,0.06592
842.61040,0.06409
840.55022,0.06220
838.49005,0.06033
836.42988,0.05858
834.36971,0.05707
832.30954,0.05561
830.24936,0.05408
828.18919,0.05251
826.12902,0.05078
824.06885,0.04927
822.00867,0.04823
819.94850,0.04723
817.88833,0.04608
815.82816,0.04496
813.76799,0.04390
811.70781,0.04286
809.64764,0.04193
807.58747,0.04125
805.52730,0.04085
803.46713,0.04051
801.40695,0.03981
799.34678,0.03868
797.28661,0.03766
795.22644,0.03716
793.16627,0.03695
791.10609,0.03654
789.04592,0.03600
786.98575,0.03573
784.92558,0.03551
782.86540,0.03514
780.80523,0.03471
778.74506,0.03448
776.68489,0.03440
774.62472,0.03398
772.56454,0.03340
770.50437,0.03306
768.44420,0.03263
766.38403,0.03190
764.32386,0.03146
762.26368,0.03149
760.20351,0.03144
758.14334,0.03109
756.08317,0.03069
754.02299,0.03043
751.96282,0.03031
749.90265,0.03005
747.84248,0.02961
745.78231,0.02934
743.72213,0.02915
741.66196,0.02883
739.60179,0.02841
737.54162,0.02807
735.48145,0.02807
733.42127,0.02820
731.36110,0.02811
729.30093,0.02789
727.24076,0.02782
725.18059,0.02784
723.12041,0.02732
721.06024,0.02764
719.00007,0.02635
716.93990,0.02700
714.87972,0.02721
712.81955,0.02713
710.75938,0.02705
708.69921,0.02653
706.63904,0.02595
704.57886,0.02595
702.51869,0.02637
700.45852,0.02626
698.39835,0.02538
696.33818,0.02423
694.27800,0.02334
692.21783,0.02282
690.15766,0.02223
688.09749,0.02146
686.03731,0.02100
683.97714,0.02090
681.91697,0.02080
679.85680,0.02049
677.79663,0.02021
675.73645,0.02084
673.67628,0.01949
671.61611,0.00601
669.55594,0.00000
667.49577,0.03237
665.43559,0.01029
663.37542,0.01549
661.31525,0.02082
659.25508,0.01902
657.19491,0.01682
655.13473,0.01595
653.07456,0.01502
651.01439,0.01399
648.95422,0.01418
646.89404,0.01390
644.83387,0.01477
642.77370,0.01576
640.71353,0.01580
638.65336,0.01492
636.59318,0.01394
634.53301,0.01316
632.47284,0.01230
630.41267,0.01125
628.35250,0.01028
626.29232,0.00929
624.23215,0.00911
622.17198,0.00908
620.11181,0.00843
618.05164,0.00759
615.99146,0.00693
613.93129,0.00607
611.87112,0.00485
609.81095,0.00298
607.75077,0.00091
605.69060,0.00000
603.63043,-0.00029
601.57026,-0.00077
599.51009,0.00000
