3996.73391,-0.00008
3994.67373,0.00003
3992.61356,0.00011
3990.55339,0.00000
3988.49322,0.00018
3986.43305,0.00061
3984.37287,0.00076
3982.31270,0.00066
3980.25253,0.00053
3978.19236,0.00058
3976.13219,0.00088
3974.07201,0.00092
3972.01184,0.00051
3969.95167,0.00027
3967.89150,0.00052
3965.83133,0.00075
3963.77115,0.00069
3961.71098,0.00063
3959.65081,0.00058
3957.59064,0.00027
3955.53046,0.00000
3953.47029,0.00009
3951.41012,0.00036
3949.34995,0.00066
3947.28978,0.00083
3945.22960,0.00076
3943.16943,0.00089
3941.10926,0.00138
3939.04909,0.00174
3936.98892,0.00181
3934.92874,0.00175
3932.86857,0.00166
3930.80840,0.00160
3928.74823,0.00139
3926.68805,0.00088
3924.62788,0.00048
3922.56771,0.00068
3920.50754,0.00119
3918.44737,0.00137
3916.38719,0.00113
3914.32702,0.00091
3912.26685,0.00092
3910.20668,0.00109
3908.14651,0.00116
3906.08633,0.00085
3904.02616,0.00041
3901.96599,0.00059
3899.90582,0.00128
3897.84565,0.00154
3895.78547,0.00101
3893.72530,0.00016
3891.66513,0.00000
3889.60496,0.00084
3887.54478,0.00184
3885.48461,0.00220
3883.42444,0.00184
3881.36427,0.00139
3879.30410,0.00140
3877.24392,0.00162
3875.18375,0.00173
3873.12358,0.00161
3871.06341,0.00134
3869.00324,0.00130
3866.94306,0.00150
3864.88289,0.00186
3862.82272,0.00240
3860.76255,0.00291
3858.70237,0.00305
3856.64220,0.00245
3854.58203,0.00142
3852.52186,0.00133
3850.46169,0.00213
3848.40151,0.00250
3846.34134,0.00228
3844.28117,0.00188
3842.22100,0.00141
3840.16083,0.00069
3838.10065,0.00017
3836.04048,0.00053
3833.98031,0.00126
3831.92014,0.00162
3829.85997,0.00156
3827.79979,0.00136
3825.73962,0.00127
3823.67945,0.00122
3821.61928,0.00107
3819.55910,0.00109
3817.49893,0.00160
3815.43876,0.00237
3813.37859,0.00273
3811.31842,0.00248
3809.25824,0.00184
3807.19807,0.00125
3805.13790,0.00114
3803.07773,0.00138
3801.01756,0.00179
3798.95738,0.00190
3796.89721,0.00173
3794.83704,0.00194
3792.77687,0.00234
3790.71670,0.00241
3788.65652,0.00218
3786.59635,0.00189
3784.53618,0.00183
3782.47601,0.00204
3780.41583,0.00218
3778.35566,0.00211
3776.29549,0.00199
3774.23532,0.00218
3772.17515,0.00281
3770.11497,0.00322
3768.05480,0.00275
3765.99463,0.00196
3763.93446,0.00151
3761.87429,0.00131
3759.81411,0.00119
3757.75394,0.00127
3755.69377,0.00121
3753.63360,0.00076
3751.57342,0.00067
3749.51325,0.00140
3747.45308,0.00228
3745.39291,0.00300
3743.33274,0.00309
3741.27256,0.00235
3739.21239,0.00166
3737.15222,0.00168
3735.09205,0.00177
3733.03188,0.00145
3730.97170,0.00152
3728.91153,0.00170
3726.85136,0.00123
3724.79119,0.00082
3722.73102,0.00132
3720.67084,0.00220
3718.61067,0.00289
3716.55050,0.00305
3714.49033,0.00260
3712.43015,0.00199
3710.36998,0.00166
3708.30981,0.00182
3706.24964,0.00215
3704.18947,0.00234
3702.12929,0.00220
3700.06912,0.00180
3698.00895,0.00153
3695.94878,0.00161
3693.88861,0.00177
3691.82843,0.00157
3689.76826,0.00155
3687.70809,0.00197
3685.64792,0.00216
3683.58775,0.00208
3681.52757,0.00213
3679.46740,0.00231
3677.40723,0.00261
3675.34706,0.00317
3673.28688,0.00354
3671.22671,0.00301
3669.16654,0.00209
3667.10637,0.00179
3665.04620,0.00202
3662.98602,0.00239
3660.92585,0.00260
3658.86568,0.00236
3656.80551,0.00210
3654.74534,0.00223
3652.68516,0.00241
3650.62499,0.00249
3648.56482,0.00290
3646.50465,0.00375
3644.44447,0.00425
3642.38430,0.00411
3640.32413,0.00391
3638.26396,0.00383
3636.20379,0.00363
3634.14361,0.00341
3632.08344,0.00318
3630.02327,0.00289
3627.96310,0.00289
3625.90293,0.00334
3623.84275,0.00373
3621.78258,0.00379
3619.72241,0.00373
3617.66224,0.00399
3615.60207,0.00449
3613.54189,0.00471
3611.48172,0.00476
3609.42155,0.00471
3607.36138,0.00461
3605.30120,0.00474
3603.24103,0.00489
3601.18086,0.00481
3599.12069,0.00477
3597.06052,0.00521
3595.00034,0.00594
3592.94017,0.00633
3590.88000,0.00593
3588.81983,0.00527
3586.75966,0.00529
3584.69948,0.00610
3582.63931,0.00692
3580.57914,0.00752
3578.51897,0.00800
3576.45879,0.00797
3574.39862,0.00708
3572.33845,0.00610
3570.27828,0.00590
3568.21811,0.00638
3566.15793,0.00699
3564.09776,0.00722
3562.03759,0.00718
3559.97742,0.00718
3557.91725,0.00733
3555.85707,0.00748
3553.79690,0.00737
3551.73673,0.00730
3549.67656,0.00764
3547.61639,0.00797
3545.55621,0.00803
3543.49604,0.00825
3541.43587,0.00899
3539.37570,0.00983
3537.31552,0.01020
3535.25535,0.01011
3533.19518,0.00991
3531.13501,0.00974
3529.07484,0.00956
3527.01466,0.00930
3524.95449,0.00921
3522.89432,0.00961
3520.83415,0.01030
3518.77398,0.01062
3516.71380,0.01035
3514.65363,0.00992
3512.59346,0.00972
3510.53329,0.00981
3508.47312,0.01001
3506.41294,0.00990
3504.35277,0.00957
3502.29260,0.00980
3500.23243,0.01056
3498.17225,0.01105
3496.11208,0.01095
3494.05191,0.01075
3491.99174,0.01092
3489.93157,0.01118
3487.87139,0.01146
3485.81122,0.01203
3483.75105,0.01253
3481.69088,0.01256
3479.63071,0.01226
3477.57053,0.01201
3475.51036,0.01210
3473.45019,0.01232
3471.39002,0.01250
3469.32984,0.01274
3467.26967,0.01311
3465.20950,0.01344
3463.14933,0.01360
3461.08916,0.01358
3459.02898,0.01328
3456.96881,0.01276
3454.90864,0.01237
3452.84847,0.01234
3450.78830,0.01287
3448.72812,0.01365
3446.66795,0.01383
3444.60778,0.01353
3442.54761,0.01349
3440.48744,0.01368
3438.42726,0.01373
3436.36709,0.01370
3434.30692,0.01368
3432.24675,0.01364
3430.18657,0.01368
3428.12640,0.01388
3426.06623,0.01413
3424.00606,0.01429
3421.94589,0.01443
3419.88571,0.01475
3417.82554,0.01491
3415.76537,0.01472
3413.70520,0.01457
3411.64503,0.01466
3409.58485,0.01500
3407.52468,0.01546
3405.46451,0.01579
3403.40434,0.01582
3401.34416,0.01572
3399.28399,0.01568
3397.22382,0.01536
3395.16365,0.01492
3393.10348,0.01488
3391.04330,0.01503
3388.98313,0.01500
3386.92296,0.01517
3384.86279,0.01543
3382.80262,0.01531
3380.74244,0.01522
3378.68227,0.01527
3376.62210,0.01511
3374.56193,0.01496
3372.50176,0.01501
3370.44158,0.01511
3368.38141,0.01525
3366.32124,0.01552
3364.26107,0.01580
3362.20089,0.01590
3360.14072,0.01564
3358.08055,0.01545
3356.02038,0.01591
3353.96021,0.01653
3351.90003,0.01662
3349.83986,0.01643
3347.77969,0.01641
3345.71952,0.01657
3343.65935,0.01672
3341.59917,0.01675
3339.53900,0.01681
3337.47883,0.01688
3335.41866,0.01676
3333.35849,0.01664
3331.29831,0.01656
3329.23814,0.01647
3327.17797,0.01653
3325.11780,0.01664
3323.05762,0.01672
3320.99745,0.01674
3318.93728,0.01662
3316.87711,0.01666
3314.81694,0.01668
3312.75676,0.01626
3310.69659,0.01571
3308.63642,0.01559
3306.57625,0.01598
3304.51608,0.01648
3302.45590,0.01666
3300.39573,0.01665
3298.33556,0.01660
3296.27539,0.01632
3294.21521,0.01598
3292.15504,0.01606
3290.09487,0.01646
3288.03470,0.01686
3285.97453,0.01707
3283.91435,0.01711
3281.85418,0.01708
3279.79401,0.01706
3277.73384,0.01717
3275.67367,0.01729
3273.61349,0.01707
3271.55332,0.01679
3269.49315,0.01696
3267.43298,0.01738
3265.37281,0.01752
3263.31263,0.01718
3261.25246,0.01665
3259.19229,0.01654
3257.13212,0.01694
3255.07194,0.01723
3253.01177,0.01702
3250.95160,0.01667
3248.89143,0.01666
3246.83126,0.01691
3244.77108,0.01692
3242.71091,0.01669
3240.65074,0.01655
3238.59057,0.01672
3236.53040,0.01711
3234.47022,0.01747
3232.41005,0.01745
3230.34988,0.01704
3228.28971,0.01683
3226.22954,0.01702
3224.16936,0.01725
3222.10919,0.01726
3220.04902,0.01695
3217.98885,0.01638
3215.92867,0.01609
3213.86850,0.01645
3211.80833,0.01690
3209.74816,0.01693
3207.68799,0.01668
3205.62781,0.01657
3203.56764,0.01669
3201.50747,0.01674
3199.44730,0.01668
3197.38713,0.01673
3195.32695,0.01675
3193.26678,0.01668
3191.20661,0.01660
3189.14644,0.01650
3187.08626,0.01642
3185.02609,0.01650
3182.96592,0.01671
3180.90575,0.01696
3178.84558,0.01711
3176.78540,0.01700
3174.72523,0.01671
3172.66506,0.01642
3170.60489,0.01635
3168.54472,0.01650
3166.48454,0.01658
3164.42437,0.01643
3162.36420,0.01629
3160.30403,0.01641
3158.24386,0.01648
3156.18368,0.01625
3154.12351,0.01636
3152.06334,0.01691
3150.00317,0.01694
3147.94299,0.01618
3145.88282,0.01540
3143.82265,0.01530
3141.76248,0.01565
3139.70231,0.01595
3137.64213,0.01616
3135.58196,0.01629
3133.52179,0.01633
3131.46162,0.01642
3129.40145,0.01627
3127.34127,0.01583
3125.28110,0.01560
3123.22093,0.01569
3121.16076,0.01579
3119.10058,0.01576
3117.04041,0.01542
3114.98024,0.01492
3112.92007,0.01482
3110.85990,0.01520
3108.79972,0.01551
3106.73955,0.01529
3104.67938,0.01474
3102.61921,0.01440
3100.55904,0.01441
3098.49886,0.01462
3096.43869,0.01490
3094.37852,0.01515
3092.31835,0.01524
3090.25818,0.01511
3088.19800,0.01494
3086.13783,0.01512
3084.07766,0.01536
3082.01749,0.01509
3079.95731,0.01460
3077.89714,0.01441
3075.83697,0.01473
3073.77680,0.01530
3071.71663,0.01541
3069.65645,0.01494
3067.59628,0.01451
3065.53611,0.01447
3063.47594,0.01474
3061.41577,0.01471
3059.35559,0.01417
3057.29542,0.01392
3055.23525,0.01417
3053.17508,0.01431
3051.11491,0.01423
3049.05473,0.01415
3046.99456,0.01409
3044.93439,0.01400
3042.87422,0.01378
3040.81404,0.01360
3038.75387,0.01346
3036.69370,0.01321
3034.63353,0.01311
3032.57336,0.01325
3030.51318,0.01337
3028.45301,0.01354
3026.39284,0.01382
3024.33267,0.01383
3022.27250,0.01363
3020.21232,0.01350
3018.15215,0.01339
3016.09198,0.01322
3014.03181,0.01294
3011.97163,0.01265
3009.91146,0.01251
3007.85129,0.01267
3005.79112,0.01305
3003.73095,0.01319
3001.67077,0.01281
2999.61060,0.01239
2997.55043,0.01250
2995.49026,0.01274
2993.43009,0.01274
2991.36991,0.01281
2989.30974,0.01291
2987.24957,0.01283
2985.18940,0.01264
2983.12923,0.01239
2981.06905,0.01221
2979.00888,0.01226
2976.94871,0.01234
2974.88854,0.01219
2972.82836,0.01211
2970.76819,0.01227
2968.70802,0.01242
2966.64785,0.01245
2964.58768,0.01225
2962.52750,0.01199
2960.46733,0.01200
2958.40716,0.01212
2956.34699,0.01211
2954.28682,0.01218
2952.22664,0.01240
2950.16647,0.01241
2948.10630,0.01217
2946.04613,0.01214
2943.98596,0.01229
2941.92578,0.01232
2939.86561,0.01237
2937.80544,0.01242
2935.74527,0.01226
2933.68509,0.01193
2931.62492,0.01162
2929.56475,0.01147
2927.50458,0.01155
2925.44441,0.01176
2923.38423,0.01179
2921.32406,0.01164
2919.26389,0.01163
2917.20372,0.01168
2915.14355,0.01152
2913.08337,0.01144
2911.02320,0.01156
2908.96303,0.01148
2906.90286,0.01144
2904.84268,0.01174
2902.78251,0.01183
2900.72234,0.01139
2898.66217,0.01090
2896.60200,0.01093
2894.54182,0.01117
2892.48165,0.01127
2890.42148,0.01144
2888.36131,0.01153
2886.30114,0.01142
2884.24096,0.01121
2882.18079,0.01072
2880.12062,0.01027
2878.06045,0.01044
2876.00028,0.01104
2873.94010,0.01140
2871.87993,0.01130
2869.81976,0.01117
2867.75959,0.01102
2865.69941,0.01061
2863.63924,0.01022
2861.57907,0.01019
2859.51890,0.01043
2857.45873,0.01057
2855.39855,0.01046
2853.33838,0.01032
2851.27821,0.01020
2849.21804,0.01004
2847.15787,0.00985
2845.09769,0.00974
2843.03752,0.00992
2840.97735,0.01021
2838.91718,0.01003
2836.85700,0.00953
2834.79683,0.00953
2832.73666,0.00980
2830.67649,0.00969
2828.61632,0.00940
2826.55614,0.00936
2824.49597,0.00936
2822.43580,0.00919
2820.37563,0.00917
2818.31546,0.00931
2816.25528,0.00943
2814.19511,0.00949
2812.13494,0.00928
2810.07477,0.00896
2808.01460,0.00901
2805.95442,0.00919
2803.89425,0.00901
2801.83408,0.00884
2799.77391,0.00891
2797.71373,0.00896
2795.65356,0.00897
2793.59339,0.00900
2791.53322,0.00893
2789.47305,0.00868
2787.41287,0.00848
2785.35270,0.00833
2783.29253,0.00819
2781.23236,0.00827
2779.17219,0.00834
2777.11201,0.00824
2775.05184,0.00829
2772.99167,0.00845
2770.93150,0.00837
2768.87133,0.00804
2766.81115,0.00788
2764.75098,0.00811
2762.69081,0.00847
2760.63064,0.00852
2758.57046,0.00819
2756.51029,0.00789
2754.45012,0.00795
2752.38995,0.00803
2750.32978,0.00794
2748.26960,0.00788
2746.20943,0.00787
2744.14926,0.00791
2742.08909,0.00789
2740.02892,0.00786
2737.96874,0.00777
2735.90857,0.00766
2733.84840,0.00763
2731.78823,0.00759
2729.72805,0.00752
2727.66788,0.00765
2725.60771,0.00793
2723.54754,0.00810
2721.48737,0.00825
2719.42719,0.00835
2717.36702,0.00815
2715.30685,0.00775
2713.24668,0.00739
2711.18651,0.00715
2709.12633,0.00710
2707.06616,0.00723
2705.00599,0.00738
2702.94582,0.00737
2700.88565,0.00732
2698.82547,0.00732
2696.76530,0.00725
2694.70513,0.00729
2692.64496,0.00740
2690.58478,0.00722
2688.52461,0.00704
2686.46444,0.00705
2684.40427,0.00700
2682.34410,0.00690
2680.28392,0.00688
2678.22375,0.00679
2676.16358,0.00668
2674.10341,0.00679
2672.04324,0.00694
2669.98306,0.00687
2667.92289,0.00671
2665.86272,0.00682
2663.80255,0.00711
2661.74238,0.00708
2659.68220,0.00696
2657.62203,0.00722
2655.56186,0.00756
2653.50169,0.00757
2651.44151,0.00725
2649.38134,0.00703
2647.32117,0.00721
2645.26100,0.00752
2643.20083,0.00747
2641.14065,0.00708
2639.08048,0.00668
2637.02031,0.00626
2634.96014,0.00603
2632.89997,0.00622
2630.83979,0.00649
2628.77962,0.00658
2626.71945,0.00654
2624.65928,0.00653
2622.59910,0.00672
2620.53893,0.00673
2618.47876,0.00627
2616.41859,0.00581
2614.35842,0.00562
2612.29824,0.00553
2610.23807,0.00564
2608.17790,0.00597
2606.11773,0.00607
2604.05756,0.00568
2601.99738,0.00522
2599.93721,0.00511
2597.87704,0.00530
2595.81687,0.00585
2593.75670,0.00646
2591.69652,0.00663
2589.63635,0.00649
2587.57618,0.00638
2585.51601,0.00625
2583.45583,0.00607
2581.39566,0.00618
2579.33549,0.00628
2577.27532,0.00568
2575.21515,0.00513
2573.15497,0.00537
2571.09480,0.00570
2569.03463,0.00567
2566.97446,0.00551
2564.91429,0.00525
2562.85411,0.00537
2560.79394,0.00606
2558.73377,0.00651
2556.67360,0.00651
2554.61342,0.00628
2552.55325,0.00617
2550.49308,0.00635
2548.43291,0.00625
2546.37274,0.00594
2544.31256,0.00586
2542.25239,0.00591
2540.19222,0.00595
2538.13205,0.00616
2536.07188,0.00654
2534.01170,0.00652
2531.95153,0.00613
2529.89136,0.00596
2527.83119,0.00602
2525.77102,0.00624
2523.71084,0.00643
2521.65067,0.00638
2519.59050,0.00594
2517.53033,0.00520
2515.47015,0.00503
2513.40998,0.00545
2511.34981,0.00571
2509.28964,0.00597
2507.22947,0.00640
2505.16929,0.00664
2503.10912,0.00676
2501.04895,0.00672
2498.98878,0.00631
2496.92861,0.00596
2494.86843,0.00588
2492.80826,0.00589
2490.74809,0.00589
2488.68792,0.00590
2486.62775,0.00607
2484.56757,0.00627
2482.50740,0.00640
2480.44723,0.00651
2478.38706,0.00595
2476.32688,0.00507
2474.26671,0.00514
2472.20654,0.00597
2470.14637,0.00673
2468.08620,0.00679
2466.02602,0.00617
2463.96585,0.00590
2461.90568,0.00636
2459.84551,0.00665
2457.78534,0.00651
2455.72516,0.00634
2453.66499,0.00596
2451.60482,0.00552
2449.54465,0.00564
2447.48447,0.00610
2445.42430,0.00651
2443.36413,0.00674
2441.30396,0.00650
2439.24379,0.00596
2437.18361,0.00568
2435.12344,0.00580
2433.06327,0.00603
2431.00310,0.00590
2428.94293,0.00540
2426.88275,0.00502
2424.82258,0.00510
2422.76241,0.00555
2420.70224,0.00600
2418.64207,0.00607
2416.58189,0.00579
2414.52172,0.00563
2412.46155,0.00584
2410.40138,0.00633
2408.34120,0.00658
2406.28103,0.00625
2404.22086,0.00570
2402.16069,0.00547
2400.10052,0.00570
2398.04034,0.00604
2395.98017,0.00628
2393.92000,0.00655
2391.85983,0.00690
2389.79966,0.00701
2387.73948,0.00673
2385.67931,0.00624
2383.61914,0.00589
2381.55897,0.00572
2379.49880,0.00536
2377.43862,0.00486
2375.37845,0.00575
2373.31828,0.00800
2371.25811,0.00939
2369.19793,0.00907
2367.13776,0.00715
2365.07759,0.00378
2363.01742,0.00205
2360.95725,0.00316
2358.89707,0.00835
2356.83690,0.01185
2354.77673,0.01134
2352.71656,0.00915
2350.65639,0.00493
2348.59621,0.00317
2346.53604,0.00755
2344.47587,0.00802
2342.41570,0.00601
2340.35552,0.00532
2338.29535,0.00575
2336.23518,0.00702
2334.17501,0.00827
2332.11484,0.00926
2330.05466,0.00902
2327.99449,0.00839
2325.93432,0.00698
2323.87415,0.00633
2321.81398,0.00620
2319.75380,0.00619
2317.69363,0.00528
2315.63346,0.00563
2313.57329,0.00699
2311.51312,0.00755
2309.45294,0.00719
2307.39277,0.00694
2305.33260,0.00690
2303.27243,0.00649
2301.21225,0.00635
2299.15208,0.00651
2297.09191,0.00672
2295.03174,0.00683
2292.97157,0.00660
2290.91139,0.00641
2288.85122,0.00683
2286.79105,0.00739
2284.73088,0.00743
2282.67071,0.00694
2280.61053,0.00624
2278.55036,0.00571
2276.49019,0.00574
2274.43002,0.00603
2272.36984,0.00618
2270.30967,0.00649
2268.24950,0.00706
2266.18933,0.00719
2264.12916,0.00697
2262.06898,0.00683
2260.00881,0.00646
2257.94864,0.00591
2255.88847,0.00586
2253.82830,0.00646
2251.76812,0.00690
2249.70795,0.00661
2247.64778,0.00611
2245.58761,0.00564
2243.52744,0.00510
2241.46726,0.00485
2239.40709,0.00476
2237.34692,0.00481
2235.28675,0.00544
2233.22657,0.00656
2231.16640,0.00752
2229.10623,0.00772
2227.04606,0.00720
2224.98589,0.00661
2222.92571,0.00606
2220.86554,0.00508
2218.80537,0.00435
2216.74520,0.00464
2214.68503,0.00531
2212.62485,0.00572
2210.56468,0.00530
2208.50451,0.00451
2206.44434,0.00433
2204.38417,0.00429
2202.32399,0.00399
2200.26382,0.00359
2198.20365,0.00369
2196.14348,0.00475
2194.08330,0.00537
2192.02313,0.00493
2189.96296,0.00541
2187.90279,0.00656
2185.84262,0.00602
2183.78244,0.00395
2181.72227,0.00152
2179.66210,0.00000
2177.60193,0.00038
2175.54176,0.00240
2173.48158,0.00496
2171.42141,0.00650
2169.36124,0.00634
2167.30107,0.00478
2165.24089,0.00361
2163.18072,0.00376
2161.12055,0.00399
2159.06038,0.00431
2157.00021,0.00436
2154.94003,0.00325
2152.87986,0.00243
2150.81969,0.00352
2148.75952,0.00523
2146.69935,0.00498
2144.63917,0.00333
2142.57900,0.00247
2140.51883,0.00299
2138.45866,0.00414
2136.39849,0.00471
2134.33831,0.00414
2132.27814,0.00326
2130.21797,0.00307
2128.15780,0.00351
2126.09762,0.00430
2124.03745,0.00513
2121.97728,0.00493
2119.91711,0.00358
2117.85694,0.00291
2115.79676,0.00398
2113.73659,0.00530
2111.67642,0.00569
2109.61625,0.00533
2107.55608,0.00473
2105.49590,0.00458
2103.43573,0.00491
2101.37556,0.00536
2099.31539,0.00543
2097.25521,0.00478
2095.19504,0.00412
2093.13487,0.00446
2091.07470,0.00551
2089.01453,0.00602
2086.95435,0.00584
2084.89418,0.00552
2082.83401,0.00499
2080.77384,0.00486
2078.71367,0.00552
2076.65349,0.00539
2074.59332,0.00431
2072.53315,0.00384
2070.47298,0.00393
2068.41281,0.00411
2066.35263,0.00465
2064.29246,0.00526
2062.23229,0.00532
2060.17212,0.00499
2058.11194,0.00442
2056.05177,0.00379
2053.99160,0.00420
2051.93143,0.00532
2049.87126,0.00501
2047.81108,0.00335
2045.75091,0.00274
2043.69074,0.00344
2041.63057,0.00364
2039.57040,0.00310
2037.51022,0.00312
2035.45005,0.00438
2033.38988,0.00624
2031.32971,0.00602
2029.26954,0.00358
2027.20936,0.00265
2025.14919,0.00282
2023.08902,0.00159
2021.02885,0.00000
2018.96867,0.00016
2016.90850,0.00297
2014.84833,0.00669
2012.78816,0.00819
2010.72799,0.00671
2008.66781,0.00449
2006.60764,0.00389
2004.54747,0.00432
2002.48730,0.00422
2000.42713,0.00370
1998.36695,0.00366
1996.30678,0.00430
1994.24661,0.00496
1992.18644,0.00486
1990.12626,0.00308
1988.06609,0.00104
1986.00592,0.00148
1983.94575,0.00349
1981.88558,0.00540
1979.82540,0.00704
1977.76523,0.00730
1975.70506,0.00629
1973.64489,0.00531
1971.58472,0.00468
1969.52454,0.00477
1967.46437,0.00552
1965.40420,0.00549
1963.34403,0.00407
1961.28386,0.00263
1959.22368,0.00266
1957.16351,0.00378
1955.10334,0.00414
1953.04317,0.00316
1950.98299,0.00193
1948.92282,0.00107
1946.86265,0.00113
1944.80248,0.00253
1942.74231,0.00392
1940.68213,0.00439
1938.62196,0.00467
1936.56179,0.00466
1934.50162,0.00438
1932.44145,0.00409
1930.38127,0.00354
1928.32110,0.00283
1926.26093,0.00230
1924.20076,0.00242
1922.14059,0.00311
1920.08041,0.00344
1918.02024,0.00330
1915.96007,0.00379
1913.89990,0.00508
1911.83972,0.00556
1909.77955,0.00458
1907.71938,0.00358
1905.65921,0.00360
1903.59904,0.00417
1901.53886,0.00485
1899.47869,0.00571
1897.41852,0.00642
1895.35835,0.00649
1893.29818,0.00591
1891.23800,0.00492
1889.17783,0.00403
1887.11766,0.00395
1885.05749,0.00437
1882.99731,0.00424
1880.93714,0.00361
1878.87697,0.00322
1876.81680,0.00314
1874.75663,0.00306
1872.69645,0.00293
1870.63628,0.00280
1868.57611,0.00282
1866.51594,0.00310
1864.45577,0.00345
1862.39559,0.00374
1860.33542,0.00387
1858.27525,0.00373
1856.21508,0.00356
1854.15491,0.00370
1852.09473,0.00389
1850.03456,0.00388
1847.97439,0.00379
1845.91422,0.00357
1843.85404,0.00328
1841.79387,0.00317
1839.73370,0.00312
1837.67353,0.00306
1835.61336,0.00314
1833.55318,0.00316
1831.49301,0.00293
1829.43284,0.00273
1827.37267,0.00287
1825.31250,0.00325
1823.25232,0.00364
1821.19215,0.00391
1819.13198,0.00390
1817.07181,0.00365
1815.01163,0.00341
1812.95146,0.00324
1810.89129,0.00304
1808.83112,0.00312
1806.77095,0.00361
1804.71077,0.00403
1802.65060,0.00400
1800.59043,0.00371
1798.53026,0.00356
1796.47009,0.00360
1794.40991,0.00357
1792.34974,0.00336
1790.28957,0.00332
1788.22940,0.00360
1786.16923,0.00390
1784.10905,0.00403
1782.04888,0.00400
1779.98871,0.00392
1777.92854,0.00374
1775.86836,0.00335
1773.80819,0.00292
1771.74802,0.00283
1769.68785,0.00327
1767.62768,0.00389
1765.56750,0.00402
1763.50733,0.00356
1761.44716,0.00327
1759.38699,0.00369
1757.32682,0.00429
1755.26664,0.00450
1753.20647,0.00430
1751.14630,0.00392
1749.08613,0.00372
1747.02596,0.00371
1744.96578,0.00377
1742.90561,0.00404
1740.84544,0.00439
1738.78527,0.00438
1736.72509,0.00415
1734.66492,0.00418
1732.60475,0.00453
1730.54458,0.00486
1728.48441,0.00505
1726.42423,0.00510
1724.36406,0.00504
1722.30389,0.00504
1720.24372,0.00490
1718.18355,0.00430
1716.12337,0.00380
1714.06320,0.00413
1712.00303,0.00463
1709.94286,0.00483
1707.88268,0.00491
1705.82251,0.00497
1703.76234,0.00496
1701.70217,0.00478
1699.64200,0.00442
1697.58182,0.00438
1695.52165,0.00524
1693.46148,0.00656
1691.40131,0.00742
1689.34114,0.00752
1687.28096,0.00723
1685.22079,0.00685
1683.16062,0.00679
1681.10045,0.00739
1679.04028,0.00811
1676.98010,0.00842
1674.91993,0.00854
1672.85976,0.00877
1670.79959,0.00897
1668.73941,0.00932
1666.67924,0.01001
1664.61907,0.01055
1662.55890,0.01066
1660.49873,0.01070
1658.43855,0.01091
1656.37838,0.01105
1654.31821,0.01091
1652.25804,0.01054
1650.19787,0.01017
1648.13769,0.00980
1646.07752,0.00967
1644.01735,0.01003
1641.95718,0.01044
1639.89701,0.01033
1637.83683,0.00956
1635.77666,0.00881
1633.71649,0.00906
1631.65632,0.00981
1629.59614,0.01011
1627.53597,0.00980
1625.47580,0.00932
1623.41563,0.00900
1621.35546,0.00885
1619.29528,0.00874
1617.23511,0.00854
1615.17494,0.00838
1613.11477,0.00841
1611.05460,0.00837
1608.99442,0.00823
1606.93425,0.00823
1604.87408,0.00837
1602.81391,0.00844
1600.75373,0.00832
1598.69356,0.00807
1596.63339,0.00773
1594.57322,0.00734
1592.51305,0.00709
1590.45287,0.00710
1588.39270,0.00719
1586.33253,0.00717
1584.27236,0.00706
1582.21219,0.00689
1580.15201,0.00657
1578.09184,0.00614
1576.03167,0.00592
1573.97150,0.00609
1571.91133,0.00628
1569.85115,0.00619
1567.79098,0.00617
1565.73081,0.00646
1563.67064,0.00675
1561.61046,0.00656
1559.55029,0.00559
1557.49012,0.00460
1555.42995,0.00478
1553.36978,0.00538
1551.30960,0.00551
1549.24943,0.00530
1547.18926,0.00514
1545.12909,0.00497
1543.06892,0.00458
1541.00874,0.00417
1538.94857,0.00438
1536.88840,0.00505
1534.82823,0.00539
1532.76805,0.00542
1530.70788,0.00556
1528.64771,0.00565
1526.58754,0.00535
1524.52737,0.00486
1522.46719,0.00433
1520.40702,0.00375
1518.34685,0.00346
1516.28668,0.00362
1514.22651,0.00384
1512.16633,0.00376
1510.10616,0.00328
1508.04599,0.00270
1505.98582,0.00274
1503.92565,0.00339
1501.86547,0.00387
1499.80530,0.00386
1497.74513,0.00361
1495.68496,0.00355
1493.62478,0.00365
1491.56461,0.00347
1489.50444,0.00314
1487.44427,0.00322
1485.38410,0.00371
1483.32392,0.00418
1481.26375,0.00435
1479.20358,0.00430
1477.14341,0.00424
1475.08324,0.00408
1473.02306,0.00382
1470.96289,0.00379
1468.90272,0.00401
1466.84255,0.00408
1464.78238,0.00397
1462.72220,0.00397
1460.66203,0.00393
1458.60186,0.00367
1456.54169,0.00347
1454.48151,0.00365
1452.42134,0.00397
1450.36117,0.00417
1448.30100,0.00426
1446.24083,0.00439
1444.18065,0.00467
1442.12048,0.00496
1440.06031,0.00486
1438.00014,0.00417
1435.93997,0.00352
1433.87979,0.00362
1431.81962,0.00416
1429.75945,0.00456
1427.69928,0.00470
1425.63910,0.00459
1423.57893,0.00437
1421.51876,0.00424
1419.45859,0.00421
1417.39842,0.00433
1415.33824,0.00458
1413.27807,0.00476
1411.21790,0.00476
1409.15773,0.00470
1407.09756,0.00459
1405.03738,0.00441
1402.97721,0.00422
1400.91704,0.00402
1398.85687,0.00386
1396.79670,0.00389
1394.73652,0.00409
1392.67635,0.00433
1390.61618,0.00438
1388.55601,0.00420
1386.49583,0.00421
1384.43566,0.00456
1382.37549,0.00487
1380.31532,0.00485
1378.25515,0.00458
1376.19497,0.00421
1374.13480,0.00404
1372.07463,0.00426
1370.01446,0.00454
1367.95429,0.00462
1365.89411,0.00451
1363.83394,0.00422
1361.77377,0.00397
1359.71360,0.00401
1357.65343,0.00420
1355.59325,0.00427
1353.53308,0.00426
1351.47291,0.00426
1349.41274,0.00429
1347.35256,0.00431
1345.29239,0.00429
1343.23222,0.00424
1341.17205,0.00416
1339.11188,0.00400
1337.05170,0.00387
1334.99153,0.00390
1332.93136,0.00400
1330.87119,0.00403
1328.81102,0.00396
1326.75084,0.00390
1324.69067,0.00400
1322.63050,0.00430
1320.57033,0.00456
1318.51015,0.00450
1316.44998,0.00428
1314.38981,0.00427
1312.32964,0.00437
1310.26947,0.00428
1308.20929,0.00421
1306.14912,0.00434
1304.08895,0.00439
1302.02878,0.00416
1299.96861,0.00386
1297.90843,0.00373
1295.84826,0.00380
1293.78809,0.00403
1291.72792,0.00443
1289.66775,0.00481
1287.60757,0.00492
1285.54740,0.00481
1283.48723,0.00463
1281.42706,0.00454
1279.36688,0.00455
1277.30671,0.00458
1275.24654,0.00462
1273.18637,0.00464
1271.12620,0.00456
1269.06602,0.00453
1267.00585,0.00453
1264.94568,0.00438
1262.88551,0.00421
1260.82534,0.00428
1258.76516,0.00446
1256.70499,0.00464
1254.64482,0.00469
1252.58465,0.00446
1250.52447,0.00415
1248.46430,0.00409
1246.40413,0.00417
1244.34396,0.00405
1242.28379,0.00388
1240.22361,0.00390
1238.16344,0.00386
1236.10327,0.00362
1234.04310,0.00349
1231.98293,0.00368
1229.92275,0.00387
1227.86258,0.00386
1225.80241,0.00378
1223.74224,0.00370
1221.68207,0.00361
1219.62189,0.00342
1217.56172,0.00315
1215.50155,0.00310
1213.44138,0.00316
1211.38120,0.00302
1209.32103,0.00277
1207.26086,0.00269
1205.20069,0.00281
1203.14052,0.00296
1201.08034,0.00301
1199.02017,0.00294
1196.96000,0.00289
1194.89983,0.00295
1192.83966,0.00299
1190.77948,0.00286
1188.71931,0.00273
1186.65914,0.00283
1184.59897,0.00317
1182.53880,0.00351
1180.47862,0.00352
1178.41845,0.00343
1176.35828,0.00375
1174.29811,0.00432
1172.23793,0.00470
1170.17776,0.00475
1168.11759,0.00474
1166.05742,0.00494
1163.99725,0.00518
1161.93707,0.00533
1159.87690,0.00546
1157.81673,0.00560
1155.75656,0.00578
1153.69639,0.00605
1151.63621,0.00656
1149.57604,0.00715
1147.51587,0.00756
1145.45570,0.00785
1143.39552,0.00835
1141.33535,0.00899
1139.27518,0.00943
1137.21501,0.00990
1135.15484,0.01058
1133.09466,0.01112
1131.03449,0.01156
1128.97432,0.01203
1126.91415,0.01240
1124.85398,0.01277
1122.79380,0.01342
1120.73363,0.01424
1118.67346,0.01479
1116.61329,0.01507
1114.55312,0.01541
1112.49294,0.01584
1110.43277,0.01634
1108.37260,0.01686
1106.31243,0.01724
1104.25225,0.01757
1102.19208,0.01802
1100.13191,0.01856
1098.07174,0.01902
1096.01157,0.01948
1093.95139,0.02006
1091.89122,0.02036
1089.83105,0.02025
1087.77088,0.02052
1085.71071,0.02119
1083.65053,0.02152
1081.59036,0.02160
1079.53019,0.02169
1077.47002,0.02177
1075.40985,0.02192
1073.34967,0.02183
1071.28950,0.02155
1069.22933,0.02170
1067.16916,0.02205
1065.10898,0.02213
1063.04881,0.02218
1060.98864,0.02221
1058.92847,0.02196
1056.86830,0.02151
1054.80812,0.02111
1052.74795,0.02066
1050.68778,0.01980
1048.62761,0.01873
1046.56744,0.01803
1044.50726,0.01766
1042.44709,0.01722
1040.38692,0.01669
1038.32675,0.01610
1036.26657,0.01522
1034.20640,0.01414
1032.14623,0.01329
1030.08606,0.01272
1028.02589,0.01227
1025.96571,0.01184
1023.90554,0.01146
1021.84537,0.01114
1019.78520,0.01085
1017.72503,0.01068
1015.66485,0.01053
1013.60468,0.01028
1011.54451,0.01010
1009.48434,0.01019
1007.42417,0.01057
1005.36399,0.01114
1003.30382,0.01185
1001.24365,0.01247
999.18348,0.01268
997.12330,0.01278
995.06313,0.01337
993.00296,0.01417
990.94279,0.01438
988.88262,0.01413
986.82244,0.01418
984.76227,0.01479
982.70210,0.01529
980.64193,0.01525
978.58176,0.01518
976.52158,0.01512
974.46141,0.01489
972.40124,0.01465
970.34107,0.01434
968.28089,0.01387
966.22072,0.01350
964.16055,0.01348
962.10038,0.01323
960.04021,0.01232
957.98003,0.01149
955.91986,0.01126
953.85969,0.01129
951.79952,0.01116
949.73935,0.01064
947.67917,0.00995
945.61900,0.00934
943.55883,0.00874
941.49866,0.00831
939.43849,0.00802
937.37831,0.00751
935.31814,0.00681
933.25797,0.00642
931.19780,0.00655
929.13762,0.00674
927.07745,0.00649
925.01728,0.00609
922.95711,0.00599
920.89694,0.00613
918.83676,0.00630
916.77659,0.00627
914.71642,0.00579
912.65625,0.00529
910.59608,0.00535
908.53590,0.00581
906.47573,0.00619
904.41556,0.00633
902.35539,0.00615
900.29522,0.00555
898.23504,0.00511
896.17487,0.00524
894.11470,0.00548
892.05453,0.00546
889.99435,0.00526
887.93418,0.00534
885.87401,0.00582
883.81384,0.00656
881.75367,0.00724
879.69349,0.00772
877.63332,0.00803
875.57315,0.00795
873.51298,0.00817
871.45281,0.00898
869.39263,0.00914
867.33246,0.00859
865.27229,0.00856
863.21212,0.00905
861.15194,0.00949
859.09177,0.00982
857.03160,0.00985
854.97143,0.00948
852.91126,0.00906
850.85108,0.00879
848.79091,0.00845
846.73074,0.00819
844.67057,0.00841
842.61040,0.00893
840.55022,0.00913
838.49005,0.00901
836.42988,0.00887
834.36971,0.00845
832.30954,0.00788
830.24936,0.00757
828.18919,0.00715
826.12902,0.00675
824.06885,0.00690
822.00867,0.00699
819.94850,0.00666
817.88833,0.00669
815.82816,0.00665
813.76799,0.00596
811.70781,0.00573
809.64764,0.00586
807.58747,0.00552
805.52730,0.00544
803.46713,0.00589
801.40695,0.00603
799.34678,0.00544
797.28661,0.00470
795.22644,0.00462
793.16627,0.00495
791.10609,0.00514
789.04592,0.00521
786.98575,0.00506
784.92558,0.00458
782.86540,0.00435
780.80523,0.00449
778.74506,0.00405
776.68489,0.00339
774.62472,0.00342
772.56454,0.00376
770.50437,0.00391
768.44420,0.00399
766.38403,0.00407
764.32386,0.00388
762.26368,0.00351
760.20351,0.00346
758.14334,0.00380
756.08317,0.00382
754.02299,0.00346
751.96282,0.00338
749.90265,0.00389
747.84248,0.00489
745.78231,0.00529
743.72213,0.00450
741.66196,0.00388
739.60179,0.00423
737.54162,0.00486
735.48145,0.00558
733.42127,0.00592
731.36110,0.00537
729.30093,0.00490
727.24076,0.00479
725.18059,0.00464
723.12041,0.00434
721.06024,0.00450
719.00007,0.00380
716.93990,0.00324
714.87972,0.00348
712.81955,0.00402
710.75938,0.00455
708.69921,0.00482
706.63904,0.00495
704.57886,0.00509
702.51869,0.00519
700.45852,0.00540
698.39835,0.00571
696.33818,0.00574
694.27800,0.00560
692.21783,0.00569
690.15766,0.00582
688.09749,0.00541
686.03731,0.00466
683.97714,0.00451
681.91697,0.00499
679.85680,0.00520
677.79663,0.00490
675.73645,0.00435
673.67628,0.00251
671.61611,0.00037
669.55594,0.00551
667.49577,0.00929
665.43559,0.00000
663.37542,0.00063
661.31525,0.00360
659.25508,0.00528
657.19491,0.00640
655.13473,0.00614
653.07456,0.00474
651.01439,0.00446
648.95422,0.00620
646.89404,0.00781
644.83387,0.00782
642.77370,0.00650
640.71353,0.00566
638.65336,0.00530
636.59318,0.00412
634.53301,0.00297
632.47284,0.00328
630.41267,0.00445
628.35250,0.00540
626.29232,0.00612
624.23215,0.00661
622.17198,0.00498
620.11181,0.00164
618.05164,0.00000
615.99146,0.00101
613.93129,0.00268
611.87112,0.00377
609.81095,0.00370
607.75077,0.00295
605.69060,0.00232
603.63043,0.00084
601.57026,-0.00038
599.51009,0.00000
