3996.73391,0.00046
3994.67373,0.00050
3992.61356,0.00050
3990.55339,0.00063
3988.49322,0.00066
3986.43305,0.00047
3984.37287,0.00023
3982.31270,0.00013
3980.25253,0.00013
3978.19236,0.00010
3976.13219,0.00006
3974.07201,0.00005
3972.01184,0.00003
3969.95167,0.00000
3967.89150,0.00002
3965.83133,0.00015
3963.77115,0.00037
3961.71098,0.00053
3959.65081,0.00051
3957.59064,0.00044
3955.53046,0.00050
3953.47029,0.00062
3951.41012,0.00064
3949.34995,0.00054
3947.28978,0.00048
3945.22960,0.00073
3943.16943,0.00108
3941.10926,0.00107
3939.04909,0.00070
3936.98892,0.00041
3934.92874,0.00040
3932.86857,0.00065
3930.80840,0.00098
3928.74823,0.00117
3926.68805,0.00116
3924.62788,0.00100
3922.56771,0.00089
3920.50754,0.00096
3918.44737,0.00107
3916.38719,0.00108
3914.32702,0.00102
3912.26685,0.00098
3910.20668,0.00084
3908.14651,0.00061
3906.08633,0.00055
3904.02616,0.00066
3901.96599,0.00084
3899.90582,0.00103
3897.84565,0.00099
3895.78547,0.00090
3893.72530,0.00118
3891.66513,0.00156
3889.60496,0.00142
3887.54478,0.00095
3885.48461,0.00071
3883.42444,0.00083
3881.36427,0.00102
3879.30410,0.00094
3877.24392,0.00065
3875.18375,0.00055
3873.12358,0.00077
3871.06341,0.00101
3869.00324,0.00113
3866.94306,0.00121
3864.88289,0.00122
3862.82272,0.00104
3860.76255,0.00072
3858.70237,0.00036
3856.64220,0.00000
3854.58203,0.00001
3852.52186,0.00047
3850.46169,0.00072
3848.40151,0.00056
3846.34134,0.00051
3844.28117,0.00060
3842.22100,0.00046
3840.16083,0.00017
3838.10065,0.00007
3836.04048,0.00017
3833.98031,0.00028
3831.92014,0.00031
3829.85997,0.00034
3827.79979,0.00038
3825.73962,0.00041
3823.67945,0.00041
3821.61928,0.00043
3819.55910,0.00037
3817.49893,0.00030
3815.43876,0.00050
3813.37859,0.00075
3811.31842,0.00070
3809.25824,0.00056
3807.19807,0.00043
3805.13790,0.00013
3803.07773,0.00000
3801.01756,0.00036
3798.95738,0.00079
3796.89721,0.00088
3794.83704,0.00092
3792.77687,0.00099
3790.71670,0.00101
3788.65652,0.00110
3786.59635,0.00142
3784.53618,0.00183
3782.47601,0.00200
3780.41583,0.00186
3778.35566,0.00157
3776.29549,0.00139
3774.23532,0.00133
3772.17515,0.00127
3770.11497,0.00117
3768.05480,0.00096
3765.99463,0.00067
3763.93446,0.00045
3761.87429,0.00035
3759.81411,0.00040
3757.75394,0.00040
3755.69377,0.00031
3753.63360,0.00035
3751.57342,0.00040
3749.51325,0.00030
3747.45308,0.00041
3745.39291,0.00076
3743.33274,0.00106
3741.27256,0.00096
3739.21239,0.00066
3737.15222,0.00065
3735.09205,0.00089
3733.03188,0.00088
3730.97170,0.00072
3728.91153,0.00078
3726.85136,0.00094
3724.79119,0.00104
3722.73102,0.00109
3720.67084,0.00111
3718.61067,0.00099
3716.55050,0.00074
3714.49033,0.00036
3712.43015,0.00000
3710.36998,-0.00000
3708.30981,0.00031
3706.24964,0.00054
3704.18947,0.00061
3702.12929,0.00074
3700.06912,0.00083
3698.00895,0.00084
3695.94878,0.00098
3693.88861,0.00111
3691.82843,0.00099
3689.76826,0.00062
3687.70809,0.00037
3685.64792,0.00053
3683.58775,0.00087
3681.52757,0.00110
3679.46740,0.00121
3677.40723,0.00130
3675.34706,0.00130
3673.28688,0.00111
3671.22671,0.00100
3669.16654,0.00125
3667.10637,0.00163
3665.04620,0.00182
3662.98602,0.00189
3660.92585,0.00184
3658.86568,0.00161
3656.80551,0.00145
3654.74534,0.00155
3652.68516,0.00183
3650.62499,0.00227
3648.56482,0.00276
3646.50465,0.00315
3644.44447,0.00314
3642.38430,0.00291
3640.32413,0.00270
3638.26396,0.00261
3636.20379,0.00268
3634.14361,0.00297
3632.08344,0.00353
3630.02327,0.00429
3627.96310,0.00480
3625.90293,0.00473
3623.84275,0.00451
3621.78258,0.00444
3619.72241,0.00443
3617.66224,0.00433
3615.60207,0.00418
3613.54189,0.00421
3611.48172,0.00450
3609.42155,0.00504
3607.36138,0.00544
3605.30120,0.00547
3603.24103,0.00552
3601.18086,0.00590
3599.12069,0.00646
3597.06052,0.00689
3595.00034,0.00712
3592.94017,0.00731
3590.88000,0.00754
3588.81983,0.00773
3586.75966,0.00782
3584.69948,0.00776
3582.63931,0.00765
3580.57914,0.00764
3578.51897,0.00773
3576.45879,0.00799
3574.39862,0.00849
3572.33845,0.00897
3570.27828,0.00933
3568.21811,0.00974
3566.15793,0.01001
3564.09776,0.00983
3562.03759,0.00961
3559.97742,0.00971
3557.91725,0.00986
3555.85707,0.00991
3553.79690,0.01004
3551.73673,0.01019
3549.67656,0.01026
3547.61639,0.01046
3545.55621,0.01082
3543.49604,0.01103
3541.43587,0.01116
3539.37570,0.01158
3537.31552,0.01205
3535.25535,0.01215
3533.19518,0.01215
3531.13501,0.01237
3529.07484,0.01265
3527.01466,0.01290
3524.95449,0.01303
3522.89432,0.01291
3520.83415,0.01272
3518.77398,0.01278
3516.71380,0.01305
3514.65363,0.01329
3512.59346,0.01360
3510.53329,0.01409
3508.47312,0.01447
3506.41294,0.01464
3504.35277,0.01482
3502.29260,0.01500
3500.23243,0.01505
3498.17225,0.01518
3496.11208,0.01556
3494.05191,0.01598
3491.99174,0.01611
3489.93157,0.01606
3487.87139,0.01612
3485.81122,0.01638
3483.75105,0.01677
3481.69088,0.01700
3479.63071,0.01686
3477.57053,0.01663
3475.51036,0.01665
3473.45019,0.01696
3471.39002,0.01737
3469.32984,0.01757
3467.26967,0.01760
3465.20950,0.01766
3463.14933,0.01779
3461.08916,0.01799
3459.02898,0.01818
3456.96881,0.01832
3454.90864,0.01854
3452.84847,0.01881
3450.78830,0.01897
3448.72812,0.01905
3446.66795,0.01913
3444.60778,0.01913
3442.54761,0.01919
3440.48744,0.01940
3438.42726,0.01963
3436.36709,0.01990
3434.30692,0.02030
3432.24675,0.02057
3430.18657,0.02050
3428.12640,0.02029
3426.06623,0.02039
3424.00606,0.02082
3421.94589,0.02117
3419.88571,0.02122
3417.82554,0.02117
3415.76537,0.02122
3413.70520,0.02131
3411.64503,0.02141
3409.58485,0.02158
3407.52468,0.02171
3405.46451,0.02184
3403.40434,0.02194
3401.34416,0.02193
3399.28399,0.02175
3397.22382,0.02183
3395.16365,0.02194
3393.10348,0.02210
3391.04330,0.02221
3388.98313,0.02230
3386.92296,0.02259
3384.86279,0.02295
3382.80262,0.02315
3380.74244,0.02328
3378.68227,0.02346
3376.62210,0.02355
3374.56193,0.02351
3372.50176,0.02344
3370.44158,0.02338
3368.38141,0.02335
3366.32124,0.02345
3364.26107,0.02359
3362.20089,0.02378
3360.14072,0.02406
3358.08055,0.02415
3356.02038,0.02405
3353.96021,0.02405
3351.90003,0.02405
3349.83986,0.02402
3347.77969,0.02419
3345.71952,0.02457
3343.65935,0.02478
3341.59917,0.02471
3339.53900,0.02474
3337.47883,0.02493
3335.41866,0.02506
3333.35849,0.02511
3331.29831,0.02519
3329.23814,0.02529
3327.17797,0.02530
3325.11780,0.02520
3323.05762,0.02512
3320.99745,0.02516
3318.93728,0.02529
3316.87711,0.02521
3314.81694,0.02490
3312.75676,0.02483
3310.69659,0.02514
3308.63642,0.02547
3306.57625,0.02564
3304.51608,0.02574
3302.45590,0.02583
3300.39573,0.02588
3298.33556,0.02594
3296.27539,0.02601
3294.21521,0.02601
3292.15504,0.02603
3290.09487,0.02613
3288.03470,0.02622
3285.97453,0.02623
3283.91435,0.02626
3281.85418,0.02633
3279.79401,0.02634
3277.73384,0.02629
3275.67367,0.02628
3273.61349,0.02634
3271.55332,0.02646
3269.49315,0.02653
3267.43298,0.02656
3265.37281,0.02652
3263.31263,0.02632
3261.25246,0.02609
3259.19229,0.02606
3257.13212,0.02623
3255.07194,0.02643
3253.01177,0.02658
3250.95160,0.02664
3248.89143,0.02656
3246.83126,0.02654
3244.77108,0.02667
3242.71091,0.02672
3240.65074,0.02659
3238.59057,0.02642
3236.53040,0.02641
3234.47022,0.02656
3232.41005,0.02662
3230.34988,0.02656
3228.28971,0.02649
3226.22954,0.02648
3224.16936,0.02655
3222.10919,0.02658
3220.04902,0.02654
3217.98885,0.02639
3215.92867,0.02616
3213.86850,0.02610
3211.80833,0.02628
3209.74816,0.02649
3207.68799,0.02649
3205.62781,0.02636
3203.56764,0.02632
3201.50747,0.02624
3199.44730,0.02600
3197.38713,0.02582
3195.32695,0.02590
3193.26678,0.02606
3191.20661,0.02606
3189.14644,0.02595
3187.08626,0.02592
3185.02609,0.02594
3182.96592,0.02597
3180.90575,0.02596
3178.84558,0.02590
3176.78540,0.02599
3174.72523,0.02622
3172.66506,0.02631
3170.60489,0.02609
3168.54472,0.02580
3166.48454,0.02566
3164.42437,0.02551
3162.36420,0.02532
3160.30403,0.02530
3158.24386,0.02536
3156.18368,0.02537
3154.12351,0.02535
3152.06334,0.02523
3150.00317,0.02510
3147.94299,0.02515
3145.88282,0.02525
3143.82265,0.02525
3141.76248,0.02509
3139.70231,0.02490
3137.64213,0.02478
3135.58196,0.02475
3133.52179,0.02480
3131.46162,0.02475
3129.40145,0.02455
3127.34127,0.02439
3125.28110,0.02437
3123.22093,0.02433
3121.16076,0.02423
3119.10058,0.02419
3117.04041,0.02418
3114.98024,0.02411
3112.92007,0.02399
3110.85990,0.02381
3108.79972,0.02366
3106.73955,0.02369
3104.67938,0.02379
3102.61921,0.02374
3100.55904,0.02356
3098.49886,0.02335
3096.43869,0.02319
3094.37852,0.02324
3092.31835,0.02338
3090.25818,0.02328
3088.19800,0.02296
3086.13783,0.02267
3084.07766,0.02258
3082.01749,0.02268
3079.95731,0.02277
3077.89714,0.02272
3075.83697,0.02262
3073.77680,0.02256
3071.71663,0.02250
3069.65645,0.02236
3067.59628,0.02221
3065.53611,0.02219
3063.47594,0.02225
3061.41577,0.02236
3059.35559,0.02248
3057.29542,0.02242
3055.23525,0.02219
3053.17508,0.02199
3051.11491,0.02183
3049.05473,0.02163
3046.99456,0.02155
3044.93439,0.02159
3042.87422,0.02154
3040.81404,0.02142
3038.75387,0.02123
3036.69370,0.02096
3034.63353,0.02073
3032.57336,0.02064
3030.51318,0.02064
3028.45301,0.02058
3026.39284,0.02045
3024.33267,0.02032
3022.27250,0.02025
3020.21232,0.02018
3018.15215,0.02000
3016.09198,0.01979
3014.03181,0.01966
3011.97163,0.01966
3009.91146,0.01973
3007.85129,0.01966
3005.79112,0.01944
3003.73095,0.01930
3001.67077,0.01922
2999.61060,0.01910
2997.55043,0.01901
2995.49026,0.01898
2993.43009,0.01888
2991.36991,0.01881
2989.30974,0.01891
2987.24957,0.01906
2985.18940,0.01911
2983.12923,0.01915
2981.06905,0.01932
2979.00888,0.01939
2976.94871,0.01921
2974.88854,0.01908
2972.82836,0.01916
2970.76819,0.01924
2968.70802,0.01927
2966.64785,0.01940
2964.58768,0.01954
2962.52750,0.01948
2960.46733,0.01933
2958.40716,0.01931
2956.34699,0.01937
2954.28682,0.01948
2952.22664,0.01958
2950.16647,0.01948
2948.10630,0.01925
2946.04613,0.01918
2943.98596,0.01939
2941.92578,0.01971
2939.86561,0.01989
2937.80544,0.01989
2935.74527,0.01982
2933.68509,0.01983
2931.62492,0.01999
2929.56475,0.02009
2927.50458,0.02012
2925.44441,0.02019
2923.38423,0.02025
2921.32406,0.02024
2919.26389,0.02016
2917.20372,0.02002
2915.14355,0.01978
2913.08337,0.01939
2911.02320,0.01903
2908.96303,0.01889
2906.90286,0.01891
2904.84268,0.01885
2902.78251,0.01871
2900.72234,0.01861
2898.66217,0.01850
2896.60200,0.01828
2894.54182,0.01805
2892.48165,0.01783
2890.42148,0.01767
2888.36131,0.01768
2886.30114,0.01779
2884.24096,0.01787
2882.18079,0.01781
2880.12062,0.01763
2878.06045,0.01747
2876.00028,0.01746
2873.94010,0.01753
2871.87993,0.01748
2869.81976,0.01731
2867.75959,0.01717
2865.69941,0.01698
2863.63924,0.01681
2861.57907,0.01681
2859.51890,0.01686
2857.45873,0.01682
2855.39855,0.01672
2853.33838,0.01653
2851.27821,0.01629
2849.21804,0.01615
2847.15787,0.01612
2845.09769,0.01598
2843.03752,0.01566
2840.97735,0.01527
2838.91718,0.01499
2836.85700,0.01490
2834.79683,0.01482
2832.73666,0.01454
2830.67649,0.01417
2828.61632,0.01399
2826.55614,0.01401
2824.49597,0.01411
2822.43580,0.01412
2820.37563,0.01405
2818.31546,0.01403
2816.25528,0.01393
2814.19511,0.01375
2812.13494,0.01364
2810.07477,0.01356
2808.01460,0.01355
2805.95442,0.01354
2803.89425,0.01338
2801.83408,0.01319
2799.77391,0.01309
2797.71373,0.01307
2795.65356,0.01308
2793.59339,0.01304
2791.53322,0.01294
2789.47305,0.01283
2787.41287,0.01270
2785.35270,0.01256
2783.29253,0.01238
2781.23236,0.01222
2779.17219,0.01215
2777.11201,0.01208
2775.05184,0.01191
2772.99167,0.01171
2770.93150,0.01164
2768.87133,0.01169
2766.81115,0.01174
2764.75098,0.01170
2762.69081,0.01156
2760.63064,0.01143
2758.57046,0.01136
2756.51029,0.01138
2754.45012,0.01135
2752.38995,0.01118
2750.32978,0.01106
2748.26960,0.01107
2746.20943,0.01101
2744.14926,0.01092
2742.08909,0.01090
2740.02892,0.01087
2737.96874,0.01084
2735.90857,0.01082
2733.84840,0.01074
2731.78823,0.01061
2729.72805,0.01051
2727.66788,0.01041
2725.60771,0.01030
2723.54754,0.01020
2721.48737,0.01009
2719.42719,0.01004
2717.36702,0.01002
2715.30685,0.00996
2713.24668,0.00996
2711.18651,0.00989
2709.12633,0.00976
2707.06616,0.00978
2705.00599,0.00989
2702.94582,0.00980
2700.88565,0.00960
2698.82547,0.00946
2696.76530,0.00935
2694.70513,0.00937
2692.64496,0.00944
2690.58478,0.00939
2688.52461,0.00935
2686.46444,0.00933
2684.40427,0.00927
2682.34410,0.00925
2680.28392,0.00929
2678.22375,0.00917
2676.16358,0.00896
2674.10341,0.00885
2672.04324,0.00880
2669.98306,0.00880
2667.92289,0.00894
2665.86272,0.00905
2663.80255,0.00888
2661.74238,0.00863
2659.68220,0.00853
2657.62203,0.00852
2655.56186,0.00857
2653.50169,0.00860
2651.44151,0.00846
2649.38134,0.00826
2647.32117,0.00815
2645.26100,0.00808
2643.20083,0.00799
2641.14065,0.00791
2639.08048,0.00796
2637.02031,0.00811
2634.96014,0.00816
2632.89997,0.00806
2630.83979,0.00790
2628.77962,0.00767
2626.71945,0.00749
2624.65928,0.00746
2622.59910,0.00741
2620.53893,0.00728
2618.47876,0.00718
2616.41859,0.00720
2614.35842,0.00731
2612.29824,0.00739
2610.23807,0.00732
2608.17790,0.00728
2606.11773,0.00735
2604.05756,0.00716
2601.99738,0.00675
2599.93721,0.00657
2597.87704,0.00663
2595.81687,0.00678
2593.75670,0.00698
2591.69652,0.00705
2589.63635,0.00685
2587.57618,0.00658
2585.51601,0.00643
2583.45583,0.00646
2581.39566,0.00662
2579.33549,0.00685
2577.27532,0.00712
2575.21515,0.00723
2573.15497,0.00689
2571.09480,0.00650
2569.03463,0.00656
2566.97446,0.00673
2564.91429,0.00673
2562.85411,0.00676
2560.79394,0.00676
2558.73377,0.00677
2556.67360,0.00706
2554.61342,0.00735
2552.55325,0.00732
2550.49308,0.00718
2548.43291,0.00704
2546.37274,0.00689
2544.31256,0.00677
2542.25239,0.00658
2540.19222,0.00639
2538.13205,0.00650
2536.07188,0.00679
2534.01170,0.00680
2531.95153,0.00664
2529.89136,0.00659
2527.83119,0.00654
2525.77102,0.00658
2523.71084,0.00681
2521.65067,0.00698
2519.59050,0.00695
2517.53033,0.00685
2515.47015,0.00689
2513.40998,0.00711
2511.34981,0.00726
2509.28964,0.00716
2507.22947,0.00702
2505.16929,0.00691
2503.10912,0.00665
2501.04895,0.00641
2498.98878,0.00655
2496.92861,0.00690
2494.86843,0.00701
2492.80826,0.00685
2490.74809,0.00680
2488.68792,0.00701
2486.62775,0.00733
2484.56757,0.00754
2482.50740,0.00746
2480.44723,0.00735
2478.38706,0.00732
2476.32688,0.00715
2474.26671,0.00692
2472.20654,0.00692
2470.14637,0.00730
2468.08620,0.00779
2466.02602,0.00795
2463.96585,0.00787
2461.90568,0.00780
2459.84551,0.00779
2457.78534,0.00781
2455.72516,0.00766
2453.66499,0.00741
2451.60482,0.00733
2449.54465,0.00719
2447.48447,0.00693
2445.42430,0.00698
2443.36413,0.00734
2441.30396,0.00764
2439.24379,0.00754
2437.18361,0.00721
2435.12344,0.00720
2433.06327,0.00738
2431.00310,0.00732
2428.94293,0.00709
2426.88275,0.00696
2424.82258,0.00703
2422.76241,0.00733
2420.70224,0.00759
2418.64207,0.00752
2416.58189,0.00731
2414.52172,0.00724
2412.46155,0.00726
2410.40138,0.00730
2408.34120,0.00734
2406.28103,0.00729
2404.22086,0.00712
2402.16069,0.00705
2400.10052,0.00717
2398.04034,0.00648
2395.98017,0.00648
2393.92000,0.00689
2391.85983,0.00739
2389.79966,0.00793
2387.73948,0.00841
2385.67931,0.00881
2383.61914,0.00908
2381.55897,0.00907
2379.49880,0.00886
2377.43862,0.00867
2375.37845,0.00844
2373.31828,0.00819
2371.25811,0.00829
2369.19793,0.00881
2367.13776,0.00961
2365.07759,0.01076
2363.01742,0.01156
2360.95725,0.01113
2358.89707,0.01043
2356.83690,0.01116
2354.77673,0.01250
2352.71656,0.01265
2350.65639,0.01254
2348.59621,0.01256
2346.53604,0.01188
2344.47587,0.01053
2342.41570,0.00968
2340.35552,0.00983
2338.29535,0.01049
2336.23518,0.01118
2334.17501,0.01158
2332.11484,0.01146
2330.05466,0.01142
2327.99449,0.01178
2325.93432,0.01202
2323.87415,0.01160
2321.81398,0.01075
2319.75380,0.01013
2317.69363,0.00982
2315.63346,0.00967
2313.57329,0.00957
2311.51312,0.00958
2309.45294,0.00965
2307.39277,0.00943
2305.33260,0.00896
2303.27243,0.00857
2301.21225,0.00835
2299.15208,0.00835
2297.09191,0.00862
2295.03174,0.00896
2292.97157,0.00903
2290.91139,0.00878
2288.85122,0.00840
2286.79105,0.00784
2284.73088,0.00706
2282.67071,0.00635
2280.61053,0.00602
2278.55036,0.00611
2276.49019,0.00620
2274.43002,0.00598
2272.36984,0.00569
2270.30967,0.00573
2268.24950,0.00589
2266.18933,0.00581
2264.12916,0.00565
2262.06898,0.00581
2260.00881,0.00621
2257.94864,0.00637
2255.88847,0.00620
2253.82830,0.00606
2251.76812,0.00597
2249.70795,0.00578
2247.64778,0.00616
2245.58761,0.00631
2243.52744,0.00587
2241.46726,0.00537
2239.40709,0.00512
2237.34692,0.00505
2235.28675,0.00516
2233.22657,0.00512
2231.16640,0.00472
2229.10623,0.00466
2227.04606,0.00502
2224.98589,0.00505
2222.92571,0.00467
2220.86554,0.00441
2218.80537,0.00447
2216.74520,0.00487
2214.68503,0.00523
2212.62485,0.00485
2210.56468,0.00404
2208.50451,0.00374
2206.44434,0.00402
2204.38417,0.00424
2202.32399,0.00438
2200.26382,0.00453
2198.20365,0.00423
2196.14348,0.00368
2194.08330,0.00374
2192.02313,0.00403
2189.96296,0.00393
2187.90279,0.00420
2185.84262,0.00503
2183.78244,0.00537
2181.72227,0.00492
2179.66210,0.00444
2177.60193,0.00362
2175.54176,0.00301
2173.48158,0.00376
2171.42141,0.00497
2169.36124,0.00550
2167.30107,0.00506
2165.24089,0.00457
2163.18072,0.00439
2161.12055,0.00249
2159.06038,0.00000
2157.00021,0.00059
2154.94003,0.00281
2152.87986,0.00353
2150.81969,0.00252
2148.75952,0.00183
2146.69935,0.00274
2144.63917,0.00385
2142.57900,0.00401
2140.51883,0.00367
2138.45866,0.00317
2136.39849,0.00283
2134.33831,0.00278
2132.27814,0.00278
2130.21797,0.00303
2128.15780,0.00327
2126.09762,0.00323
2124.03745,0.00299
2121.97728,0.00256
2119.91711,0.00228
2117.85694,0.00240
2115.79676,0.00283
2113.73659,0.00334
2111.67642,0.00365
2109.61625,0.00372
2107.55608,0.00348
2105.49590,0.00309
2103.43573,0.00300
2101.37556,0.00308
2099.31539,0.00336
2097.25521,0.00339
2095.19504,0.00319
2093.13487,0.00278
2091.07470,0.00216
2089.01453,0.00183
2086.95435,0.00208
2084.89418,0.00245
2082.83401,0.00242
2080.77384,0.00225
2078.71367,0.00253
2076.65349,0.00312
2074.59332,0.00317
2072.53315,0.00264
2070.47298,0.00228
2068.41281,0.00250
2066.35263,0.00298
2064.29246,0.00323
2062.23229,0.00313
2060.17212,0.00291
2058.11194,0.00285
2056.05177,0.00269
2053.99160,0.00254
2051.93143,0.00307
2049.87126,0.00347
2047.81108,0.00266
2045.75091,0.00167
2043.69074,0.00131
2041.63057,0.00118
2039.57040,0.00130
2037.51022,0.00168
2035.45005,0.00205
2033.38988,0.00247
2031.32971,0.00286
2029.26954,0.00273
2027.20936,0.00161
2025.14919,0.00056
2023.08902,0.00060
2021.02885,0.00074
2018.96867,0.00062
2016.90850,0.00089
2014.84833,0.00153
2012.78816,0.00223
2010.72799,0.00242
2008.66781,0.00181
2006.60764,0.00138
2004.54747,0.00193
2002.48730,0.00236
2000.42713,0.00165
1998.36695,0.00062
1996.30678,0.00041
1994.24661,0.00089
1992.18644,0.00118
1990.12626,0.00079
1988.06609,0.00024
1986.00592,0.00038
1983.94575,0.00115
1981.88558,0.00193
1979.82540,0.00234
1977.76523,0.00246
1975.70506,0.00295
1973.64489,0.00307
1971.58472,0.00192
1969.52454,0.00097
1967.46437,0.00104
1965.40420,0.00097
1963.34403,0.00063
1961.28386,0.00070
1959.22368,0.00080
1957.16351,0.00076
1955.10334,0.00080
1953.04317,0.00063
1950.98299,0.00032
1948.92282,0.00030
1946.86265,0.00061
1944.80248,0.00085
1942.74231,0.00084
1940.68213,0.00057
1938.62196,0.00017
1936.56179,0.00000
1934.50162,0.00022
1932.44145,0.00049
1930.38127,0.00049
1928.32110,0.00039
1926.26093,0.00064
1924.20076,0.00116
1922.14059,0.00132
1920.08041,0.00092
1918.02024,0.00048
1915.96007,0.00037
1913.89990,0.00057
1911.83972,0.00077
1909.77955,0.00054
1907.71938,0.00005
1905.65921,-0.00011
1903.59904,0.00015
1901.53886,0.00050
1899.47869,0.00073
1897.41852,0.00077
1895.35835,0.00072
1893.29818,0.00066
1891.23800,0.00060
1889.17783,0.00058
1887.11766,0.00066
1885.05749,0.00074
1882.99731,0.00067
1880.93714,0.00055
1878.87697,0.00058
1876.81680,0.00073
1874.75663,0.00091
1872.69645,0.00100
1870.63628,0.00086
1868.57611,0.00052
1866.51594,0.00018
1864.45577,0.00017
1862.39559,0.00051
1860.33542,0.00073
1858.27525,0.00053
1856.21508,0.00037
1854.15491,0.00057
1852.09473,0.00077
1850.03456,0.00083
1847.97439,0.00100
1845.91422,0.00129
1843.85404,0.00142
1841.79387,0.00120
1839.73370,0.00076
1837.67353,0.00053
1835.61336,0.00063
1833.55318,0.00084
1831.49301,0.00104
1829.43284,0.00114
1827.37267,0.00115
1825.31250,0.00125
1823.25232,0.00139
1821.19215,0.00123
1819.13198,0.00084
1817.07181,0.00061
1815.01163,0.00064
1812.95146,0.00068
1810.89129,0.00067
1808.83112,0.00067
1806.77095,0.00061
1804.71077,0.00053
1802.65060,0.00051
1800.59043,0.00056
1798.53026,0.00067
1796.47009,0.00085
1794.40991,0.00095
1792.34974,0.00087
1790.28957,0.00072
1788.22940,0.00074
1786.16923,0.00089
1784.10905,0.00104
1782.04888,0.00116
1779.98871,0.00116
1777.92854,0.00106
1775.86836,0.00104
1773.80819,0.00113
1771.74802,0.00118
1769.68785,0.00107
1767.62768,0.00094
1765.56750,0.00087
1763.50733,0.00098
1761.44716,0.00133
1759.38699,0.00168
1757.32682,0.00192
1755.26664,0.00210
1753.20647,0.00244
1751.14630,0.00296
1749.08613,0.00319
1747.02596,0.00304
1744.96578,0.00289
1742.90561,0.00278
1740.84544,0.00265
1738.78527,0.00263
1736.72509,0.00275
1734.66492,0.00306
1732.60475,0.00337
1730.54458,0.00336
1728.48441,0.00307
1726.42423,0.00284
1724.36406,0.00276
1722.30389,0.00268
1720.24372,0.00267
1718.18355,0.00302
1716.12337,0.00338
1714.06320,0.00326
1712.00303,0.00290
1709.94286,0.00276
1707.88268,0.00289
1705.82251,0.00309
1703.76234,0.00324
1701.70217,0.00349
1699.64200,0.00395
1697.58182,0.00451
1695.52165,0.00505
1693.46148,0.00550
1691.40131,0.00593
1689.34114,0.00652
1687.28096,0.00719
1685.22079,0.00814
1683.16062,0.00931
1681.10045,0.01006
1679.04028,0.01035
1676.98010,0.01069
1674.91993,0.01139
1672.85976,0.01225
1670.79959,0.01317
1668.73941,0.01402
1666.67924,0.01447
1664.61907,0.01476
1662.55890,0.01517
1660.49873,0.01550
1658.43855,0.01569
1656.37838,0.01594
1654.31821,0.01634
1652.25804,0.01656
1650.19787,0.01640
1648.13769,0.01614
1646.07752,0.01605
1644.01735,0.01584
1641.95718,0.01542
1639.89701,0.01505
1637.83683,0.01496
1635.77666,0.01504
1633.71649,0.01482
1631.65632,0.01427
1629.59614,0.01377
1627.53597,0.01351
1625.47580,0.01336
1623.41563,0.01312
1621.35546,0.01264
1619.29528,0.01222
1617.23511,0.01216
1615.17494,0.01214
1613.11477,0.01191
1611.05460,0.01174
1608.99442,0.01173
1606.93425,0.01168
1604.87408,0.01153
1602.81391,0.01131
1600.75373,0.01104
1598.69356,0.01081
1596.63339,0.01074
1594.57322,0.01069
1592.51305,0.01046
1590.45287,0.01010
1588.39270,0.00976
1586.33253,0.00948
1584.27236,0.00920
1582.21219,0.00888
1580.15201,0.00858
1578.09184,0.00835
1576.03167,0.00813
1573.97150,0.00777
1571.91133,0.00744
1569.85115,0.00740
1567.79098,0.00751
1565.73081,0.00750
1563.67064,0.00742
1561.61046,0.00756
1559.55029,0.00793
1557.49012,0.00783
1555.42995,0.00732
1553.36978,0.00698
1551.30960,0.00691
1549.24943,0.00681
1547.18926,0.00664
1545.12909,0.00657
1543.06892,0.00641
1541.00874,0.00595
1538.94857,0.00547
1536.88840,0.00513
1534.82823,0.00493
1532.76805,0.00485
1530.70788,0.00471
1528.64771,0.00461
1526.58754,0.00458
1524.52737,0.00442
1522.46719,0.00413
1520.40702,0.00388
1518.34685,0.00390
1516.28668,0.00399
1514.22651,0.00373
1512.16633,0.00343
1510.10616,0.00342
1508.04599,0.00334
1505.98582,0.00280
1503.92565,0.00226
1501.86547,0.00201
1499.80530,0.00203
1497.74513,0.00214
1495.68496,0.00209
1493.62478,0.00200
1491.56461,0.00217
1489.50444,0.00246
1487.44427,0.00241
1485.38410,0.00207
1483.32392,0.00186
1481.26375,0.00185
1479.20358,0.00191
1477.14341,0.00212
1475.08324,0.00257
1473.02306,0.00302
1470.96289,0.00317
1468.90272,0.00316
1466.84255,0.00334
1464.78238,0.00373
1462.72220,0.00394
1460.66203,0.00404
1458.60186,0.00433
1456.54169,0.00461
1454.48151,0.00449
1452.42134,0.00422
1450.36117,0.00421
1448.30100,0.00438
1446.24083,0.00440
1444.18065,0.00424
1442.12048,0.00410
1440.06031,0.00409
1438.00014,0.00424
1435.93997,0.00435
1433.87979,0.00421
1431.81962,0.00404
1429.75945,0.00413
1427.69928,0.00439
1425.63910,0.00477
1423.57893,0.00511
1421.51876,0.00535
1419.45859,0.00562
1417.39842,0.00581
1415.33824,0.00566
1413.27807,0.00539
1411.21790,0.00524
1409.15773,0.00519
1407.09756,0.00520
1405.03738,0.00515
1402.97721,0.00504
1400.91704,0.00506
1398.85687,0.00524
1396.79670,0.00532
1394.73652,0.00517
1392.67635,0.00481
1390.61618,0.00453
1388.55601,0.00456
1386.49583,0.00469
1384.43566,0.00465
1382.37549,0.00452
1380.31532,0.00452
1378.25515,0.00463
1376.19497,0.00478
1374.13480,0.00486
1372.07463,0.00476
1370.01446,0.00459
1367.95429,0.00448
1365.89411,0.00451
1363.83394,0.00462
1361.77377,0.00456
1359.71360,0.00438
1357.65343,0.00430
1355.59325,0.00428
1353.53308,0.00420
1351.47291,0.00411
1349.41274,0.00404
1347.35256,0.00389
1345.29239,0.00370
1343.23222,0.00363
1341.17205,0.00375
1339.11188,0.00379
1337.05170,0.00352
1334.99153,0.00315
1332.93136,0.00293
1330.87119,0.00288
1328.81102,0.00287
1326.75084,0.00285
1324.69067,0.00285
1322.63050,0.00293
1320.57033,0.00310
1318.51015,0.00325
1316.44998,0.00328
1314.38981,0.00323
1312.32964,0.00315
1310.26947,0.00310
1308.20929,0.00312
1306.14912,0.00321
1304.08895,0.00327
1302.02878,0.00321
1299.96861,0.00321
1297.90843,0.00346
1295.84826,0.00386
1293.78809,0.00413
1291.72792,0.00415
1289.66775,0.00408
1287.60757,0.00402
1285.54740,0.00388
1283.48723,0.00365
1281.42706,0.00351
1279.36688,0.00354
1277.30671,0.00367
1275.24654,0.00379
1273.18637,0.00381
1271.12620,0.00367
1269.06602,0.00347
1267.00585,0.00323
1264.94568,0.00308
1262.88551,0.00318
1260.82534,0.00344
1258.76516,0.00365
1256.70499,0.00373
1254.64482,0.00372
1252.58465,0.00364
1250.52447,0.00349
1248.46430,0.00336
1246.40413,0.00334
1244.34396,0.00332
1242.28379,0.00318
1240.22361,0.00304
1238.16344,0.00303
1236.10327,0.00293
1234.04310,0.00263
1231.98293,0.00232
1229.92275,0.00213
1227.86258,0.00199
1225.80241,0.00182
1223.74224,0.00156
1221.68207,0.00132
1219.62189,0.00114
1217.56172,0.00091
1215.50155,0.00070
1213.44138,0.00059
1211.38120,0.00048
1209.32103,0.00030
1207.26086,0.00010
1205.20069,0.00000
1203.14052,0.00001
1201.08034,0.00011
1199.02017,0.00015
1196.96000,0.00017
1194.89983,0.00033
1192.83966,0.00058
1190.77948,0.00074
1188.71931,0.00087
1186.65914,0.00119
1184.59897,0.00170
1182.53880,0.00215
1180.47862,0.00254
1178.41845,0.00310
1176.35828,0.00388
1174.29811,0.00470
1172.23793,0.00533
1170.17776,0.00582
1168.11759,0.00637
1166.05742,0.00703
1163.99725,0.00770
1161.93707,0.00829
1159.87690,0.00881
1157.81673,0.00936
1155.75656,0.01002
1153.69639,0.01076
1151.63621,0.01151
1149.57604,0.01219
1147.51587,0.01285
1145.45570,0.01354
1143.39552,0.01421
1141.33535,0.01482
1139.27518,0.01537
1137.21501,0.01596
1135.15484,0.01674
1133.09466,0.01769
1131.03449,0.01868
1128.97432,0.01962
1126.91415,0.02065
1124.85398,0.02185
1122.79380,0.02313
1120.73363,0.02440
1118.67346,0.02564
1116.61329,0.02684
1114.55312,0.02808
1112.49294,0.02928
1110.43277,0.03036
1108.37260,0.03137
1106.31243,0.03237
1104.25225,0.03340
1102.19208,0.03439
1100.13191,0.03532
1098.07174,0.03621
1096.01157,0.03705
1093.95139,0.03793
1091.89122,0.03884
1089.83105,0.03974
1087.77088,0.04049
1085.71071,0.04111
1083.65053,0.04173
1081.59036,0.04248
1079.53019,0.04329
1077.47002,0.04400
1075.40985,0.04455
1073.34967,0.04493
1071.28950,0.04514
1069.22933,0.04532
1067.16916,0.04546
1065.10898,0.04546
1063.04881,0.04532
1060.98864,0.04500
1058.92847,0.04438
1056.86830,0.04368
1054.80812,0.04298
1052.74795,0.04207
1050.68778,0.04097
1048.62761,0.03977
1046.56744,0.03841
1044.50726,0.03700
1042.44709,0.03566
1040.38692,0.03423
1038.32675,0.03264
1036.26657,0.03111
1034.20640,0.02966
1032.14623,0.02809
1030.08606,0.02649
1028.02589,0.02512
1025.96571,0.02401
1023.90554,0.02304
1021.84537,0.02203
1019.78520,0.02102
1017.72503,0.02022
1015.66485,0.01960
1013.60468,0.01911
1011.54451,0.01882
1009.48434,0.01866
1007.42417,0.01872
1005.36399,0.01913
1003.30382,0.01971
1001.24365,0.02037
999.18348,0.02112
997.12330,0.02196
995.06313,0.02282
993.00296,0.02356
990.94279,0.02422
988.88262,0.02493
986.82244,0.02560
984.76227,0.02614
982.70210,0.02644
980.64193,0.02636
978.58176,0.02624
976.52158,0.02639
974.46141,0.02643
972.40124,0.02591
970.34107,0.02510
968.28089,0.02441
966.22072,0.02375
964.16055,0.02303
962.10038,0.02226
960.04021,0.02141
957.98003,0.02057
955.91986,0.01975
953.85969,0.01883
951.79952,0.01788
949.73935,0.01702
947.67917,0.01626
945.61900,0.01558
943.55883,0.01481
941.49866,0.01400
939.43849,0.01328
937.37831,0.01250
935.31814,0.01173
933.25797,0.01109
931.19780,0.01044
929.13762,0.00988
927.07745,0.00948
925.01728,0.00896
922.95711,0.00814
920.89694,0.00736
918.83676,0.00687
916.77659,0.00643
914.71642,0.00589
912.65625,0.00537
910.59608,0.00494
908.53590,0.00471
906.47573,0.00474
904.41556,0.00472
902.35539,0.00449
900.29522,0.00421
898.23504,0.00409
896.17487,0.00426
894.11470,0.00468
892.05453,0.00505
889.99435,0.00529
887.93418,0.00569
885.87401,0.00631
883.81384,0.00700
881.75367,0.00762
879.69349,0.00808
877.63332,0.00859
875.57315,0.00947
873.51298,0.01056
871.45281,0.01145
869.39263,0.01190
867.33246,0.01235
865.27229,0.01320
863.21212,0.01405
861.15194,0.01465
859.09177,0.01502
857.03160,0.01509
854.97143,0.01503
852.91126,0.01513
850.85108,0.01515
848.79091,0.01491
846.73074,0.01457
844.67057,0.01406
842.61040,0.01341
840.55022,0.01283
838.49005,0.01239
836.42988,0.01183
834.36971,0.01089
832.30954,0.01007
830.24936,0.00955
828.18919,0.00891
826.12902,0.00829
824.06885,0.00783
822.00867,0.00742
819.94850,0.00716
817.88833,0.00694
815.82816,0.00637
813.76799,0.00561
811.70781,0.00511
809.64764,0.00480
807.58747,0.00462
805.52730,0.00438
803.46713,0.00394
801.40695,0.00361
799.34678,0.00330
797.28661,0.00285
795.22644,0.00273
793.16627,0.00295
791.10609,0.00295
789.04592,0.00266
786.98575,0.00241
784.92558,0.00240
782.86540,0.00250
780.80523,0.00247
778.74506,0.00237
776.68489,0.00214
774.62472,0.00174
772.56454,0.00148
770.50437,0.00144
768.44420,0.00148
766.38403,0.00156
764.32386,0.00135
762.26368,0.00084
760.20351,0.00061
758.14334,0.00082
756.08317,0.00109
754.02299,0.00112
751.96282,0.00074
749.90265,0.00034
747.84248,0.00032
745.78231,0.00062
743.72213,0.00112
741.66196,0.00127
739.60179,0.00084
737.54162,0.00065
735.48145,0.00090
733.42127,0.00076
731.36110,0.00030
729.30093,0.00038
727.24076,0.00054
725.18059,0.00046
723.12041,0.00116
721.06024,0.00107
719.00007,0.00089
716.93990,0.00106
714.87972,0.00109
712.81955,0.00098
710.75938,0.00096
708.69921,0.00106
706.63904,0.00127
704.57886,0.00160
702.51869,0.00187
700.45852,0.00210
698.39835,0.00244
696.33818,0.00271
694.27800,0.00280
692.21783,0.00277
690.15766,0.00231
688.09749,0.00144
686.03731,0.00100
683.97714,0.00136
681.91697,0.00208
679.85680,0.00283
677.79663,0.00322
675.73645,0.00285
673.67628,0.00198
671.61611,0.00060
669.55594,0.00000
667.49577,0.00190
665.43559,0.00321
663.37542,0.00396
661.31525,0.00328
659.25508,0.00195
657.19491,0.00159
655.13473,0.00242
653.07456,0.00343
651.01439,0.00389
648.95422,0.00389
646.89404,0.00387
644.83387,0.00353
642.77370,0.00274
640.71353,0.00214
638.65336,0.00195
636.59318,0.00196
634.53301,0.00219
632.47284,0.00230
630.41267,0.00189
628.35250,0.00109
626.29232,0.00016
624.23215,0.00000
622.17198,0.00062
620.11181,0.00133
618.05164,0.00137
615.99146,0.00156
613.93129,0.00256
611.87112,0.00290
609.81095,0.00178
607.75077,0.00052
605.69060,-0.00034
603.63043,-0.00100
601.57026,-0.00048
599.51009,0.00000
