3996.73391,-0.00041
3994.67373,-0.00041
3992.61356,-0.00030
3990.55339,-0.00005
3988.49322,0.00019
3986.43305,0.00031
3984.37287,0.00022
3982.31270,0.00005
3980.25253,0.00000
3978.19236,0.00011
3976.13219,0.00022
3974.07201,0.00029
3972.01184,0.00039
3969.95167,0.00057
3967.89150,0.00086
3965.83133,0.00111
3963.77115,0.00114
3961.71098,0.00100
3959.65081,0.00092
3957.59064,0.00094
3955.53046,0.00114
3953.47029,0.00138
3951.41012,0.00115
3949.34995,0.00042
3947.28978,0.00000
3945.22960,0.00021
3943.16943,0.00053
3941.10926,0.00080
3939.04909,0.00111
3936.98892,0.00125
3934.92874,0.00102
3932.86857,0.00079
3930.80840,0.00107
3928.74823,0.00156
3926.68805,0.00175
3924.62788,0.00160
3922.56771,0.00121
3920.50754,0.00082
3918.44737,0.00065
3916.38719,0.00108
3914.32702,0.00193
3912.26685,0.00240
3910.20668,0.00238
3908.14651,0.00229
3906.08633,0.00203
3904.02616,0.00133
3901.96599,0.00084
3899.90582,0.00127
3897.84565,0.00182
3895.78547,0.00180
3893.72530,0.00145
3891.66513,0.00126
3889.60496,0.00128
3887.54478,0.00121
3885.48461,0.00108
3883.42444,0.00095
3881.36427,0.00098
3879.30410,0.00130
3877.24392,0.00157
3875.18375,0.00155
3873.12358,0.00126
3871.06341,0.00093
3869.00324,0.00103
3866.94306,0.00121
3864.88289,0.00105
3862.82272,0.00092
3860.76255,0.00104
3858.70237,0.00087
3856.64220,0.00011
3854.58203,0.00000
3852.52186,0.00137
3850.46169,0.00271
3848.40151,0.00267
3846.34134,0.00225
3844.28117,0.00206
3842.22100,0.00187
3840.16083,0.00160
3838.10065,0.00151
3836.04048,0.00187
3833.98031,0.00256
3831.92014,0.00327
3829.85997,0.00375
3827.79979,0.00372
3825.73962,0.00317
3823.67945,0.00256
3821.61928,0.00250
3819.55910,0.00271
3817.49893,0.00290
3815.43876,0.00330
3813.37859,0.00375
3811.31842,0.00379
3809.25824,0.00367
3807.19807,0.00355
3805.13790,0.00338
3803.07773,0.00358
3801.01756,0.00417
3798.95738,0.00442
3796.89721,0.00441
3794.83704,0.00476
3792.77687,0.00513
3790.71670,0.00513
3788.65652,0.00507
3786.59635,0.00526
3784.53618,0.00558
3782.47601,0.00591
3780.41583,0.00618
3778.35566,0.00623
3776.29549,0.00613
3774.23532,0.00596
3772.17515,0.00580
3770.11497,0.00566
3768.05480,0.00540
3765.99463,0.00497
3763.93446,0.00456
3761.87429,0.00433
3759.81411,0.00411
3757.75394,0.00349
3755.69377,0.00271
3753.63360,0.00224
3751.57342,0.00176
3749.51325,0.00081
3747.45308,0.00007
3745.39291,0.00000
3743.33274,0.00116
3741.27256,0.00219
3739.21239,0.00207
3737.15222,0.00176
3735.09205,0.00161
3733.03188,0.00190
3730.97170,0.00263
3728.91153,0.00308
3726.85136,0.00298
3724.79119,0.00302
3722.73102,0.00370
3720.67084,0.00457
3718.61067,0.00472
3716.55050,0.00434
3714.49033,0.00424
3712.43015,0.00479
3710.36998,0.00547
3708.30981,0.00592
3706.24964,0.00616
3704.18947,0.00621
3702.12929,0.00628
3700.06912,0.00644
3698.00895,0.00657
3695.94878,0.00661
3693.88861,0.00660
3691.82843,0.00659
3689.76826,0.00650
3687.70809,0.00658
3685.64792,0.00679
3683.58775,0.00671
3681.52757,0.00645
3679.46740,0.00611
3677.40723,0.00584
3675.34706,0.00604
3673.28688,0.00638
3671.22671,0.00654
3669.16654,0.00685
3667.10637,0.00710
3665.04620,0.00722
3662.98602,0.00746
3660.92585,0.00752
3658.86568,0.00728
3656.80551,0.00728
3654.74534,0.00770
3652.68516,0.00809
3650.62499,0.00831
3648.56482,0.00853
3646.50465,0.00910
3644.44447,0.00916
3642.38430,0.00900
3640.32413,0.00925
3638.26396,0.00968
3636.20379,0.00998
3634.14361,0.01022
3632.08344,0.01052
3630.02327,0.01110
3627.96310,0.01195
3625.90293,0.01250
3623.84275,0.01249
3621.78258,0.01239
3619.72241,0.01254
3617.66224,0.01276
3615.60207,0.01265
3613.54189,0.01229
3611.48172,0.01218
3609.42155,0.01286
3607.36138,0.01411
3605.30120,0.01525
3603.24103,0.01601
3601.18086,0.01648
3599.12069,0.01674
3597.06052,0.01692
3595.00034,0.01730
3592.94017,0.01776
3590.88000,0.01810
3588.81983,0.01830
3586.75966,0.01865
3584.69948,0.01922
3582.63931,0.01975
3580.57914,0.02026
3578.51897,0.02084
3576.45879,0.02136
3574.39862,0.02165
3572.33845,0.02180
3570.27828,0.02201
3568.21811,0.02236
3566.15793,0.02288
3564.09776,0.02333
3562.03759,0.02343
3559.97742,0.02355
3557.91725,0.02392
3555.85707,0.02431
3553.79690,0.02475
3551.73673,0.02530
3549.67656,0.02545
3547.61639,0.02505
3545.55621,0.02502
3543.49604,0.02583
3541.43587,0.02687
3539.37570,0.02768
3537.31552,0.02822
3535.25535,0.02860
3533.19518,0.02898
3531.13501,0.02930
3529.07484,0.02939
3527.01466,0.02929
3524.95449,0.02938
3522.89432,0.02994
3520.83415,0.03073
3518.77398,0.03134
3516.71380,0.03177
3514.65363,0.03217
3512.59346,0.03251
3510.53329,0.03272
3508.47312,0.03289
3506.41294,0.03302
3504.35277,0.03305
3502.29260,0.03323
3500.23243,0.03390
3498.17225,0.03483
3496.11208,0.03552
3494.05191,0.03593
3491.99174,0.03629
3489.93157,0.03659
3487.87139,0.03680
3485.81122,0.03692
3483.75105,0.03702
3481.69088,0.03724
3479.63071,0.03766
3477.57053,0.03823
3475.51036,0.03874
3473.45019,0.03899
3471.39002,0.03900
3469.32984,0.03906
3467.26967,0.03930
3465.20950,0.03966
3463.14933,0.03996
3461.08916,0.04013
3459.02898,0.04031
3456.96881,0.04054
3454.90864,0.04086
3452.84847,0.04134
3450.78830,0.04170
3448.72812,0.04178
3446.66795,0.04178
3444.60778,0.04185
3442.54761,0.04197
3440.48744,0.04221
3438.42726,0.04261
3436.36709,0.04301
3434.30692,0.04331
3432.24675,0.04365
3430.18657,0.04399
3428.12640,0.04413
3426.06623,0.04414
3424.00606,0.04425
3421.94589,0.04452
3419.88571,0.04482
3417.82554,0.04511
3415.76537,0.04514
3413.70520,0.04500
3411.64503,0.04506
3409.58485,0.04534
3407.52468,0.04568
3405.46451,0.04594
3403.40434,0.04603
3401.34416,0.04598
3399.28399,0.04517
3397.22382,0.04551
3395.16365,0.04592
3393.10348,0.04609
3391.04330,0.04634
3388.98313,0.04663
3386.92296,0.04680
3384.86279,0.04700
3382.80262,0.04729
3380.74244,0.04750
3378.68227,0.04771
3376.62210,0.04793
3374.56193,0.04811
3372.50176,0.04828
3370.44158,0.04837
3368.38141,0.04831
3366.32124,0.04828
3364.26107,0.04851
3362.20089,0.04885
3360.14072,0.04903
3358.08055,0.04902
3356.02038,0.04895
3353.96021,0.04893
3351.90003,0.04893
3349.83986,0.04898
3347.77969,0.04906
3345.71952,0.04912
3343.65935,0.04923
3341.59917,0.04934
3339.53900,0.04926
3337.47883,0.04916
3335.41866,0.04926
3333.35849,0.04949
3331.29831,0.04974
3329.23814,0.04990
3327.17797,0.04995
3325.11780,0.05000
3323.05762,0.05017
3320.99745,0.05043
3318.93728,0.05054
3316.87711,0.05048
3314.81694,0.05033
3312.75676,0.05009
3310.69659,0.04993
3308.63642,0.05010
3306.57625,0.05049
3304.51608,0.05089
3302.45590,0.05115
3300.39573,0.05109
3298.33556,0.05082
3296.27539,0.05059
3294.21521,0.05043
3292.15504,0.05034
3290.09487,0.05039
3288.03470,0.05055
3285.97453,0.05067
3283.91435,0.05069
3281.85418,0.05063
3279.79401,0.05043
3277.73384,0.05022
3275.67367,0.05024
3273.61349,0.05041
3271.55332,0.05067
3269.49315,0.05092
3267.43298,0.05100
3265.37281,0.05100
3263.31263,0.05097
3261.25246,0.05079
3259.19229,0.05058
3257.13212,0.05052
3255.07194,0.05053
3253.01177,0.05052
3250.95160,0.05055
3248.89143,0.05066
3246.83126,0.05066
3244.77108,0.05057
3242.71091,0.05060
3240.65074,0.05062
3238.59057,0.05042
3236.53040,0.05028
3234.47022,0.05028
3232.41005,0.05032
3230.34988,0.05035
3228.28971,0.05034
3226.22954,0.05031
3224.16936,0.05026
3222.10919,0.05013
3220.04902,0.04996
3217.98885,0.04993
3215.92867,0.04994
3213.86850,0.04986
3211.80833,0.04974
3209.74816,0.04958
3207.68799,0.04946
3205.62781,0.04950
3203.56764,0.04949
3201.50747,0.04922
3199.44730,0.04897
3197.38713,0.04898
3195.32695,0.04904
3193.26678,0.04905
3191.20661,0.04913
3189.14644,0.04926
3187.08626,0.04918
3185.02609,0.04888
3182.96592,0.04873
3180.90575,0.04873
3178.84558,0.04870
3176.78540,0.04868
3174.72523,0.04861
3172.66506,0.04842
3170.60489,0.04821
3168.54472,0.04812
3166.48454,0.04818
3164.42437,0.04830
3162.36420,0.04822
3160.30403,0.04792
3158.24386,0.04767
3156.18368,0.04749
3154.12351,0.04720
3152.06334,0.04695
3150.00317,0.04690
3147.94299,0.04691
3145.88282,0.04690
3143.82265,0.04691
3141.76248,0.04687
3139.70231,0.04666
3137.64213,0.04633
3135.58196,0.04598
3133.52179,0.04574
3131.46162,0.04578
3129.40145,0.04587
3127.34127,0.04566
3125.28110,0.04522
3123.22093,0.04489
3121.16076,0.04475
3119.10058,0.04468
3117.04041,0.04455
3114.98024,0.04440
3112.92007,0.04437
3110.85990,0.04439
3108.79972,0.04437
3106.73955,0.04427
3104.67938,0.04399
3102.61921,0.04352
3100.55904,0.04323
3098.49886,0.04330
3096.43869,0.04340
3094.37852,0.04336
3092.31835,0.04327
3090.25818,0.04313
3088.19800,0.04295
3086.13783,0.04294
3084.07766,0.04293
3082.01749,0.04265
3079.95731,0.04231
3077.89714,0.04219
3075.83697,0.04217
3073.77680,0.04206
3071.71663,0.04199
3069.65645,0.04196
3067.59628,0.04178
3065.53611,0.04151
3063.47594,0.04137
3061.41577,0.04131
3059.35559,0.04116
3057.29542,0.04093
3055.23525,0.04070
3053.17508,0.04048
3051.11491,0.04025
3049.05473,0.04006
3046.99456,0.03990
3044.93439,0.03973
3042.87422,0.03952
3040.81404,0.03934
3038.75387,0.03918
3036.69370,0.03900
3034.63353,0.03876
3032.57336,0.03840
3030.51318,0.03805
3028.45301,0.03793
3026.39284,0.03791
3024.33267,0.03781
3022.27250,0.03763
3020.21232,0.03746
3018.15215,0.03723
3016.09198,0.03680
3014.03181,0.03637
3011.97163,0.03611
3009.91146,0.03595
3007.85129,0.03583
3005.79112,0.03573
3003.73095,0.03569
3001.67077,0.03569
2999.61060,0.03576
2997.55043,0.03552
2995.49026,0.03519
2993.43009,0.03499
2991.36991,0.03504
2989.30974,0.03510
2987.24957,0.03504
2985.18940,0.03496
2983.12923,0.03490
2981.06905,0.03489
2979.00888,0.03483
2976.94871,0.03475
2974.88854,0.03464
2972.82836,0.03450
2970.76819,0.03450
2968.70802,0.03458
2966.64785,0.03456
2964.58768,0.03455
2962.52750,0.03455
2960.46733,0.03453
2958.40716,0.03461
2956.34699,0.03464
2954.28682,0.03448
2952.22664,0.03434
2950.16647,0.03427
2948.10630,0.03410
2946.04613,0.03391
2943.98596,0.03385
2941.92578,0.03381
2939.86561,0.03362
2937.80544,0.03340
2935.74527,0.03329
2933.68509,0.03331
2931.62492,0.03334
2929.56475,0.03322
2927.50458,0.03300
2925.44441,0.03293
2923.38423,0.03300
2921.32406,0.03302
2919.26389,0.03291
2917.20372,0.03271
2915.14355,0.03253
2913.08337,0.03235
2911.02320,0.03206
2908.96303,0.03175
2906.90286,0.03157
2904.84268,0.03147
2902.78251,0.03136
2900.72234,0.03128
2898.66217,0.03128
2896.60200,0.03125
2894.54182,0.03107
2892.48165,0.03080
2890.42148,0.03066
2888.36131,0.03068
2886.30114,0.03071
2884.24096,0.03072
2882.18079,0.03069
2880.12062,0.03051
2878.06045,0.03023
2876.00028,0.02998
2873.94010,0.02976
2871.87993,0.02952
2869.81976,0.02928
2867.75959,0.02905
2865.69941,0.02888
2863.63924,0.02876
2861.57907,0.02864
2859.51890,0.02851
2857.45873,0.02841
2855.39855,0.02834
2853.33838,0.02821
2851.27821,0.02810
2849.21804,0.02808
2847.15787,0.02799
2845.09769,0.02773
2843.03752,0.02746
2840.97735,0.02726
2838.91718,0.02706
2836.85700,0.02683
2834.79683,0.02659
2832.73666,0.02646
2830.67649,0.02647
2828.61632,0.02640
2826.55614,0.02625
2824.49597,0.02614
2822.43580,0.02599
2820.37563,0.02574
2818.31546,0.02557
2816.25528,0.02550
2814.19511,0.02550
2812.13494,0.02547
2810.07477,0.02531
2808.01460,0.02503
2805.95442,0.02480
2803.89425,0.02466
2801.83408,0.02464
2799.77391,0.02472
2797.71373,0.02470
2795.65356,0.02450
2793.59339,0.02427
2791.53322,0.02416
2789.47305,0.02417
2787.41287,0.02411
2785.35270,0.02393
2783.29253,0.02387
2781.23236,0.02394
2779.17219,0.02389
2777.11201,0.02370
2775.05184,0.02349
2772.99167,0.02328
2770.93150,0.02315
2768.87133,0.02316
2766.81115,0.02318
2764.75098,0.02308
2762.69081,0.02284
2760.63064,0.02258
2758.57046,0.02246
2756.51029,0.02248
2754.45012,0.02255
2752.38995,0.02259
2750.32978,0.02252
2748.26960,0.02231
2746.20943,0.02207
2744.14926,0.02188
2742.08909,0.02177
2740.02892,0.02180
2737.96874,0.02186
2735.90857,0.02177
2733.84840,0.02157
2731.78823,0.02140
2729.72805,0.02134
2727.66788,0.02130
2725.60771,0.02116
2723.54754,0.02093
2721.48737,0.02071
2719.42719,0.02062
2717.36702,0.02066
2715.30685,0.02069
2713.24668,0.02057
2711.18651,0.02043
2709.12633,0.02034
2707.06616,0.02017
2705.00599,0.02000
2702.94582,0.01989
2700.88565,0.01984
2698.82547,0.01984
2696.76530,0.01982
2694.70513,0.01974
2692.64496,0.01961
2690.58478,0.01950
2688.52461,0.01941
2686.46444,0.01923
2684.40427,0.01904
2682.34410,0.01901
2680.28392,0.01907
2678.22375,0.01900
2676.16358,0.01879
2674.10341,0.01862
2672.04324,0.01850
2669.98306,0.01832
2667.92289,0.01823
2665.86272,0.01829
2663.80255,0.01828
2661.74238,0.01816
2659.68220,0.01809
2657.62203,0.01809
2655.56186,0.01801
2653.50169,0.01780
2651.44151,0.01760
2649.38134,0.01747
2647.32117,0.01737
2645.26100,0.01729
2643.20083,0.01721
2641.14065,0.01707
2639.08048,0.01695
2637.02031,0.01695
2634.96014,0.01691
2632.89997,0.01682
2630.83979,0.01683
2628.77962,0.01682
2626.71945,0.01662
2624.65928,0.01644
2622.59910,0.01635
2620.53893,0.01627
2618.47876,0.01622
2616.41859,0.01616
2614.35842,0.01609
2612.29824,0.01603
2610.23807,0.01595
2608.17790,0.01583
2606.11773,0.01578
2604.05756,0.01579
2601.99738,0.01585
2599.93721,0.01583
2597.87704,0.01553
2595.81687,0.01516
2593.75670,0.01504
2591.69652,0.01507
2589.63635,0.01507
2587.57618,0.01498
2585.51601,0.01491
2583.45583,0.01490
2581.39566,0.01485
2579.33549,0.01479
2577.27532,0.01466
2575.21515,0.01449
2573.15497,0.01446
2571.09480,0.01455
2569.03463,0.01463
2566.97446,0.01462
2564.91429,0.01442
2562.85411,0.01424
2560.79394,0.01430
2558.73377,0.01451
2556.67360,0.01458
2554.61342,0.01448
2552.55325,0.01446
2550.49308,0.01462
2548.43291,0.01481
2546.37274,0.01477
2544.31256,0.01451
2542.25239,0.01427
2540.19222,0.01419
2538.13205,0.01423
2536.07188,0.01430
2534.01170,0.01428
2531.95153,0.01433
2529.89136,0.01450
2527.83119,0.01451
2525.77102,0.01438
2523.71084,0.01431
2521.65067,0.01421
2519.59050,0.01422
2517.53033,0.01443
2515.47015,0.01448
2513.40998,0.01429
2511.34981,0.01427
2509.28964,0.01450
2507.22947,0.01473
2505.16929,0.01478
2503.10912,0.01467
2501.04895,0.01457
2498.98878,0.01441
2496.92861,0.01432
2494.86843,0.01449
2492.80826,0.01472
2490.74809,0.01485
2488.68792,0.01486
2486.62775,0.01483
2484.56757,0.01483
2482.50740,0.01483
2480.44723,0.01479
2478.38706,0.01471
2476.32688,0.01466
2474.26671,0.01473
2472.20654,0.01483
2470.14637,0.01480
2468.08620,0.01482
2466.02602,0.01484
2463.96585,0.01475
2461.90568,0.01483
2459.84551,0.01508
2457.78534,0.01508
2455.72516,0.01487
2453.66499,0.01475
2451.60482,0.01468
2449.54465,0.01466
2447.48447,0.01487
2445.42430,0.01510
2443.36413,0.01522
2441.30396,0.01531
2439.24379,0.01537
2437.18361,0.01528
2435.12344,0.01509
2433.06327,0.01490
2431.00310,0.01464
2428.94293,0.01453
2426.88275,0.01466
2424.82258,0.01468
2422.76241,0.01459
2420.70224,0.01455
2418.64207,0.01455
2416.58189,0.01460
2414.52172,0.01465
2412.46155,0.01456
2410.40138,0.01432
2408.34120,0.01415
2406.28103,0.01420
2404.22086,0.01432
2402.16069,0.01441
2400.10052,0.01446
2398.04034,0.01419
2395.98017,0.01431
2393.92000,0.01449
2391.85983,0.01446
2389.79966,0.01442
2387.73948,0.01445
2385.67931,0.01438
2383.61914,0.01403
2381.55897,0.01352
2379.49880,0.01313
2377.43862,0.01308
2375.37845,0.01329
2373.31828,0.01384
2371.25811,0.01455
2369.19793,0.01551
2367.13776,0.01709
2365.07759,0.01831
2363.01742,0.01756
2360.95725,0.01683
2358.89707,0.01631
2356.83690,0.01642
2354.77673,0.01636
2352.71656,0.01633
2350.65639,0.01745
2348.59621,0.01791
2346.53604,0.01526
2344.47587,0.01463
2342.41570,0.01562
2340.35552,0.01673
2338.29535,0.01735
2336.23518,0.01728
2334.17501,0.01694
2332.11484,0.01628
2330.05466,0.01573
2327.99449,0.01529
2325.93432,0.01526
2323.87415,0.01434
2321.81398,0.01339
2319.75380,0.01254
2317.69363,0.01241
2315.63346,0.01211
2313.57329,0.01179
2311.51312,0.01190
2309.45294,0.01216
2307.39277,0.01241
2305.33260,0.01264
2303.27243,0.01280
2301.21225,0.01267
2299.15208,0.01250
2297.09191,0.01253
2295.03174,0.01289
2292.97157,0.01339
2290.91139,0.01361
2288.85122,0.01361
2286.79105,0.01340
2284.73088,0.01291
2282.67071,0.01250
2280.61053,0.01251
2278.55036,0.01265
2276.49019,0.01258
2274.43002,0.01247
2272.36984,0.01237
2270.30967,0.01225
2268.24950,0.01220
2266.18933,0.01221
2264.12916,0.01227
2262.06898,0.01244
2260.00881,0.01230
2257.94864,0.01189
2255.88847,0.01187
2253.82830,0.01213
2251.76812,0.01203
2249.70795,0.01165
2247.64778,0.01156
2245.58761,0.01153
2243.52744,0.01138
2241.46726,0.01108
2239.40709,0.01105
2237.34692,0.01127
2235.28675,0.01134
2233.22657,0.01162
2231.16640,0.01217
2229.10623,0.01249
2227.04606,0.01226
2224.98589,0.01149
2222.92571,0.01059
2220.86554,0.01000
2218.80537,0.00983
2216.74520,0.00990
2214.68503,0.01018
2212.62485,0.01056
2210.56468,0.01069
2208.50451,0.01048
2206.44434,0.01014
2204.38417,0.01021
2202.32399,0.01053
2200.26382,0.00989
2198.20365,0.00920
2196.14348,0.00982
2194.08330,0.01030
2192.02313,0.01023
2189.96296,0.01032
2187.90279,0.00997
2185.84262,0.00927
2183.78244,0.00910
2181.72227,0.00921
2179.66210,0.00921
2177.60193,0.00911
2175.54176,0.00889
2173.48158,0.00877
2171.42141,0.00888
2169.36124,0.00904
2167.30107,0.00916
2165.24089,0.00917
2163.18072,0.00860
2161.12055,0.00730
2159.06038,0.00636
2157.00021,0.00656
2154.94003,0.00775
2152.87986,0.00923
2150.81969,0.00987
2148.75952,0.00942
2146.69935,0.00872
2144.63917,0.00864
2142.57900,0.00897
2140.51883,0.00890
2138.45866,0.00830
2136.39849,0.00764
2134.33831,0.00756
2132.27814,0.00803
2130.21797,0.00841
2128.15780,0.00886
2126.09762,0.00940
2124.03745,0.00938
2121.97728,0.00914
2119.91711,0.00926
2117.85694,0.00910
2115.79676,0.00846
2113.73659,0.00838
2111.67642,0.00871
2109.61625,0.00869
2107.55608,0.00864
2105.49590,0.00873
2103.43573,0.00858
2101.37556,0.00847
2099.31539,0.00914
2097.25521,0.00918
2095.19504,0.00878
2093.13487,0.00844
2091.07470,0.00831
2089.01453,0.00836
2086.95435,0.00848
2084.89418,0.00854
2082.83401,0.00879
2080.77384,0.00958
2078.71367,0.01026
2076.65349,0.01011
2074.59332,0.00952
2072.53315,0.00912
2070.47298,0.00903
2068.41281,0.00937
2066.35263,0.00965
2064.29246,0.00910
2062.23229,0.00795
2060.17212,0.00718
2058.11194,0.00739
2056.05177,0.00822
2053.99160,0.00906
2051.93143,0.00963
2049.87126,0.01011
2047.81108,0.01077
2045.75091,0.01132
2043.69074,0.01120
2041.63057,0.01044
2039.57040,0.01001
2037.51022,0.01031
2035.45005,0.01019
2033.38988,0.00905
2031.32971,0.00781
2029.26954,0.00734
2027.20936,0.00779
2025.14919,0.00845
2023.08902,0.00842
2021.02885,0.00781
2018.96867,0.00722
2016.90850,0.00725
2014.84833,0.00783
2012.78816,0.00793
2010.72799,0.00775
2008.66781,0.00813
2006.60764,0.00820
2004.54747,0.00745
2002.48730,0.00701
2000.42713,0.00717
1998.36695,0.00721
1996.30678,0.00721
1994.24661,0.00741
1992.18644,0.00708
1990.12626,0.00635
1988.06609,0.00619
1986.00592,0.00650
1983.94575,0.00709
1981.88558,0.00869
1979.82540,0.01096
1977.76523,0.01204
1975.70506,0.01130
1973.64489,0.01017
1971.58472,0.00969
1969.52454,0.00916
1967.46437,0.00820
1965.40420,0.00760
1963.34403,0.00757
1961.28386,0.00763
1959.22368,0.00734
1957.16351,0.00659
1955.10334,0.00603
1953.04317,0.00600
1950.98299,0.00613
1948.92282,0.00645
1946.86265,0.00708
1944.80248,0.00751
1942.74231,0.00759
1940.68213,0.00755
1938.62196,0.00750
1936.56179,0.00743
1934.50162,0.00746
1932.44145,0.00744
1930.38127,0.00723
1928.32110,0.00711
1926.26093,0.00706
1924.20076,0.00677
1922.14059,0.00640
1920.08041,0.00636
1918.02024,0.00672
1915.96007,0.00712
1913.89990,0.00747
1911.83972,0.00771
1909.77955,0.00761
1907.71938,0.00737
1905.65921,0.00734
1903.59904,0.00739
1901.53886,0.00734
1899.47869,0.00718
1897.41852,0.00697
1895.35835,0.00678
1893.29818,0.00669
1891.23800,0.00689
1889.17783,0.00727
1887.11766,0.00744
1885.05749,0.00741
1882.99731,0.00741
1880.93714,0.00745
1878.87697,0.00742
1876.81680,0.00735
1874.75663,0.00732
1872.69645,0.00739
1870.63628,0.00753
1868.57611,0.00766
1866.51594,0.00761
1864.45577,0.00741
1862.39559,0.00724
1860.33542,0.00711
1858.27525,0.00706
1856.21508,0.00713
1854.15491,0.00711
1852.09473,0.00694
1850.03456,0.00673
1847.97439,0.00647
1845.91422,0.00608
1843.85404,0.00582
1841.79387,0.00598
1839.73370,0.00635
1837.67353,0.00661
1835.61336,0.00654
1833.55318,0.00649
1831.49301,0.00691
1829.43284,0.00737
1827.37267,0.00732
1825.31250,0.00711
1823.25232,0.00719
1821.19215,0.00741
1819.13198,0.00728
1817.07181,0.00684
1815.01163,0.00660
1812.95146,0.00664
1810.89129,0.00656
1808.83112,0.00635
1806.77095,0.00625
1804.71077,0.00617
1802.65060,0.00601
1800.59043,0.00608
1798.53026,0.00624
1796.47009,0.00626
1794.40991,0.00639
1792.34974,0.00656
1790.28957,0.00645
1788.22940,0.00607
1786.16923,0.00566
1784.10905,0.00567
1782.04888,0.00617
1779.98871,0.00644
1777.92854,0.00625
1775.86836,0.00626
1773.80819,0.00671
1771.74802,0.00687
1769.68785,0.00635
1767.62768,0.00595
1765.56750,0.00618
1763.50733,0.00677
1761.44716,0.00715
1759.38699,0.00715
1757.32682,0.00720
1755.26664,0.00742
1753.20647,0.00764
1751.14630,0.00790
1749.08613,0.00822
1747.02596,0.00843
1744.96578,0.00860
1742.90561,0.00893
1740.84544,0.00928
1738.78527,0.00930
1736.72509,0.00911
1734.66492,0.00909
1732.60475,0.00921
1730.54458,0.00940
1728.48441,0.00945
1726.42423,0.00935
1724.36406,0.00918
1722.30389,0.00919
1720.24372,0.00968
1718.18355,0.01011
1716.12337,0.00964
1714.06320,0.00913
1712.00303,0.00895
1709.94286,0.00914
1707.88268,0.00954
1705.82251,0.00961
1703.76234,0.00943
1701.70217,0.00995
1699.64200,0.01092
1697.58182,0.01138
1695.52165,0.01159
1693.46148,0.01191
1691.40131,0.01233
1689.34114,0.01315
1687.28096,0.01446
1685.22079,0.01618
1683.16062,0.01723
1681.10045,0.01741
1679.04028,0.01775
1676.98010,0.01878
1674.91993,0.02027
1672.85976,0.02176
1670.79959,0.02302
1668.73941,0.02374
1666.67924,0.02390
1664.61907,0.02424
1662.55890,0.02482
1660.49873,0.02489
1658.43855,0.02463
1656.37838,0.02492
1654.31821,0.02602
1652.25804,0.02666
1650.19787,0.02650
1648.13769,0.02638
1646.07752,0.02651
1644.01735,0.02611
1641.95718,0.02564
1639.89701,0.02583
1637.83683,0.02655
1635.77666,0.02693
1633.71649,0.02651
1631.65632,0.02584
1629.59614,0.02554
1627.53597,0.02558
1625.47580,0.02560
1623.41563,0.02536
1621.35546,0.02484
1619.29528,0.02475
1617.23511,0.02516
1615.17494,0.02499
1613.11477,0.02425
1611.05460,0.02380
1608.99442,0.02377
1606.93425,0.02373
1604.87408,0.02361
1602.81391,0.02346
1600.75373,0.02322
1598.69356,0.02302
1596.63339,0.02288
1594.57322,0.02259
1592.51305,0.02216
1590.45287,0.02174
1588.39270,0.02135
1586.33253,0.02096
1584.27236,0.02049
1582.21219,0.01991
1580.15201,0.01953
1578.09184,0.01944
1576.03167,0.01898
1573.97150,0.01792
1571.91133,0.01718
1569.85115,0.01694
1567.79098,0.01641
1565.73081,0.01558
1563.67064,0.01515
1561.61046,0.01573
1559.55029,0.01636
1557.49012,0.01497
1555.42995,0.01312
1553.36978,0.01214
1551.30960,0.01188
1549.24943,0.01172
1547.18926,0.01149
1545.12909,0.01162
1543.06892,0.01234
1541.00874,0.01316
1538.94857,0.01261
1536.88840,0.01106
1534.82823,0.01017
1532.76805,0.01008
1530.70788,0.00980
1528.64771,0.00931
1526.58754,0.00879
1524.52737,0.00834
1522.46719,0.00812
1520.40702,0.00774
1518.34685,0.00739
1516.28668,0.00707
1514.22651,0.00640
1512.16633,0.00582
1510.10616,0.00599
1508.04599,0.00686
1505.98582,0.00737
1503.92565,0.00683
1501.86547,0.00604
1499.80530,0.00610
1497.74513,0.00670
1495.68496,0.00700
1493.62478,0.00711
1491.56461,0.00735
1489.50444,0.00739
1487.44427,0.00723
1485.38410,0.00721
1483.32392,0.00731
1481.26375,0.00744
1479.20358,0.00761
1477.14341,0.00792
1475.08324,0.00833
1473.02306,0.00866
1470.96289,0.00863
1468.90272,0.00840
1466.84255,0.00857
1464.78238,0.00893
1462.72220,0.00895
1460.66203,0.00914
1458.60186,0.00956
1456.54169,0.00944
1454.48151,0.00919
1452.42134,0.00918
1450.36117,0.00968
1448.30100,0.01037
1446.24083,0.01076
1444.18065,0.01085
1442.12048,0.01088
1440.06031,0.01096
1438.00014,0.01103
1435.93997,0.01098
1433.87979,0.01096
1431.81962,0.01118
1429.75945,0.01161
1427.69928,0.01190
1425.63910,0.01211
1423.57893,0.01228
1421.51876,0.01230
1419.45859,0.01224
1417.39842,0.01236
1415.33824,0.01280
1413.27807,0.01335
1411.21790,0.01376
1409.15773,0.01398
1407.09756,0.01408
1405.03738,0.01400
1402.97721,0.01375
1400.91704,0.01340
1398.85687,0.01287
1396.79670,0.01237
1394.73652,0.01220
1392.67635,0.01209
1390.61618,0.01196
1388.55601,0.01200
1386.49583,0.01211
1384.43566,0.01207
1382.37549,0.01190
1380.31532,0.01179
1378.25515,0.01187
1376.19497,0.01203
1374.13480,0.01191
1372.07463,0.01153
1370.01446,0.01132
1367.95429,0.01126
1365.89411,0.01115
1363.83394,0.01084
1361.77377,0.01046
1359.71360,0.01041
1357.65343,0.01060
1355.59325,0.01072
1353.53308,0.01070
1351.47291,0.01066
1349.41274,0.01059
1347.35256,0.01041
1345.29239,0.01015
1343.23222,0.00985
1341.17205,0.00943
1339.11188,0.00900
1337.05170,0.00905
1334.99153,0.00953
1332.93136,0.00992
1330.87119,0.01003
1328.81102,0.01004
1326.75084,0.01006
1324.69067,0.01002
1322.63050,0.00993
1320.57033,0.00989
1318.51015,0.00982
1316.44998,0.00971
1314.38981,0.00965
1312.32964,0.00968
1310.26947,0.00977
1308.20929,0.00984
1306.14912,0.00990
1304.08895,0.01003
1302.02878,0.01017
1299.96861,0.01021
1297.90843,0.01019
1295.84826,0.01020
1293.78809,0.01020
1291.72792,0.01008
1289.66775,0.00996
1287.60757,0.00998
1285.54740,0.01012
1283.48723,0.01027
1281.42706,0.01035
1279.36688,0.01042
1277.30671,0.01051
1275.24654,0.01063
1273.18637,0.01075
1271.12620,0.01080
1269.06602,0.01079
1267.00585,0.01080
1264.94568,0.01091
1262.88551,0.01117
1260.82534,0.01137
1258.76516,0.01141
1256.70499,0.01141
1254.64482,0.01145
1252.58465,0.01148
1250.52447,0.01149
1248.46430,0.01148
1246.40413,0.01129
1244.34396,0.01098
1242.28379,0.01082
1240.22361,0.01078
1238.16344,0.01068
1236.10327,0.01050
1234.04310,0.01028
1231.98293,0.01010
1229.92275,0.00994
1227.86258,0.00965
1225.80241,0.00928
1223.74224,0.00900
1221.68207,0.00872
1219.62189,0.00831
1217.56172,0.00791
1215.50155,0.00757
1213.44138,0.00716
1211.38120,0.00678
1209.32103,0.00652
1207.26086,0.00635
1205.20069,0.00624
1203.14052,0.00611
1201.08034,0.00593
1199.02017,0.00568
1196.96000,0.00563
1194.89983,0.00568
1192.83966,0.00565
1190.77948,0.00554
1188.71931,0.00543
1186.65914,0.00547
1184.59897,0.00582
1182.53880,0.00624
1180.47862,0.00649
1178.41845,0.00673
1176.35828,0.00695
1174.29811,0.00713
1172.23793,0.00749
1170.17776,0.00803
1168.11759,0.00853
1166.05742,0.00897
1163.99725,0.00947
1161.93707,0.01005
1159.87690,0.01066
1157.81673,0.01131
1155.75656,0.01199
1153.69639,0.01268
1151.63621,0.01342
1149.57604,0.01419
1147.51587,0.01490
1145.45570,0.01556
1143.39552,0.01625
1141.33535,0.01699
1139.27518,0.01780
1137.21501,0.01874
1135.15484,0.01979
1133.09466,0.02084
1131.03449,0.02188
1128.97432,0.02298
1126.91415,0.02421
1124.85398,0.02559
1122.79380,0.02712
1120.73363,0.02869
1118.67346,0.03016
1116.61329,0.03155
1114.55312,0.03299
1112.49294,0.03450
1110.43277,0.03593
1108.37260,0.03728
1106.31243,0.03866
1104.25225,0.04005
1102.19208,0.04130
1100.13191,0.04248
1098.07174,0.04368
1096.01157,0.04484
1093.95139,0.04586
1091.89122,0.04675
1089.83105,0.04762
1087.77088,0.04862
1085.71071,0.04961
1083.65053,0.05048
1081.59036,0.05127
1079.53019,0.05202
1077.47002,0.05283
1075.40985,0.05359
1073.34967,0.05426
1071.28950,0.05476
1069.22933,0.05501
1067.16916,0.05511
1065.10898,0.05507
1063.04881,0.05492
1060.98864,0.05480
1058.92847,0.05463
1056.86830,0.05432
1054.80812,0.05386
1052.74795,0.05323
1050.68778,0.05236
1048.62761,0.05140
1046.56744,0.05051
1044.50726,0.04950
1042.44709,0.04809
1040.38692,0.04640
1038.32675,0.04462
1036.26657,0.04260
1034.20640,0.04028
1032.14623,0.03821
1030.08606,0.03673
1028.02589,0.03546
1025.96571,0.03408
1023.90554,0.03261
1021.84537,0.03126
1019.78520,0.03010
1017.72503,0.02911
1015.66485,0.02838
1013.60468,0.02781
1011.54451,0.02734
1009.48434,0.02714
1007.42417,0.02716
1005.36399,0.02730
1003.30382,0.02775
1001.24365,0.02854
999.18348,0.02947
997.12330,0.03047
995.06313,0.03145
993.00296,0.03239
990.94279,0.03347
988.88262,0.03455
986.82244,0.03528
984.76227,0.03569
982.70210,0.03594
980.64193,0.03610
978.58176,0.03611
976.52158,0.03584
974.46141,0.03539
972.40124,0.03483
970.34107,0.03406
968.28089,0.03297
966.22072,0.03166
964.16055,0.03044
962.10038,0.02942
960.04021,0.02825
957.98003,0.02689
955.91986,0.02556
953.85969,0.02422
951.79952,0.02285
949.73935,0.02150
947.67917,0.02029
945.61900,0.01916
943.55883,0.01798
941.49866,0.01683
939.43849,0.01580
937.37831,0.01491
935.31814,0.01405
933.25797,0.01326
931.19780,0.01265
929.13762,0.01206
927.07745,0.01154
925.01728,0.01125
922.95711,0.01098
920.89694,0.01061
918.83676,0.01019
916.77659,0.00963
914.71642,0.00899
912.65625,0.00865
910.59608,0.00861
908.53590,0.00843
906.47573,0.00819
904.41556,0.00828
902.35539,0.00854
900.29522,0.00859
898.23504,0.00864
896.17487,0.00902
894.11470,0.00951
892.05453,0.00995
889.99435,0.01046
887.93418,0.01101
885.87401,0.01156
883.81384,0.01208
881.75367,0.01249
879.69349,0.01274
877.63332,0.01303
875.57315,0.01355
873.51298,0.01420
871.45281,0.01495
869.39263,0.01575
867.33246,0.01625
865.27229,0.01649
863.21212,0.01676
861.15194,0.01693
859.09177,0.01691
857.03160,0.01691
854.97143,0.01695
852.91126,0.01702
850.85108,0.01705
848.79091,0.01671
846.73074,0.01618
844.67057,0.01601
842.61040,0.01599
840.55022,0.01566
838.49005,0.01493
836.42988,0.01419
834.36971,0.01387
832.30954,0.01359
830.24936,0.01301
828.18919,0.01247
826.12902,0.01199
824.06885,0.01158
822.00867,0.01153
819.94850,0.01152
817.88833,0.01122
815.82816,0.01084
813.76799,0.01051
811.70781,0.01016
809.64764,0.00972
807.58747,0.00931
805.52730,0.00922
803.46713,0.00944
801.40695,0.00956
799.34678,0.00938
797.28661,0.00894
795.22644,0.00856
793.16627,0.00850
791.10609,0.00852
789.04592,0.00814
786.98575,0.00756
784.92558,0.00745
782.86540,0.00772
780.80523,0.00786
778.74506,0.00781
776.68489,0.00778
774.62472,0.00784
772.56454,0.00793
770.50437,0.00801
768.44420,0.00790
766.38403,0.00745
764.32386,0.00701
762.26368,0.00686
760.20351,0.00684
758.14334,0.00670
756.08317,0.00647
754.02299,0.00633
751.96282,0.00643
749.90265,0.00671
747.84248,0.00680
745.78231,0.00661
743.72213,0.00642
741.66196,0.00616
739.60179,0.00560
737.54162,0.00528
735.48145,0.00575
733.42127,0.00645
731.36110,0.00662
729.30093,0.00635
727.24076,0.00605
725.18059,0.00599
723.12041,0.00636
721.06024,0.00612
719.00007,0.00632
716.93990,0.00651
714.87972,0.00645
712.81955,0.00641
710.75938,0.00626
708.69921,0.00598
706.63904,0.00591
704.57886,0.00627
702.51869,0.00687
700.45852,0.00709
698.39835,0.00662
696.33818,0.00602
694.27800,0.00589
692.21783,0.00625
690.15766,0.00686
688.09749,0.00743
686.03731,0.00785
683.97714,0.00817
681.91697,0.00822
679.85680,0.00781
677.79663,0.00715
675.73645,0.00700
673.67628,0.00806
671.61611,0.00964
669.55594,0.00766
667.49577,0.00385
665.43559,0.00796
663.37542,0.00700
661.31525,0.00581
659.25508,0.00610
657.19491,0.00645
655.13473,0.00624
653.07456,0.00595
651.01439,0.00582
648.95422,0.00558
646.89404,0.00563
644.83387,0.00616
642.77370,0.00690
640.71353,0.00689
638.65336,0.00588
636.59318,0.00480
634.53301,0.00450
632.47284,0.00476
630.41267,0.00460
628.35250,0.00374
626.29232,0.00289
624.23215,0.00262
622.17198,0.00280
620.11181,0.00338
618.05164,0.00390
615.99146,0.00365
613.93129,0.00293
611.87112,0.00193
609.81095,0.00062
607.75077,0.00000
605.69060,-0.00046
603.63043,-0.00095
601.57026,-0.00092
599.51009,0.00000
