3996.73391,-0.00022
3994.67373,-0.00053
3992.61356,-0.00046
3990.55339,-0.00004
3988.49322,0.00027
3986.43305,0.00033
3984.37287,0.00029
3982.31270,0.00022
3980.25253,0.00021
3978.19236,0.00034
3976.13219,0.00044
3974.07201,0.00047
3972.01184,0.00057
3969.95167,0.00077
3967.89150,0.00104
3965.83133,0.00127
3963.77115,0.00126
3961.71098,0.00104
3959.65081,0.00090
3957.59064,0.00093
3955.53046,0.00113
3953.47029,0.00132
3951.41012,0.00110
3949.34995,0.00040
3947.28978,0.00000
3945.22960,0.00030
3943.16943,0.00073
3941.10926,0.00097
3939.04909,0.00112
3936.98892,0.00111
3934.92874,0.00083
3932.86857,0.00055
3930.80840,0.00076
3928.74823,0.00130
3926.68805,0.00159
3924.62788,0.00144
3922.56771,0.00099
3920.50754,0.00066
3918.44737,0.00064
3916.38719,0.00113
3914.32702,0.00180
3912.26685,0.00209
3910.20668,0.00206
3908.14651,0.00192
3906.08633,0.00153
3904.02616,0.00084
3901.96599,0.00052
3899.90582,0.00105
3897.84565,0.00162
3895.78547,0.00171
3893.72530,0.00155
3891.66513,0.00135
3889.60496,0.00124
3887.54478,0.00112
3885.48461,0.00104
3883.42444,0.00096
3881.36427,0.00094
3879.30410,0.00114
3877.24392,0.00138
3875.18375,0.00131
3873.12358,0.00094
3871.06341,0.00061
3869.00324,0.00071
3866.94306,0.00097
3864.88289,0.00115
3862.82272,0.00131
3860.76255,0.00127
3858.70237,0.00077
3856.64220,-0.00007
3854.58203,0.00000
3852.52186,0.00138
3850.46169,0.00246
3848.40151,0.00224
3846.34134,0.00194
3844.28117,0.00217
3842.22100,0.00242
3840.16083,0.00233
3838.10065,0.00217
3836.04048,0.00233
3833.98031,0.00269
3831.92014,0.00302
3829.85997,0.00326
3827.79979,0.00321
3825.73962,0.00283
3823.67945,0.00255
3821.61928,0.00274
3819.55910,0.00289
3817.49893,0.00290
3815.43876,0.00318
3813.37859,0.00342
3811.31842,0.00316
3809.25824,0.00288
3807.19807,0.00289
3805.13790,0.00304
3803.07773,0.00350
3801.01756,0.00424
3798.95738,0.00454
3796.89721,0.00448
3794.83704,0.00471
3792.77687,0.00501
3790.71670,0.00505
3788.65652,0.00511
3786.59635,0.00529
3784.53618,0.00538
3782.47601,0.00540
3780.41583,0.00567
3778.35566,0.00606
3776.29549,0.00619
3774.23532,0.00591
3772.17515,0.00546
3770.11497,0.00512
3768.05480,0.00509
3765.99463,0.00511
3763.93446,0.00481
3761.87429,0.00426
3759.81411,0.00373
3757.75394,0.00310
3755.69377,0.00250
3753.63360,0.00199
3751.57342,0.00120
3749.51325,0.00027
3747.45308,0.00000
3745.39291,0.00007
3743.33274,0.00097
3741.27256,0.00180
3739.21239,0.00170
3737.15222,0.00159
3735.09205,0.00175
3733.03188,0.00216
3730.97170,0.00268
3728.91153,0.00309
3726.85136,0.00329
3724.79119,0.00338
3722.73102,0.00356
3720.67084,0.00377
3718.61067,0.00358
3716.55050,0.00313
3714.49033,0.00318
3712.43015,0.00411
3710.36998,0.00507
3708.30981,0.00557
3706.24964,0.00580
3704.18947,0.00593
3702.12929,0.00608
3700.06912,0.00619
3698.00895,0.00628
3695.94878,0.00637
3693.88861,0.00653
3691.82843,0.00675
3689.76826,0.00672
3687.70809,0.00661
3685.64792,0.00673
3683.58775,0.00670
3681.52757,0.00652
3679.46740,0.00612
3677.40723,0.00566
3675.34706,0.00565
3673.28688,0.00593
3671.22671,0.00626
3669.16654,0.00692
3667.10637,0.00741
3665.04620,0.00745
3662.98602,0.00742
3660.92585,0.00744
3658.86568,0.00742
3656.80551,0.00741
3654.74534,0.00757
3652.68516,0.00799
3650.62499,0.00860
3648.56482,0.00907
3646.50465,0.00970
3644.44447,0.00998
3642.38430,0.01003
3640.32413,0.01024
3638.26396,0.01044
3636.20379,0.01067
3634.14361,0.01108
3632.08344,0.01139
3630.02327,0.01160
3627.96310,0.01195
3625.90293,0.01229
3623.84275,0.01224
3621.78258,0.01209
3619.72241,0.01226
3617.66224,0.01269
3615.60207,0.01286
3613.54189,0.01262
3611.48172,0.01254
3609.42155,0.01317
3607.36138,0.01424
3605.30120,0.01519
3603.24103,0.01594
3601.18086,0.01666
3599.12069,0.01714
3597.06052,0.01730
3595.00034,0.01737
3592.94017,0.01755
3590.88000,0.01782
3588.81983,0.01819
3586.75966,0.01874
3584.69948,0.01941
3582.63931,0.01992
3580.57914,0.02044
3578.51897,0.02114
3576.45879,0.02172
3574.39862,0.02210
3572.33845,0.02254
3570.27828,0.02299
3568.21811,0.02328
3566.15793,0.02366
3564.09776,0.02416
3562.03759,0.02441
3559.97742,0.02466
3557.91725,0.02517
3555.85707,0.02563
3553.79690,0.02596
3551.73673,0.02623
3549.67656,0.02630
3547.61639,0.02616
3545.55621,0.02631
3543.49604,0.02703
3541.43587,0.02786
3539.37570,0.02852
3537.31552,0.02908
3535.25535,0.02954
3533.19518,0.02993
3531.13501,0.03026
3529.07484,0.03045
3527.01466,0.03044
3524.95449,0.03056
3522.89432,0.03120
3520.83415,0.03213
3518.77398,0.03286
3516.71380,0.03333
3514.65363,0.03362
3512.59346,0.03369
3510.53329,0.03368
3508.47312,0.03378
3506.41294,0.03391
3504.35277,0.03401
3502.29260,0.03429
3500.23243,0.03507
3498.17225,0.03598
3496.11208,0.03651
3494.05191,0.03676
3491.99174,0.03707
3489.93157,0.03744
3487.87139,0.03762
3485.81122,0.03761
3483.75105,0.03779
3481.69088,0.03827
3479.63071,0.03878
3477.57053,0.03918
3475.51036,0.03951
3473.45019,0.03970
3471.39002,0.03979
3469.32984,0.04005
3467.26967,0.04054
3465.20950,0.04097
3463.14933,0.04106
3461.08916,0.04106
3459.02898,0.04134
3456.96881,0.04175
3454.90864,0.04210
3452.84847,0.04245
3450.78830,0.04276
3448.72812,0.04294
3446.66795,0.04312
3444.60778,0.04345
3442.54761,0.04370
3440.48744,0.04363
3438.42726,0.04358
3436.36709,0.04388
3434.30692,0.04435
3432.24675,0.04470
3430.18657,0.04498
3428.12640,0.04512
3426.06623,0.04504
3424.00606,0.04506
3421.94589,0.04537
3419.88571,0.04575
3417.82554,0.04608
3415.76537,0.04625
3413.70520,0.04639
3411.64503,0.04663
3409.58485,0.04673
3407.52468,0.04679
3405.46451,0.04700
3403.40434,0.04722
3401.34416,0.04731
3399.28399,0.04643
3397.22382,0.04671
3395.16365,0.04736
3393.10348,0.04773
3391.04330,0.04782
3388.98313,0.04795
3386.92296,0.04809
3384.86279,0.04818
3382.80262,0.04844
3380.74244,0.04891
3378.68227,0.04929
3376.62210,0.04947
3374.56193,0.04962
3372.50176,0.04970
3370.44158,0.04960
3368.38141,0.04946
3366.32124,0.04945
3364.26107,0.04959
3362.20089,0.04963
3360.14072,0.04954
3358.08055,0.04961
3356.02038,0.04987
3353.96021,0.05007
3351.90003,0.05012
3349.83986,0.05025
3347.77969,0.05054
3345.71952,0.05074
3343.65935,0.05081
3341.59917,0.05076
3339.53900,0.05053
3337.47883,0.05032
3335.41866,0.05024
3333.35849,0.05026
3331.29831,0.05048
3329.23814,0.05087
3327.17797,0.05108
3325.11780,0.05094
3323.05762,0.05082
3320.99745,0.05090
3318.93728,0.05098
3316.87711,0.05101
3314.81694,0.05098
3312.75676,0.05079
3310.69659,0.05068
3308.63642,0.05088
3306.57625,0.05118
3304.51608,0.05144
3302.45590,0.05174
3300.39573,0.05181
3298.33556,0.05155
3296.27539,0.05133
3294.21521,0.05131
3292.15504,0.05127
3290.09487,0.05117
3288.03470,0.05123
3285.97453,0.05141
3283.91435,0.05149
3281.85418,0.05152
3279.79401,0.05150
3277.73384,0.05141
3275.67367,0.05133
3273.61349,0.05130
3271.55332,0.05135
3269.49315,0.05150
3267.43298,0.05173
3265.37281,0.05195
3263.31263,0.05189
3261.25246,0.05155
3259.19229,0.05133
3257.13212,0.05128
3255.07194,0.05114
3253.01177,0.05102
3250.95160,0.05116
3248.89143,0.05140
3246.83126,0.05147
3244.77108,0.05141
3242.71091,0.05143
3240.65074,0.05149
3238.59057,0.05143
3236.53040,0.05127
3234.47022,0.05115
3232.41005,0.05115
3230.34988,0.05118
3228.28971,0.05110
3226.22954,0.05101
3224.16936,0.05102
3222.10919,0.05090
3220.04902,0.05074
3217.98885,0.05078
3215.92867,0.05084
3213.86850,0.05081
3211.80833,0.05073
3209.74816,0.05056
3207.68799,0.05046
3205.62781,0.05044
3203.56764,0.05032
3201.50747,0.05016
3199.44730,0.05013
3197.38713,0.05020
3195.32695,0.05023
3193.26678,0.05011
3191.20661,0.04992
3189.14644,0.04977
3187.08626,0.04962
3185.02609,0.04952
3182.96592,0.04955
3180.90575,0.04951
3178.84558,0.04926
3176.78540,0.04907
3174.72523,0.04907
3172.66506,0.04911
3170.60489,0.04912
3168.54472,0.04907
3166.48454,0.04898
3164.42437,0.04885
3162.36420,0.04866
3160.30403,0.04853
3158.24386,0.04853
3156.18368,0.04843
3154.12351,0.04814
3152.06334,0.04793
3150.00317,0.04785
3147.94299,0.04772
3145.88282,0.04752
3143.82265,0.04731
3141.76248,0.04717
3139.70231,0.04713
3137.64213,0.04707
3135.58196,0.04685
3133.52179,0.04656
3131.46162,0.04645
3129.40145,0.04645
3127.34127,0.04629
3125.28110,0.04602
3123.22093,0.04577
3121.16076,0.04558
3119.10058,0.04540
3117.04041,0.04522
3114.98024,0.04513
3112.92007,0.04516
3110.85990,0.04516
3108.79972,0.04503
3106.73955,0.04480
3104.67938,0.04450
3102.61921,0.04426
3100.55904,0.04417
3098.49886,0.04413
3096.43869,0.04398
3094.37852,0.04388
3092.31835,0.04387
3090.25818,0.04372
3088.19800,0.04354
3086.13783,0.04348
3084.07766,0.04334
3082.01749,0.04300
3079.95731,0.04266
3077.89714,0.04251
3075.83697,0.04244
3073.77680,0.04232
3071.71663,0.04226
3069.65645,0.04228
3067.59628,0.04208
3065.53611,0.04175
3063.47594,0.04171
3061.41577,0.04182
3059.35559,0.04163
3057.29542,0.04114
3055.23525,0.04075
3053.17508,0.04069
3051.11491,0.04072
3049.05473,0.04058
3046.99456,0.04036
3044.93439,0.04019
3042.87422,0.04006
3040.81404,0.03995
3038.75387,0.03978
3036.69370,0.03953
3034.63353,0.03924
3032.57336,0.03894
3030.51318,0.03873
3028.45301,0.03860
3026.39284,0.03841
3024.33267,0.03816
3022.27250,0.03804
3020.21232,0.03798
3018.15215,0.03772
3016.09198,0.03724
3014.03181,0.03682
3011.97163,0.03657
3009.91146,0.03648
3007.85129,0.03638
3005.79112,0.03614
3003.73095,0.03587
3001.67077,0.03578
2999.61060,0.03592
2997.55043,0.03572
2995.49026,0.03540
2993.43009,0.03522
2991.36991,0.03526
2989.30974,0.03519
2987.24957,0.03506
2985.18940,0.03510
2983.12923,0.03517
2981.06905,0.03509
2979.00888,0.03494
2976.94871,0.03488
2974.88854,0.03485
2972.82836,0.03474
2970.76819,0.03458
2968.70802,0.03447
2966.64785,0.03441
2964.58768,0.03446
2962.52750,0.03460
2960.46733,0.03465
2958.40716,0.03466
2956.34699,0.03466
2954.28682,0.03461
2952.22664,0.03459
2950.16647,0.03454
2948.10630,0.03428
2946.04613,0.03406
2943.98596,0.03405
2941.92578,0.03393
2939.86561,0.03359
2937.80544,0.03342
2935.74527,0.03341
2933.68509,0.03338
2931.62492,0.03335
2929.56475,0.03315
2927.50458,0.03279
2925.44441,0.03251
2923.38423,0.03250
2921.32406,0.03264
2919.26389,0.03267
2917.20372,0.03248
2915.14355,0.03227
2913.08337,0.03215
2911.02320,0.03200
2908.96303,0.03180
2906.90286,0.03162
2904.84268,0.03138
2902.78251,0.03108
2900.72234,0.03086
2898.66217,0.03076
2896.60200,0.03077
2894.54182,0.03078
2892.48165,0.03069
2890.42148,0.03058
2888.36131,0.03054
2886.30114,0.03049
2884.24096,0.03032
2882.18079,0.03012
2880.12062,0.02991
2878.06045,0.02968
2876.00028,0.02948
2873.94010,0.02939
2871.87993,0.02938
2869.81976,0.02925
2867.75959,0.02896
2865.69941,0.02869
2863.63924,0.02839
2861.57907,0.02807
2859.51890,0.02785
2857.45873,0.02768
2855.39855,0.02757
2853.33838,0.02752
2851.27821,0.02748
2849.21804,0.02746
2847.15787,0.02744
2845.09769,0.02729
2843.03752,0.02700
2840.97735,0.02671
2838.91718,0.02642
2836.85700,0.02619
2834.79683,0.02614
2832.73666,0.02612
2830.67649,0.02594
2828.61632,0.02565
2826.55614,0.02548
2824.49597,0.02547
2822.43580,0.02538
2820.37563,0.02510
2818.31546,0.02489
2816.25528,0.02494
2814.19511,0.02512
2812.13494,0.02519
2810.07477,0.02501
2808.01460,0.02460
2805.95442,0.02424
2803.89425,0.02412
2801.83408,0.02410
2799.77391,0.02401
2797.71373,0.02390
2795.65356,0.02382
2793.59339,0.02379
2791.53322,0.02376
2789.47305,0.02368
2787.41287,0.02350
2785.35270,0.02333
2783.29253,0.02330
2781.23236,0.02331
2779.17219,0.02320
2777.11201,0.02302
2775.05184,0.02282
2772.99167,0.02261
2770.93150,0.02247
2768.87133,0.02244
2766.81115,0.02247
2764.75098,0.02241
2762.69081,0.02225
2760.63064,0.02206
2758.57046,0.02190
2756.51029,0.02177
2754.45012,0.02164
2752.38995,0.02159
2750.32978,0.02166
2748.26960,0.02169
2746.20943,0.02159
2744.14926,0.02141
2742.08909,0.02122
2740.02892,0.02109
2737.96874,0.02101
2735.90857,0.02091
2733.84840,0.02072
2731.78823,0.02056
2729.72805,0.02049
2727.66788,0.02046
2725.60771,0.02040
2723.54754,0.02030
2721.48737,0.02022
2719.42719,0.02018
2717.36702,0.02009
2715.30685,0.01989
2713.24668,0.01965
2711.18651,0.01952
2709.12633,0.01951
2707.06616,0.01941
2705.00599,0.01928
2702.94582,0.01927
2700.88565,0.01933
2698.82547,0.01924
2696.76530,0.01899
2694.70513,0.01881
2692.64496,0.01868
2690.58478,0.01855
2688.52461,0.01841
2686.46444,0.01834
2684.40427,0.01829
2682.34410,0.01817
2680.28392,0.01806
2678.22375,0.01804
2676.16358,0.01794
2674.10341,0.01777
2672.04324,0.01757
2669.98306,0.01739
2667.92289,0.01730
2665.86272,0.01732
2663.80255,0.01740
2661.74238,0.01750
2659.68220,0.01761
2657.62203,0.01756
2655.56186,0.01730
2653.50169,0.01707
2651.44151,0.01700
2649.38134,0.01693
2647.32117,0.01676
2645.26100,0.01659
2643.20083,0.01646
2641.14065,0.01631
2639.08048,0.01617
2637.02031,0.01619
2634.96014,0.01629
2632.89997,0.01619
2630.83979,0.01598
2628.77962,0.01580
2626.71945,0.01566
2624.65928,0.01556
2622.59910,0.01552
2620.53893,0.01554
2618.47876,0.01551
2616.41859,0.01532
2614.35842,0.01512
2612.29824,0.01510
2610.23807,0.01514
2608.17790,0.01510
2606.11773,0.01491
2604.05756,0.01472
2601.99738,0.01477
2599.93721,0.01491
2597.87704,0.01487
2595.81687,0.01479
2593.75670,0.01470
2591.69652,0.01454
2589.63635,0.01432
2587.57618,0.01409
2585.51601,0.01386
2583.45583,0.01368
2581.39566,0.01364
2579.33549,0.01372
2577.27532,0.01387
2575.21515,0.01404
2573.15497,0.01410
2571.09480,0.01395
2569.03463,0.01375
2566.97446,0.01370
2564.91429,0.01371
2562.85411,0.01365
2560.79394,0.01354
2558.73377,0.01346
2556.67360,0.01342
2554.61342,0.01342
2552.55325,0.01354
2550.49308,0.01366
2548.43291,0.01358
2546.37274,0.01331
2544.31256,0.01321
2542.25239,0.01331
2540.19222,0.01328
2538.13205,0.01326
2536.07188,0.01338
2534.01170,0.01343
2531.95153,0.01340
2529.89136,0.01341
2527.83119,0.01340
2525.77102,0.01344
2523.71084,0.01352
2521.65067,0.01345
2519.59050,0.01337
2517.53033,0.01338
2515.47015,0.01338
2513.40998,0.01340
2511.34981,0.01355
2509.28964,0.01369
2507.22947,0.01359
2505.16929,0.01332
2503.10912,0.01316
2501.04895,0.01311
2498.98878,0.01293
2496.92861,0.01280
2494.86843,0.01297
2492.80826,0.01331
2490.74809,0.01361
2488.68792,0.01370
2486.62775,0.01353
2484.56757,0.01349
2482.50740,0.01376
2480.44723,0.01400
2478.38706,0.01406
2476.32688,0.01401
2474.26671,0.01396
2472.20654,0.01390
2470.14637,0.01377
2468.08620,0.01364
2466.02602,0.01354
2463.96585,0.01350
2461.90568,0.01369
2459.84551,0.01385
2457.78534,0.01363
2455.72516,0.01341
2453.66499,0.01352
2451.60482,0.01358
2449.54465,0.01355
2447.48447,0.01372
2445.42430,0.01385
2443.36413,0.01381
2441.30396,0.01396
2439.24379,0.01416
2437.18361,0.01392
2435.12344,0.01353
2433.06327,0.01339
2431.00310,0.01340
2428.94293,0.01351
2426.88275,0.01360
2424.82258,0.01352
2422.76241,0.01346
2420.70224,0.01347
2418.64207,0.01344
2416.58189,0.01340
2414.52172,0.01341
2412.46155,0.01341
2410.40138,0.01338
2408.34120,0.01335
2406.28103,0.01331
2404.22086,0.01338
2402.16069,0.01362
2400.10052,0.01372
2398.04034,0.01325
2395.98017,0.01315
2393.92000,0.01322
2391.85983,0.01318
2389.79966,0.01314
2387.73948,0.01318
2385.67931,0.01303
2383.61914,0.01261
2381.55897,0.01219
2379.49880,0.01189
2377.43862,0.01153
2375.37845,0.01118
2373.31828,0.01107
2371.25811,0.01171
2369.19793,0.01310
2367.13776,0.01420
2365.07759,0.01426
2363.01742,0.01416
2360.95725,0.01419
2358.89707,0.01463
2356.83690,0.01489
2354.77673,0.01509
2352.71656,0.01487
2350.65639,0.01397
2348.59621,0.01328
2346.53604,0.01391
2344.47587,0.01435
2342.41570,0.01528
2340.35552,0.01590
2338.29535,0.01561
2336.23518,0.01498
2334.17501,0.01441
2332.11484,0.01393
2330.05466,0.01365
2327.99449,0.01387
2325.93432,0.01369
2323.87415,0.01294
2321.81398,0.01177
2319.75380,0.01127
2317.69363,0.01098
2315.63346,0.01070
2313.57329,0.01048
2311.51312,0.01052
2309.45294,0.01071
2307.39277,0.01081
2305.33260,0.01095
2303.27243,0.01128
2301.21225,0.01160
2299.15208,0.01164
2297.09191,0.01161
2295.03174,0.01181
2292.97157,0.01212
2290.91139,0.01224
2288.85122,0.01213
2286.79105,0.01180
2284.73088,0.01140
2282.67071,0.01134
2280.61053,0.01166
2278.55036,0.01182
2276.49019,0.01168
2274.43002,0.01150
2272.36984,0.01123
2270.30967,0.01109
2268.24950,0.01134
2266.18933,0.01165
2264.12916,0.01164
2262.06898,0.01141
2260.00881,0.01116
2257.94864,0.01082
2255.88847,0.01056
2253.82830,0.01053
2251.76812,0.01038
2249.70795,0.00989
2247.64778,0.00987
2245.58761,0.01015
2243.52744,0.00997
2241.46726,0.00955
2239.40709,0.00970
2237.34692,0.01015
2235.28675,0.01036
2233.22657,0.01075
2231.16640,0.01116
2229.10623,0.01099
2227.04606,0.01057
2224.98589,0.01020
2222.92571,0.00985
2220.86554,0.00961
2218.80537,0.00945
2216.74520,0.00936
2214.68503,0.00933
2212.62485,0.00904
2210.56468,0.00845
2208.50451,0.00805
2206.44434,0.00818
2204.38417,0.00879
2202.32399,0.00937
2200.26382,0.00910
2198.20365,0.00855
2196.14348,0.00846
2194.08330,0.00813
2192.02313,0.00783
2189.96296,0.00822
2187.90279,0.00861
2185.84262,0.00862
2183.78244,0.00855
2181.72227,0.00841
2179.66210,0.00832
2177.60193,0.00849
2175.54176,0.00858
2173.48158,0.00855
2171.42141,0.00869
2169.36124,0.00863
2167.30107,0.00823
2165.24089,0.00799
2163.18072,0.00742
2161.12055,0.00589
2159.06038,0.00486
2157.00021,0.00480
2154.94003,0.00505
2152.87986,0.00647
2150.81969,0.00823
2148.75952,0.00852
2146.69935,0.00759
2144.63917,0.00706
2142.57900,0.00739
2140.51883,0.00761
2138.45866,0.00730
2136.39849,0.00673
2134.33831,0.00649
2132.27814,0.00678
2130.21797,0.00735
2128.15780,0.00779
2126.09762,0.00799
2124.03745,0.00807
2121.97728,0.00808
2119.91711,0.00814
2117.85694,0.00814
2115.79676,0.00783
2113.73659,0.00754
2111.67642,0.00756
2109.61625,0.00751
2107.55608,0.00732
2105.49590,0.00719
2103.43573,0.00721
2101.37556,0.00746
2099.31539,0.00826
2097.25521,0.00844
2095.19504,0.00821
2093.13487,0.00756
2091.07470,0.00679
2089.01453,0.00654
2086.95435,0.00681
2084.89418,0.00722
2082.83401,0.00772
2080.77384,0.00841
2078.71367,0.00892
2076.65349,0.00912
2074.59332,0.00915
2072.53315,0.00877
2070.47298,0.00807
2068.41281,0.00768
2066.35263,0.00762
2064.29246,0.00729
2062.23229,0.00663
2060.17212,0.00608
2058.11194,0.00595
2056.05177,0.00608
2053.99160,0.00650
2051.93143,0.00712
2049.87126,0.00785
2047.81108,0.00886
2045.75091,0.01001
2043.69074,0.01047
2041.63057,0.00998
2039.57040,0.00922
2037.51022,0.00865
2035.45005,0.00821
2033.38988,0.00756
2031.32971,0.00662
2029.26954,0.00611
2027.20936,0.00671
2025.14919,0.00771
2023.08902,0.00793
2021.02885,0.00747
2018.96867,0.00669
2016.90850,0.00616
2014.84833,0.00658
2012.78816,0.00760
2010.72799,0.00847
2008.66781,0.00890
2006.60764,0.00844
2004.54747,0.00686
2002.48730,0.00510
2000.42713,0.00438
1998.36695,0.00478
1996.30678,0.00516
1994.24661,0.00475
1992.18644,0.00405
1990.12626,0.00409
1988.06609,0.00495
1986.00592,0.00563
1983.94575,0.00603
1981.88558,0.00698
1979.82540,0.00843
1977.76523,0.00939
1975.70506,0.00882
1973.64489,0.00731
1971.58472,0.00645
1969.52454,0.00638
1967.46437,0.00637
1965.40420,0.00611
1963.34403,0.00584
1961.28386,0.00557
1959.22368,0.00514
1957.16351,0.00469
1955.10334,0.00457
1953.04317,0.00504
1950.98299,0.00579
1948.92282,0.00634
1946.86265,0.00666
1944.80248,0.00680
1942.74231,0.00681
1940.68213,0.00659
1938.62196,0.00613
1936.56179,0.00577
1934.50162,0.00588
1932.44145,0.00606
1930.38127,0.00586
1928.32110,0.00556
1926.26093,0.00542
1924.20076,0.00539
1922.14059,0.00549
1920.08041,0.00566
1918.02024,0.00581
1915.96007,0.00590
1913.89990,0.00601
1911.83972,0.00619
1909.77955,0.00641
1907.71938,0.00660
1905.65921,0.00671
1903.59904,0.00672
1901.53886,0.00658
1899.47869,0.00631
1897.41852,0.00598
1895.35835,0.00557
1893.29818,0.00526
1891.23800,0.00542
1889.17783,0.00583
1887.11766,0.00604
1885.05749,0.00612
1882.99731,0.00613
1880.93714,0.00598
1878.87697,0.00577
1876.81680,0.00576
1874.75663,0.00604
1872.69645,0.00644
1870.63628,0.00670
1868.57611,0.00665
1866.51594,0.00632
1864.45577,0.00605
1862.39559,0.00595
1860.33542,0.00591
1858.27525,0.00596
1856.21508,0.00606
1854.15491,0.00592
1852.09473,0.00572
1850.03456,0.00571
1847.97439,0.00563
1845.91422,0.00511
1843.85404,0.00455
1841.79387,0.00460
1839.73370,0.00512
1837.67353,0.00548
1835.61336,0.00534
1833.55318,0.00520
1831.49301,0.00565
1829.43284,0.00624
1827.37267,0.00633
1825.31250,0.00617
1823.25232,0.00617
1821.19215,0.00621
1819.13198,0.00594
1817.07181,0.00550
1815.01163,0.00530
1812.95146,0.00528
1810.89129,0.00514
1808.83112,0.00498
1806.77095,0.00501
1804.71077,0.00493
1802.65060,0.00465
1800.59043,0.00463
1798.53026,0.00487
1796.47009,0.00498
1794.40991,0.00505
1792.34974,0.00514
1790.28957,0.00505
1788.22940,0.00465
1786.16923,0.00424
1784.10905,0.00435
1782.04888,0.00494
1779.98871,0.00520
1777.92854,0.00502
1775.86836,0.00509
1773.80819,0.00561
1771.74802,0.00575
1769.68785,0.00506
1767.62768,0.00455
1765.56750,0.00480
1763.50733,0.00538
1761.44716,0.00570
1759.38699,0.00568
1757.32682,0.00576
1755.26664,0.00602
1753.20647,0.00633
1751.14630,0.00677
1749.08613,0.00725
1747.02596,0.00740
1744.96578,0.00744
1742.90561,0.00771
1740.84544,0.00804
1738.78527,0.00815
1736.72509,0.00820
1734.66492,0.00829
1732.60475,0.00821
1730.54458,0.00819
1728.48441,0.00816
1726.42423,0.00812
1724.36406,0.00811
1722.30389,0.00832
1720.24372,0.00891
1718.18355,0.00934
1716.12337,0.00879
1714.06320,0.00817
1712.00303,0.00789
1709.94286,0.00807
1707.88268,0.00855
1705.82251,0.00871
1703.76234,0.00858
1701.70217,0.00908
1699.64200,0.01007
1697.58182,0.01062
1695.52165,0.01088
1693.46148,0.01118
1691.40131,0.01154
1689.34114,0.01231
1687.28096,0.01364
1685.22079,0.01553
1683.16062,0.01668
1681.10045,0.01677
1679.04028,0.01704
1676.98010,0.01810
1674.91993,0.01960
1672.85976,0.02091
1670.79959,0.02199
1668.73941,0.02276
1666.67924,0.02304
1664.61907,0.02347
1662.55890,0.02414
1660.49873,0.02427
1658.43855,0.02408
1656.37838,0.02446
1654.31821,0.02563
1652.25804,0.02633
1650.19787,0.02627
1648.13769,0.02621
1646.07752,0.02624
1644.01735,0.02562
1641.95718,0.02502
1639.89701,0.02523
1637.83683,0.02611
1635.77666,0.02660
1633.71649,0.02606
1631.65632,0.02526
1629.59614,0.02493
1627.53597,0.02496
1625.47580,0.02491
1623.41563,0.02460
1621.35546,0.02407
1619.29528,0.02399
1617.23511,0.02437
1615.17494,0.02406
1613.11477,0.02319
1611.05460,0.02276
1608.99442,0.02278
1606.93425,0.02268
1604.87408,0.02253
1602.81391,0.02245
1600.75373,0.02229
1598.69356,0.02206
1596.63339,0.02186
1594.57322,0.02157
1592.51305,0.02110
1590.45287,0.02061
1588.39270,0.02023
1586.33253,0.01985
1584.27236,0.01927
1582.21219,0.01859
1580.15201,0.01828
1578.09184,0.01842
1576.03167,0.01815
1573.97150,0.01703
1571.91133,0.01613
1569.85115,0.01578
1567.79098,0.01521
1565.73081,0.01440
1563.67064,0.01396
1561.61046,0.01445
1559.55029,0.01507
1557.49012,0.01389
1555.42995,0.01225
1553.36978,0.01125
1551.30960,0.01086
1549.24943,0.01061
1547.18926,0.01039
1545.12909,0.01058
1543.06892,0.01128
1541.00874,0.01204
1538.94857,0.01146
1536.88840,0.00996
1534.82823,0.00909
1532.76805,0.00895
1530.70788,0.00862
1528.64771,0.00815
1526.58754,0.00773
1524.52737,0.00740
1522.46719,0.00722
1520.40702,0.00678
1518.34685,0.00640
1516.28668,0.00607
1514.22651,0.00538
1512.16633,0.00478
1510.10616,0.00497
1508.04599,0.00585
1505.98582,0.00628
1503.92565,0.00565
1501.86547,0.00479
1499.80530,0.00479
1497.74513,0.00535
1495.68496,0.00566
1493.62478,0.00585
1491.56461,0.00628
1489.50444,0.00656
1487.44427,0.00642
1485.38410,0.00621
1483.32392,0.00617
1481.26375,0.00627
1479.20358,0.00643
1477.14341,0.00673
1475.08324,0.00713
1473.02306,0.00743
1470.96289,0.00740
1468.90272,0.00720
1466.84255,0.00737
1464.78238,0.00769
1462.72220,0.00776
1460.66203,0.00813
1458.60186,0.00870
1456.54169,0.00847
1454.48151,0.00792
1452.42134,0.00777
1450.36117,0.00833
1448.30100,0.00915
1446.24083,0.00957
1444.18065,0.00961
1442.12048,0.00960
1440.06031,0.00963
1438.00014,0.00965
1435.93997,0.00962
1433.87979,0.00969
1431.81962,0.00994
1429.75945,0.01032
1427.69928,0.01055
1425.63910,0.01074
1423.57893,0.01100
1421.51876,0.01115
1419.45859,0.01121
1417.39842,0.01135
1415.33824,0.01170
1413.27807,0.01214
1411.21790,0.01246
1409.15773,0.01265
1407.09756,0.01276
1405.03738,0.01266
1402.97721,0.01235
1400.91704,0.01202
1398.85687,0.01160
1396.79670,0.01122
1394.73652,0.01108
1392.67635,0.01089
1390.61618,0.01065
1388.55601,0.01063
1386.49583,0.01073
1384.43566,0.01068
1382.37549,0.01054
1380.31532,0.01046
1378.25515,0.01051
1376.19497,0.01071
1374.13480,0.01066
1372.07463,0.01025
1370.01446,0.00994
1367.95429,0.00983
1365.89411,0.00979
1363.83394,0.00956
1361.77377,0.00918
1359.71360,0.00904
1357.65343,0.00919
1355.59325,0.00932
1353.53308,0.00932
1351.47291,0.00924
1349.41274,0.00909
1347.35256,0.00887
1345.29239,0.00864
1343.23222,0.00839
1341.17205,0.00802
1339.11188,0.00767
1337.05170,0.00779
1334.99153,0.00827
1332.93136,0.00858
1330.87119,0.00857
1328.81102,0.00848
1326.75084,0.00848
1324.69067,0.00847
1322.63050,0.00843
1320.57033,0.00841
1318.51015,0.00834
1316.44998,0.00825
1314.38981,0.00825
1312.32964,0.00831
1310.26947,0.00835
1308.20929,0.00836
1306.14912,0.00837
1304.08895,0.00845
1302.02878,0.00855
1299.96861,0.00860
1297.90843,0.00865
1295.84826,0.00880
1293.78809,0.00894
1291.72792,0.00887
1289.66775,0.00866
1287.60757,0.00855
1285.54740,0.00864
1283.48723,0.00882
1281.42706,0.00898
1279.36688,0.00908
1277.30671,0.00917
1275.24654,0.00928
1273.18637,0.00935
1271.12620,0.00938
1269.06602,0.00939
1267.00585,0.00936
1264.94568,0.00943
1262.88551,0.00967
1260.82534,0.00991
1258.76516,0.01002
1256.70499,0.01000
1254.64482,0.00994
1252.58465,0.00999
1250.52447,0.01011
1248.46430,0.01009
1246.40413,0.00986
1244.34396,0.00962
1242.28379,0.00953
1240.22361,0.00943
1238.16344,0.00929
1236.10327,0.00919
1234.04310,0.00904
1231.98293,0.00880
1229.92275,0.00853
1227.86258,0.00820
1225.80241,0.00786
1223.74224,0.00755
1221.68207,0.00718
1219.62189,0.00676
1217.56172,0.00644
1215.50155,0.00621
1213.44138,0.00594
1211.38120,0.00559
1209.32103,0.00523
1207.26086,0.00497
1205.20069,0.00488
1203.14052,0.00485
1201.08034,0.00468
1199.02017,0.00436
1196.96000,0.00431
1194.89983,0.00436
1192.83966,0.00427
1190.77948,0.00407
1188.71931,0.00393
1186.65914,0.00398
1184.59897,0.00432
1182.53880,0.00473
1180.47862,0.00502
1178.41845,0.00527
1176.35828,0.00546
1174.29811,0.00568
1172.23793,0.00614
1170.17776,0.00667
1168.11759,0.00703
1166.05742,0.00742
1163.99725,0.00795
1161.93707,0.00853
1159.87690,0.00910
1157.81673,0.00972
1155.75656,0.01039
1153.69639,0.01106
1151.63621,0.01176
1149.57604,0.01251
1147.51587,0.01323
1145.45570,0.01388
1143.39552,0.01452
1141.33535,0.01524
1139.27518,0.01605
1137.21501,0.01687
1135.15484,0.01786
1133.09466,0.01905
1131.03449,0.02022
1128.97432,0.02133
1126.91415,0.02251
1124.85398,0.02386
1122.79380,0.02534
1120.73363,0.02689
1118.67346,0.02832
1116.61329,0.02969
1114.55312,0.03123
1112.49294,0.03281
1110.43277,0.03426
1108.37260,0.03565
1106.31243,0.03719
1104.25225,0.03877
1102.19208,0.04014
1100.13191,0.04139
1098.07174,0.04261
1096.01157,0.04369
1093.95139,0.04468
1091.89122,0.04566
1089.83105,0.04658
1087.77088,0.04747
1085.71071,0.04837
1083.65053,0.04929
1081.59036,0.05021
1079.53019,0.05110
1077.47002,0.05195
1075.40985,0.05272
1073.34967,0.05343
1071.28950,0.05399
1069.22933,0.05421
1067.16916,0.05414
1065.10898,0.05403
1063.04881,0.05409
1060.98864,0.05421
1058.92847,0.05410
1056.86830,0.05371
1054.80812,0.05314
1052.74795,0.05244
1050.68778,0.05163
1048.62761,0.05079
1046.56744,0.04983
1044.50726,0.04862
1042.44709,0.04712
1040.38692,0.04538
1038.32675,0.04351
1036.26657,0.04143
1034.20640,0.03910
1032.14623,0.03705
1030.08606,0.03561
1028.02589,0.03431
1025.96571,0.03283
1023.90554,0.03134
1021.84537,0.02996
1019.78520,0.02878
1017.72503,0.02773
1015.66485,0.02683
1013.60468,0.02631
1011.54451,0.02602
1009.48434,0.02582
1007.42417,0.02591
1005.36399,0.02631
1003.30382,0.02679
1001.24365,0.02741
999.18348,0.02835
997.12330,0.02941
995.06313,0.03032
993.00296,0.03123
990.94279,0.03238
988.88262,0.03352
986.82244,0.03430
984.76227,0.03467
982.70210,0.03486
980.64193,0.03502
978.58176,0.03502
976.52158,0.03476
974.46141,0.03441
972.40124,0.03397
970.34107,0.03315
968.28089,0.03190
966.22072,0.03046
964.16055,0.02904
962.10038,0.02762
960.04021,0.02623
957.98003,0.02498
955.91986,0.02368
953.85969,0.02224
951.79952,0.02080
949.73935,0.01946
947.67917,0.01824
945.61900,0.01714
943.55883,0.01603
941.49866,0.01490
939.43849,0.01392
937.37831,0.01311
935.31814,0.01227
933.25797,0.01135
931.19780,0.01057
929.13762,0.01005
927.07745,0.00966
925.01728,0.00917
922.95711,0.00872
920.89694,0.00852
918.83676,0.00835
916.77659,0.00802
914.71642,0.00765
912.65625,0.00742
910.59608,0.00725
908.53590,0.00697
906.47573,0.00667
904.41556,0.00652
902.35539,0.00659
900.29522,0.00685
898.23504,0.00722
896.17487,0.00756
894.11470,0.00781
892.05453,0.00818
889.99435,0.00869
887.93418,0.00914
885.87401,0.00954
883.81384,0.01014
881.75367,0.01092
879.69349,0.01149
877.63332,0.01184
875.57315,0.01225
873.51298,0.01277
871.45281,0.01337
869.39263,0.01399
867.33246,0.01447
865.27229,0.01483
863.21212,0.01513
861.15194,0.01521
859.09177,0.01530
857.03160,0.01554
854.97143,0.01560
852.91126,0.01551
850.85108,0.01559
848.79091,0.01559
846.73074,0.01541
844.67057,0.01511
842.61040,0.01457
840.55022,0.01394
838.49005,0.01332
836.42988,0.01269
834.36971,0.01220
832.30954,0.01200
830.24936,0.01191
828.18919,0.01152
826.12902,0.01076
824.06885,0.01016
822.00867,0.01019
819.94850,0.01030
817.88833,0.00996
815.82816,0.00946
813.76799,0.00903
811.70781,0.00850
809.64764,0.00798
807.58747,0.00789
805.52730,0.00814
803.46713,0.00829
801.40695,0.00817
799.34678,0.00777
797.28661,0.00731
795.22644,0.00704
793.16627,0.00702
791.10609,0.00705
789.04592,0.00693
786.98575,0.00686
784.92558,0.00701
782.86540,0.00710
780.80523,0.00703
778.74506,0.00694
776.68489,0.00693
774.62472,0.00683
772.56454,0.00654
770.50437,0.00641
768.44420,0.00649
766.38403,0.00650
764.32386,0.00654
762.26368,0.00649
760.20351,0.00622
758.14334,0.00597
756.08317,0.00585
754.02299,0.00580
751.96282,0.00588
749.90265,0.00599
747.84248,0.00590
745.78231,0.00570
743.72213,0.00555
741.66196,0.00533
739.60179,0.00496
737.54162,0.00477
735.48145,0.00497
733.42127,0.00523
731.36110,0.00511
729.30093,0.00480
727.24076,0.00483
725.18059,0.00512
723.12041,0.00526
721.06024,0.00510
719.00007,0.00511
716.93990,0.00540
714.87972,0.00556
712.81955,0.00548
710.75938,0.00518
708.69921,0.00495
706.63904,0.00506
704.57886,0.00537
702.51869,0.00560
700.45852,0.00563
698.39835,0.00548
696.33818,0.00531
694.27800,0.00514
692.21783,0.00488
690.15766,0.00468
688.09749,0.00482
686.03731,0.00542
683.97714,0.00614
681.91697,0.00640
679.85680,0.00613
677.79663,0.00582
675.73645,0.00583
673.67628,0.00560
671.61611,0.00423
669.55594,0.00397
667.49577,0.00595
665.43559,0.00412
663.37542,0.00478
661.31525,0.00511
659.25508,0.00456
657.19491,0.00392
655.13473,0.00367
653.07456,0.00404
651.01439,0.00430
648.95422,0.00367
646.89404,0.00292
644.83387,0.00304
642.77370,0.00356
640.71353,0.00385
638.65336,0.00380
636.59318,0.00364
634.53301,0.00362
632.47284,0.00362
630.41267,0.00336
628.35250,0.00296
626.29232,0.00287
624.23215,0.00341
622.17198,0.00421
620.11181,0.00433
618.05164,0.00344
615.99146,0.00236
613.93129,0.00188
611.87112,0.00214
609.81095,0.00236
607.75077,0.00224
605.69060,0.00182
603.63043,0.00084
601.57026,0.00000
599.51009,0.00000
