3996.73391,-0.00086
3994.67373,-0.00090
3992.61356,-0.00073
3990.55339,-0.00041
3988.49322,-0.00032
3986.43305,-0.00040
3984.37287,-0.00036
3982.31270,-0.00023
3980.25253,-0.00018
3978.19236,-0.00021
3976.13219,-0.00025
3974.07201,-0.00012
3972.01184,0.00012
3969.95167,0.00031
3967.89150,0.00041
3965.83133,0.00044
3963.77115,0.00033
3961.71098,0.00021
3959.65081,0.00025
3957.59064,0.00057
3955.53046,0.00110
3953.47029,0.00145
3951.41012,0.00118
3949.34995,0.00042
3947.28978,0.00000
3945.22960,0.00027
3943.16943,0.00065
3941.10926,0.00085
3939.04909,0.00098
3936.98892,0.00096
3934.92874,0.00062
3932.86857,0.00037
3930.80840,0.00079
3928.74823,0.00148
3926.68805,0.00176
3924.62788,0.00147
3922.56771,0.00088
3920.50754,0.00050
3918.44737,0.00054
3916.38719,0.00114
3914.32702,0.00204
3912.26685,0.00259
3910.20668,0.00258
3908.14651,0.00217
3906.08633,0.00147
3904.02616,0.00067
3901.96599,0.00067
3899.90582,0.00169
3897.84565,0.00237
3895.78547,0.00212
3893.72530,0.00158
3891.66513,0.00138
3889.60496,0.00151
3887.54478,0.00149
3885.48461,0.00133
3883.42444,0.00115
3881.36427,0.00115
3879.30410,0.00150
3877.24392,0.00174
3875.18375,0.00154
3873.12358,0.00116
3871.06341,0.00101
3869.00324,0.00136
3866.94306,0.00176
3864.88289,0.00181
3862.82272,0.00173
3860.76255,0.00166
3858.70237,0.00110
3856.64220,0.00001
3854.58203,0.00000
3852.52186,0.00167
3850.46169,0.00306
3848.40151,0.00296
3846.34134,0.00251
3844.28117,0.00236
3842.22100,0.00219
3840.16083,0.00175
3838.10065,0.00144
3836.04048,0.00190
3833.98031,0.00267
3831.92014,0.00317
3829.85997,0.00349
3827.79979,0.00353
3825.73962,0.00326
3823.67945,0.00300
3821.61928,0.00309
3819.55910,0.00320
3817.49893,0.00334
3815.43876,0.00374
3813.37859,0.00402
3811.31842,0.00384
3809.25824,0.00366
3807.19807,0.00367
3805.13790,0.00372
3803.07773,0.00392
3801.01756,0.00434
3798.95738,0.00447
3796.89721,0.00443
3794.83704,0.00489
3792.77687,0.00545
3790.71670,0.00559
3788.65652,0.00561
3786.59635,0.00580
3784.53618,0.00600
3782.47601,0.00617
3780.41583,0.00640
3778.35566,0.00648
3776.29549,0.00627
3774.23532,0.00600
3772.17515,0.00585
3770.11497,0.00568
3768.05480,0.00532
3765.99463,0.00490
3763.93446,0.00453
3761.87429,0.00425
3759.81411,0.00401
3757.75394,0.00349
3755.69377,0.00283
3753.63360,0.00224
3751.57342,0.00159
3749.51325,0.00078
3747.45308,0.00019
3745.39291,0.00000
3743.33274,0.00111
3741.27256,0.00221
3739.21239,0.00195
3737.15222,0.00130
3735.09205,0.00117
3733.03188,0.00195
3730.97170,0.00307
3728.91153,0.00367
3726.85136,0.00375
3724.79119,0.00384
3722.73102,0.00420
3720.67084,0.00457
3718.61067,0.00453
3716.55050,0.00409
3714.49033,0.00384
3712.43015,0.00445
3710.36998,0.00546
3708.30981,0.00607
3706.24964,0.00631
3704.18947,0.00637
3702.12929,0.00635
3700.06912,0.00634
3698.00895,0.00650
3695.94878,0.00663
3693.88861,0.00652
3691.82843,0.00647
3689.76826,0.00666
3687.70809,0.00694
3685.64792,0.00714
3683.58775,0.00712
3681.52757,0.00699
3679.46740,0.00666
3677.40723,0.00622
3675.34706,0.00615
3673.28688,0.00632
3671.22671,0.00668
3669.16654,0.00738
3667.10637,0.00781
3665.04620,0.00776
3662.98602,0.00771
3660.92585,0.00784
3658.86568,0.00808
3656.80551,0.00841
3654.74534,0.00865
3652.68516,0.00868
3650.62499,0.00870
3648.56482,0.00888
3646.50465,0.00961
3644.44447,0.00997
3642.38430,0.01003
3640.32413,0.01043
3638.26396,0.01090
3636.20379,0.01105
3634.14361,0.01096
3632.08344,0.01080
3630.02327,0.01110
3627.96310,0.01225
3625.90293,0.01332
3623.84275,0.01347
3621.78258,0.01311
3619.72241,0.01286
3617.66224,0.01284
3615.60207,0.01273
3613.54189,0.01245
3611.48172,0.01239
3609.42155,0.01315
3607.36138,0.01456
3605.30120,0.01565
3603.24103,0.01623
3601.18086,0.01687
3599.12069,0.01759
3597.06052,0.01803
3595.00034,0.01831
3592.94017,0.01862
3590.88000,0.01889
3588.81983,0.01903
3586.75966,0.01928
3584.69948,0.01980
3582.63931,0.02030
3580.57914,0.02077
3578.51897,0.02144
3576.45879,0.02224
3574.39862,0.02276
3572.33845,0.02283
3570.27828,0.02266
3568.21811,0.02263
3566.15793,0.02316
3564.09776,0.02408
3562.03759,0.02474
3559.97742,0.02523
3557.91725,0.02560
3555.85707,0.02570
3553.79690,0.02581
3551.73673,0.02605
3549.67656,0.02607
3547.61639,0.02582
3545.55621,0.02604
3543.49604,0.02697
3541.43587,0.02800
3539.37570,0.02877
3537.31552,0.02948
3535.25535,0.03015
3533.19518,0.03061
3531.13501,0.03081
3529.07484,0.03084
3527.01466,0.03075
3524.95449,0.03085
3522.89432,0.03151
3520.83415,0.03240
3518.77398,0.03306
3516.71380,0.03350
3514.65363,0.03381
3512.59346,0.03387
3510.53329,0.03379
3508.47312,0.03386
3506.41294,0.03412
3504.35277,0.03438
3502.29260,0.03471
3500.23243,0.03537
3498.17225,0.03610
3496.11208,0.03664
3494.05191,0.03702
3491.99174,0.03731
3489.93157,0.03757
3487.87139,0.03785
3485.81122,0.03816
3483.75105,0.03849
3481.69088,0.03875
3479.63071,0.03909
3477.57053,0.03967
3475.51036,0.04016
3473.45019,0.04022
3471.39002,0.04014
3469.32984,0.04037
3467.26967,0.04082
3465.20950,0.04117
3463.14933,0.04127
3461.08916,0.04132
3459.02898,0.04160
3456.96881,0.04205
3454.90864,0.04252
3452.84847,0.04299
3450.78830,0.04329
3448.72812,0.04332
3446.66795,0.04329
3444.60778,0.04339
3442.54761,0.04352
3440.48744,0.04363
3438.42726,0.04391
3436.36709,0.04433
3434.30692,0.04469
3432.24675,0.04497
3430.18657,0.04525
3428.12640,0.04563
3426.06623,0.04587
3424.00606,0.04583
3421.94589,0.04585
3419.88571,0.04610
3417.82554,0.04648
3415.76537,0.04673
3413.70520,0.04689
3411.64503,0.04713
3409.58485,0.04737
3407.52468,0.04751
3405.46451,0.04757
3403.40434,0.04749
3401.34416,0.04735
3399.28399,0.04641
3397.22382,0.04649
3395.16365,0.04687
3393.10348,0.04721
3391.04330,0.04748
3388.98313,0.04769
3386.92296,0.04791
3384.86279,0.04828
3382.80262,0.04872
3380.74244,0.04904
3378.68227,0.04933
3376.62210,0.04956
3374.56193,0.04968
3372.50176,0.04966
3370.44158,0.04951
3368.38141,0.04926
3366.32124,0.04907
3364.26107,0.04929
3362.20089,0.04978
3360.14072,0.05012
3358.08055,0.05024
3356.02038,0.05015
3353.96021,0.04994
3351.90003,0.04986
3349.83986,0.04995
3347.77969,0.05005
3345.71952,0.05017
3343.65935,0.05031
3341.59917,0.05031
3339.53900,0.05010
3337.47883,0.05011
3335.41866,0.05041
3333.35849,0.05062
3331.29831,0.05080
3329.23814,0.05105
3327.17797,0.05112
3325.11780,0.05097
3323.05762,0.05089
3320.99745,0.05097
3318.93728,0.05105
3316.87711,0.05104
3314.81694,0.05086
3312.75676,0.05054
3310.69659,0.05041
3308.63642,0.05063
3306.57625,0.05099
3304.51608,0.05124
3302.45590,0.05142
3300.39573,0.05140
3298.33556,0.05119
3296.27539,0.05106
3294.21521,0.05100
3292.15504,0.05097
3290.09487,0.05102
3288.03470,0.05109
3285.97453,0.05113
3283.91435,0.05128
3281.85418,0.05153
3279.79401,0.05154
3277.73384,0.05124
3275.67367,0.05087
3273.61349,0.05076
3271.55332,0.05098
3269.49315,0.05122
3267.43298,0.05132
3265.37281,0.05143
3263.31263,0.05144
3261.25246,0.05120
3259.19229,0.05102
3257.13212,0.05102
3255.07194,0.05099
3253.01177,0.05089
3250.95160,0.05086
3248.89143,0.05088
3246.83126,0.05077
3244.77108,0.05065
3242.71091,0.05076
3240.65074,0.05088
3238.59057,0.05086
3236.53040,0.05081
3234.47022,0.05078
3232.41005,0.05078
3230.34988,0.05075
3228.28971,0.05064
3226.22954,0.05051
3224.16936,0.05037
3222.10919,0.05014
3220.04902,0.04991
3217.98885,0.04995
3215.92867,0.05007
3213.86850,0.05007
3211.80833,0.04995
3209.74816,0.04972
3207.68799,0.04958
3205.62781,0.04964
3203.56764,0.04971
3201.50747,0.04957
3199.44730,0.04933
3197.38713,0.04929
3195.32695,0.04940
3193.26678,0.04929
3191.20661,0.04904
3189.14644,0.04888
3187.08626,0.04873
3185.02609,0.04861
3182.96592,0.04865
3180.90575,0.04867
3178.84558,0.04855
3176.78540,0.04854
3174.72523,0.04860
3172.66506,0.04854
3170.60489,0.04842
3168.54472,0.04828
3166.48454,0.04816
3164.42437,0.04810
3162.36420,0.04797
3160.30403,0.04774
3158.24386,0.04765
3156.18368,0.04763
3154.12351,0.04737
3152.06334,0.04710
3150.00317,0.04703
3147.94299,0.04699
3145.88282,0.04683
3143.82265,0.04664
3141.76248,0.04652
3139.70231,0.04647
3137.64213,0.04641
3135.58196,0.04624
3133.52179,0.04599
3131.46162,0.04583
3129.40145,0.04573
3127.34127,0.04547
3125.28110,0.04510
3123.22093,0.04477
3121.16076,0.04456
3119.10058,0.04448
3117.04041,0.04437
3114.98024,0.04419
3112.92007,0.04416
3110.85990,0.04417
3108.79972,0.04411
3106.73955,0.04404
3104.67938,0.04380
3102.61921,0.04342
3100.55904,0.04320
3098.49886,0.04312
3096.43869,0.04292
3094.37852,0.04275
3092.31835,0.04285
3090.25818,0.04308
3088.19800,0.04318
3086.13783,0.04310
3084.07766,0.04278
3082.01749,0.04240
3079.95731,0.04218
3077.89714,0.04207
3075.83697,0.04190
3073.77680,0.04178
3071.71663,0.04179
3069.65645,0.04167
3067.59628,0.04127
3065.53611,0.04098
3063.47594,0.04104
3061.41577,0.04115
3059.35559,0.04095
3057.29542,0.04057
3055.23525,0.04037
3053.17508,0.04028
3051.11491,0.04004
3049.05473,0.03978
3046.99456,0.03964
3044.93439,0.03954
3042.87422,0.03934
3040.81404,0.03908
3038.75387,0.03894
3036.69370,0.03883
3034.63353,0.03851
3032.57336,0.03804
3030.51318,0.03777
3028.45301,0.03768
3026.39284,0.03751
3024.33267,0.03725
3022.27250,0.03711
3020.21232,0.03710
3018.15215,0.03694
3016.09198,0.03645
3014.03181,0.03597
3011.97163,0.03579
3009.91146,0.03587
3007.85129,0.03590
3005.79112,0.03568
3003.73095,0.03543
3001.67077,0.03532
2999.61060,0.03531
2997.55043,0.03503
2995.49026,0.03469
2993.43009,0.03451
2991.36991,0.03453
2989.30974,0.03446
2987.24957,0.03434
2985.18940,0.03442
2983.12923,0.03453
2981.06905,0.03454
2979.00888,0.03445
2976.94871,0.03435
2974.88854,0.03422
2972.82836,0.03412
2970.76819,0.03411
2968.70802,0.03418
2966.64785,0.03417
2964.58768,0.03406
2962.52750,0.03398
2960.46733,0.03399
2958.40716,0.03410
2956.34699,0.03419
2954.28682,0.03404
2952.22664,0.03376
2950.16647,0.03354
2948.10630,0.03335
2946.04613,0.03318
2943.98596,0.03310
2941.92578,0.03303
2939.86561,0.03282
2937.80544,0.03263
2935.74527,0.03258
2933.68509,0.03264
2931.62492,0.03270
2929.56475,0.03259
2927.50458,0.03232
2925.44441,0.03210
2923.38423,0.03200
2921.32406,0.03204
2919.26389,0.03213
2917.20372,0.03210
2915.14355,0.03198
2913.08337,0.03175
2911.02320,0.03136
2908.96303,0.03104
2906.90286,0.03093
2904.84268,0.03080
2902.78251,0.03055
2900.72234,0.03038
2898.66217,0.03036
2896.60200,0.03031
2894.54182,0.03010
2892.48165,0.02983
2890.42148,0.02969
2888.36131,0.02971
2886.30114,0.02976
2884.24096,0.02969
2882.18079,0.02952
2880.12062,0.02925
2878.06045,0.02895
2876.00028,0.02875
2873.94010,0.02871
2871.87993,0.02860
2869.81976,0.02832
2867.75959,0.02810
2865.69941,0.02797
2863.63924,0.02776
2861.57907,0.02753
2859.51890,0.02729
2857.45873,0.02708
2855.39855,0.02701
2853.33838,0.02699
2851.27821,0.02690
2849.21804,0.02677
2847.15787,0.02668
2845.09769,0.02654
2843.03752,0.02632
2840.97735,0.02614
2838.91718,0.02600
2836.85700,0.02584
2834.79683,0.02567
2832.73666,0.02549
2830.67649,0.02526
2828.61632,0.02500
2826.55614,0.02482
2824.49597,0.02471
2822.43580,0.02459
2820.37563,0.02447
2818.31546,0.02435
2816.25528,0.02431
2814.19511,0.02440
2812.13494,0.02450
2810.07477,0.02437
2808.01460,0.02404
2805.95442,0.02373
2803.89425,0.02345
2801.83408,0.02328
2799.77391,0.02340
2797.71373,0.02349
2795.65356,0.02333
2793.59339,0.02316
2791.53322,0.02307
2789.47305,0.02290
2787.41287,0.02271
2785.35270,0.02262
2783.29253,0.02261
2781.23236,0.02255
2779.17219,0.02244
2777.11201,0.02237
2775.05184,0.02231
2772.99167,0.02216
2770.93150,0.02197
2768.87133,0.02179
2766.81115,0.02163
2764.75098,0.02146
2762.69081,0.02128
2760.63064,0.02113
2758.57046,0.02107
2756.51029,0.02110
2754.45012,0.02115
2752.38995,0.02123
2750.32978,0.02119
2748.26960,0.02102
2746.20943,0.02082
2744.14926,0.02055
2742.08909,0.02038
2740.02892,0.02034
2737.96874,0.02030
2735.90857,0.02024
2733.84840,0.02017
2731.78823,0.02007
2729.72805,0.02000
2727.66788,0.01998
2725.60771,0.01984
2723.54754,0.01960
2721.48737,0.01941
2719.42719,0.01932
2717.36702,0.01924
2715.30685,0.01922
2713.24668,0.01911
2711.18651,0.01892
2709.12633,0.01878
2707.06616,0.01868
2705.00599,0.01863
2702.94582,0.01863
2700.88565,0.01858
2698.82547,0.01842
2696.76530,0.01827
2694.70513,0.01816
2692.64496,0.01803
2690.58478,0.01795
2688.52461,0.01798
2686.46444,0.01793
2684.40427,0.01775
2682.34410,0.01760
2680.28392,0.01757
2678.22375,0.01758
2676.16358,0.01746
2674.10341,0.01729
2672.04324,0.01719
2669.98306,0.01707
2667.92289,0.01693
2665.86272,0.01683
2663.80255,0.01682
2661.74238,0.01684
2659.68220,0.01684
2657.62203,0.01683
2655.56186,0.01674
2653.50169,0.01658
2651.44151,0.01649
2649.38134,0.01637
2647.32117,0.01625
2645.26100,0.01624
2643.20083,0.01616
2641.14065,0.01595
2639.08048,0.01571
2637.02031,0.01557
2634.96014,0.01558
2632.89997,0.01556
2630.83979,0.01548
2628.77962,0.01538
2626.71945,0.01520
2624.65928,0.01504
2622.59910,0.01491
2620.53893,0.01470
2618.47876,0.01456
2616.41859,0.01455
2614.35842,0.01456
2612.29824,0.01455
2610.23807,0.01442
2608.17790,0.01426
2606.11773,0.01418
2604.05756,0.01414
2601.99738,0.01404
2599.93721,0.01393
2597.87704,0.01390
2595.81687,0.01387
2593.75670,0.01391
2591.69652,0.01388
2589.63635,0.01373
2587.57618,0.01379
2585.51601,0.01391
2583.45583,0.01377
2581.39566,0.01363
2579.33549,0.01364
2577.27532,0.01364
2575.21515,0.01359
2573.15497,0.01348
2571.09480,0.01324
2569.03463,0.01310
2566.97446,0.01321
2564.91429,0.01330
2562.85411,0.01325
2560.79394,0.01334
2558.73377,0.01349
2556.67360,0.01347
2554.61342,0.01349
2552.55325,0.01356
2550.49308,0.01353
2548.43291,0.01340
2546.37274,0.01324
2544.31256,0.01315
2542.25239,0.01308
2540.19222,0.01293
2538.13205,0.01275
2536.07188,0.01268
2534.01170,0.01281
2531.95153,0.01304
2529.89136,0.01320
2527.83119,0.01312
2525.77102,0.01288
2523.71084,0.01277
2521.65067,0.01282
2519.59050,0.01290
2517.53033,0.01296
2515.47015,0.01298
2513.40998,0.01291
2511.34981,0.01285
2509.28964,0.01299
2507.22947,0.01314
2505.16929,0.01307
2503.10912,0.01293
2501.04895,0.01289
2498.98878,0.01271
2496.92861,0.01258
2494.86843,0.01289
2492.80826,0.01327
2490.74809,0.01334
2488.68792,0.01320
2486.62775,0.01310
2484.56757,0.01306
2482.50740,0.01299
2480.44723,0.01291
2478.38706,0.01276
2476.32688,0.01275
2474.26671,0.01314
2472.20654,0.01367
2470.14637,0.01395
2468.08620,0.01383
2466.02602,0.01350
2463.96585,0.01337
2461.90568,0.01352
2459.84551,0.01364
2457.78534,0.01351
2455.72516,0.01338
2453.66499,0.01336
2451.60482,0.01314
2449.54465,0.01290
2447.48447,0.01314
2445.42430,0.01360
2443.36413,0.01365
2441.30396,0.01357
2439.24379,0.01378
2437.18361,0.01390
2435.12344,0.01368
2433.06327,0.01335
2431.00310,0.01310
2428.94293,0.01306
2426.88275,0.01313
2424.82258,0.01315
2422.76241,0.01322
2420.70224,0.01322
2418.64207,0.01297
2416.58189,0.01271
2414.52172,0.01264
2412.46155,0.01261
2410.40138,0.01246
2408.34120,0.01239
2406.28103,0.01247
2404.22086,0.01260
2402.16069,0.01277
2400.10052,0.01282
2398.04034,0.01243
2395.98017,0.01249
2393.92000,0.01270
2391.85983,0.01278
2389.79966,0.01277
2387.73948,0.01272
2385.67931,0.01259
2383.61914,0.01226
2381.55897,0.01177
2379.49880,0.01130
2377.43862,0.01101
2375.37845,0.01091
2373.31828,0.01111
2371.25811,0.01171
2369.19793,0.01292
2367.13776,0.01427
2365.07759,0.01447
2363.01742,0.01335
2360.95725,0.01288
2358.89707,0.01276
2356.83690,0.01302
2354.77673,0.01343
2352.71656,0.01373
2350.65639,0.01451
2348.59621,0.01490
2346.53604,0.01354
2344.47587,0.01331
2342.41570,0.01426
2340.35552,0.01512
2338.29535,0.01516
2336.23518,0.01465
2334.17501,0.01414
2332.11484,0.01355
2330.05466,0.01318
2327.99449,0.01294
2325.93432,0.01276
2323.87415,0.01190
2321.81398,0.01089
2319.75380,0.01011
2317.69363,0.01015
2315.63346,0.01033
2313.57329,0.01035
2311.51312,0.01041
2309.45294,0.01054
2307.39277,0.01075
2305.33260,0.01108
2303.27243,0.01139
2301.21225,0.01137
2299.15208,0.01116
2297.09191,0.01109
2295.03174,0.01132
2292.97157,0.01161
2290.91139,0.01169
2288.85122,0.01173
2286.79105,0.01169
2284.73088,0.01135
2282.67071,0.01095
2280.61053,0.01095
2278.55036,0.01121
2276.49019,0.01133
2274.43002,0.01123
2272.36984,0.01099
2270.30967,0.01089
2268.24950,0.01116
2266.18933,0.01156
2264.12916,0.01170
2262.06898,0.01159
2260.00881,0.01136
2257.94864,0.01101
2255.88847,0.01079
2253.82830,0.01093
2251.76812,0.01091
2249.70795,0.01045
2247.64778,0.01046
2245.58761,0.01060
2243.52744,0.01010
2241.46726,0.00960
2239.40709,0.00981
2237.34692,0.01016
2235.28675,0.01007
2233.22657,0.00995
2231.16640,0.01024
2229.10623,0.01052
2227.04606,0.01040
2224.98589,0.01007
2222.92571,0.00958
2220.86554,0.00898
2218.80537,0.00886
2216.74520,0.00905
2214.68503,0.00904
2212.62485,0.00925
2210.56468,0.00950
2208.50451,0.00904
2206.44434,0.00839
2204.38417,0.00860
2202.32399,0.00924
2200.26382,0.00875
2198.20365,0.00807
2196.14348,0.00847
2194.08330,0.00869
2192.02313,0.00861
2189.96296,0.00887
2187.90279,0.00884
2185.84262,0.00838
2183.78244,0.00807
2181.72227,0.00828
2179.66210,0.00873
2177.60193,0.00882
2175.54176,0.00849
2173.48158,0.00826
2171.42141,0.00844
2169.36124,0.00855
2167.30107,0.00846
2165.24089,0.00851
2163.18072,0.00819
2161.12055,0.00669
2159.06038,0.00487
2157.00021,0.00447
2154.94003,0.00573
2152.87986,0.00749
2150.81969,0.00821
2148.75952,0.00762
2146.69935,0.00688
2144.63917,0.00685
2142.57900,0.00719
2140.51883,0.00726
2138.45866,0.00701
2136.39849,0.00672
2134.33831,0.00665
2132.27814,0.00675
2130.21797,0.00692
2128.15780,0.00733
2126.09762,0.00769
2124.03745,0.00757
2121.97728,0.00750
2119.91711,0.00767
2117.85694,0.00747
2115.79676,0.00713
2113.73659,0.00730
2111.67642,0.00742
2109.61625,0.00702
2107.55608,0.00679
2105.49590,0.00706
2103.43573,0.00720
2101.37556,0.00705
2099.31539,0.00771
2097.25521,0.00810
2095.19504,0.00774
2093.13487,0.00678
2091.07470,0.00612
2089.01453,0.00632
2086.95435,0.00683
2084.89418,0.00712
2082.83401,0.00745
2080.77384,0.00801
2078.71367,0.00831
2076.65349,0.00822
2074.59332,0.00799
2072.53315,0.00764
2070.47298,0.00749
2068.41281,0.00804
2066.35263,0.00861
2064.29246,0.00819
2062.23229,0.00711
2060.17212,0.00619
2058.11194,0.00596
2056.05177,0.00650
2053.99160,0.00747
2051.93143,0.00825
2049.87126,0.00850
2047.81108,0.00863
2045.75091,0.00913
2043.69074,0.00923
2041.63057,0.00856
2039.57040,0.00815
2037.51022,0.00860
2035.45005,0.00901
2033.38988,0.00837
2031.32971,0.00703
2029.26954,0.00623
2027.20936,0.00627
2025.14919,0.00642
2023.08902,0.00647
2021.02885,0.00652
2018.96867,0.00660
2016.90850,0.00716
2014.84833,0.00801
2012.78816,0.00854
2010.72799,0.00876
2008.66781,0.00838
2006.60764,0.00711
2004.54747,0.00580
2002.48730,0.00527
2000.42713,0.00517
1998.36695,0.00507
1996.30678,0.00517
1994.24661,0.00549
1992.18644,0.00561
1990.12626,0.00546
1988.06609,0.00552
1986.00592,0.00591
1983.94575,0.00667
1981.88558,0.00806
1979.82540,0.00942
1977.76523,0.00966
1975.70506,0.00851
1973.64489,0.00732
1971.58472,0.00719
1969.52454,0.00697
1967.46437,0.00589
1965.40420,0.00499
1963.34403,0.00493
1961.28386,0.00532
1959.22368,0.00548
1957.16351,0.00499
1955.10334,0.00430
1953.04317,0.00432
1950.98299,0.00497
1948.92282,0.00550
1946.86265,0.00578
1944.80248,0.00599
1942.74231,0.00634
1940.68213,0.00653
1938.62196,0.00630
1936.56179,0.00601
1934.50162,0.00600
1932.44145,0.00613
1930.38127,0.00626
1928.32110,0.00632
1926.26093,0.00601
1924.20076,0.00541
1922.14059,0.00498
1920.08041,0.00480
1918.02024,0.00484
1915.96007,0.00520
1913.89990,0.00581
1911.83972,0.00629
1909.77955,0.00646
1907.71938,0.00638
1905.65921,0.00626
1903.59904,0.00612
1901.53886,0.00583
1899.47869,0.00561
1897.41852,0.00570
1895.35835,0.00577
1893.29818,0.00553
1891.23800,0.00540
1889.17783,0.00553
1887.11766,0.00561
1885.05749,0.00565
1882.99731,0.00571
1880.93714,0.00570
1878.87697,0.00561
1876.81680,0.00558
1874.75663,0.00561
1872.69645,0.00573
1870.63628,0.00605
1868.57611,0.00635
1866.51594,0.00624
1864.45577,0.00588
1862.39559,0.00556
1860.33542,0.00540
1858.27525,0.00547
1856.21508,0.00563
1854.15491,0.00554
1852.09473,0.00525
1850.03456,0.00506
1847.97439,0.00495
1845.91422,0.00471
1843.85404,0.00440
1841.79387,0.00433
1839.73370,0.00457
1837.67353,0.00476
1835.61336,0.00461
1833.55318,0.00462
1831.49301,0.00521
1829.43284,0.00581
1827.37267,0.00595
1825.31250,0.00597
1823.25232,0.00604
1821.19215,0.00598
1819.13198,0.00566
1817.07181,0.00527
1815.01163,0.00510
1812.95146,0.00506
1810.89129,0.00492
1808.83112,0.00473
1806.77095,0.00459
1804.71077,0.00437
1802.65060,0.00409
1800.59043,0.00414
1798.53026,0.00430
1796.47009,0.00425
1794.40991,0.00428
1792.34974,0.00449
1790.28957,0.00448
1788.22940,0.00411
1786.16923,0.00372
1784.10905,0.00390
1782.04888,0.00452
1779.98871,0.00476
1777.92854,0.00453
1775.86836,0.00452
1773.80819,0.00495
1771.74802,0.00512
1769.68785,0.00463
1767.62768,0.00423
1765.56750,0.00436
1763.50733,0.00475
1761.44716,0.00506
1759.38699,0.00515
1757.32682,0.00530
1755.26664,0.00556
1753.20647,0.00577
1751.14630,0.00604
1749.08613,0.00640
1747.02596,0.00657
1744.96578,0.00667
1742.90561,0.00705
1740.84544,0.00753
1738.78527,0.00770
1736.72509,0.00756
1734.66492,0.00751
1732.60475,0.00766
1730.54458,0.00784
1728.48441,0.00780
1726.42423,0.00767
1724.36406,0.00758
1722.30389,0.00767
1720.24372,0.00812
1718.18355,0.00856
1716.12337,0.00817
1714.06320,0.00768
1712.00303,0.00745
1709.94286,0.00757
1707.88268,0.00796
1705.82251,0.00817
1703.76234,0.00811
1701.70217,0.00849
1699.64200,0.00924
1697.58182,0.00981
1695.52165,0.01037
1693.46148,0.01095
1691.40131,0.01140
1689.34114,0.01204
1687.28096,0.01310
1685.22079,0.01473
1683.16062,0.01589
1681.10045,0.01617
1679.04028,0.01652
1676.98010,0.01755
1674.91993,0.01910
1672.85976,0.02055
1670.79959,0.02176
1668.73941,0.02263
1666.67924,0.02298
1664.61907,0.02336
1662.55890,0.02397
1660.49873,0.02414
1658.43855,0.02396
1656.37838,0.02421
1654.31821,0.02509
1652.25804,0.02561
1650.19787,0.02556
1648.13769,0.02554
1646.07752,0.02576
1644.01735,0.02550
1641.95718,0.02510
1639.89701,0.02529
1637.83683,0.02604
1635.77666,0.02644
1633.71649,0.02593
1631.65632,0.02517
1629.59614,0.02481
1627.53597,0.02479
1625.47580,0.02468
1623.41563,0.02430
1621.35546,0.02369
1619.29528,0.02352
1617.23511,0.02389
1615.17494,0.02374
1613.11477,0.02301
1611.05460,0.02252
1608.99442,0.02245
1606.93425,0.02244
1604.87408,0.02237
1602.81391,0.02222
1600.75373,0.02197
1598.69356,0.02170
1596.63339,0.02143
1594.57322,0.02102
1592.51305,0.02048
1590.45287,0.01997
1588.39270,0.01954
1586.33253,0.01917
1584.27236,0.01874
1582.21219,0.01820
1580.15201,0.01783
1578.09184,0.01775
1576.03167,0.01739
1573.97150,0.01644
1571.91133,0.01569
1569.85115,0.01533
1567.79098,0.01469
1565.73081,0.01382
1563.67064,0.01335
1561.61046,0.01378
1559.55029,0.01425
1557.49012,0.01298
1555.42995,0.01144
1553.36978,0.01060
1551.30960,0.01026
1549.24943,0.00998
1547.18926,0.00969
1545.12909,0.00972
1543.06892,0.01025
1541.00874,0.01099
1538.94857,0.01063
1536.88840,0.00935
1534.82823,0.00854
1532.76805,0.00841
1530.70788,0.00806
1528.64771,0.00747
1526.58754,0.00679
1524.52737,0.00621
1522.46719,0.00601
1520.40702,0.00583
1518.34685,0.00565
1516.28668,0.00533
1514.22651,0.00464
1512.16633,0.00404
1510.10616,0.00413
1508.04599,0.00491
1505.98582,0.00545
1503.92565,0.00503
1501.86547,0.00435
1499.80530,0.00446
1497.74513,0.00499
1495.68496,0.00517
1493.62478,0.00525
1491.56461,0.00557
1489.50444,0.00579
1487.44427,0.00576
1485.38410,0.00566
1483.32392,0.00560
1481.26375,0.00566
1479.20358,0.00590
1477.14341,0.00625
1475.08324,0.00663
1473.02306,0.00688
1470.96289,0.00683
1468.90272,0.00666
1466.84255,0.00687
1464.78238,0.00724
1462.72220,0.00728
1460.66203,0.00744
1458.60186,0.00783
1456.54169,0.00779
1454.48151,0.00758
1452.42134,0.00750
1450.36117,0.00784
1448.30100,0.00846
1446.24083,0.00890
1444.18065,0.00909
1442.12048,0.00916
1440.06031,0.00915
1438.00014,0.00905
1435.93997,0.00895
1433.87979,0.00903
1431.81962,0.00929
1429.75945,0.00967
1427.69928,0.00996
1425.63910,0.01024
1423.57893,0.01049
1421.51876,0.01055
1419.45859,0.01053
1417.39842,0.01073
1415.33824,0.01121
1413.27807,0.01170
1411.21790,0.01199
1409.15773,0.01206
1407.09756,0.01207
1405.03738,0.01203
1402.97721,0.01186
1400.91704,0.01148
1398.85687,0.01083
1396.79670,0.01026
1394.73652,0.01015
1392.67635,0.01017
1390.61618,0.01008
1388.55601,0.01001
1386.49583,0.01005
1384.43566,0.01011
1382.37549,0.01005
1380.31532,0.00993
1378.25515,0.00992
1376.19497,0.01002
1374.13480,0.00987
1372.07463,0.00948
1370.01446,0.00924
1367.95429,0.00919
1365.89411,0.00910
1363.83394,0.00882
1361.77377,0.00849
1359.71360,0.00848
1357.65343,0.00868
1355.59325,0.00877
1353.53308,0.00876
1351.47291,0.00872
1349.41274,0.00862
1347.35256,0.00840
1345.29239,0.00816
1343.23222,0.00787
1341.17205,0.00747
1339.11188,0.00712
1337.05170,0.00723
1334.99153,0.00768
1332.93136,0.00797
1330.87119,0.00800
1328.81102,0.00800
1326.75084,0.00803
1324.69067,0.00801
1322.63050,0.00795
1320.57033,0.00789
1318.51015,0.00777
1316.44998,0.00765
1314.38981,0.00764
1312.32964,0.00776
1310.26947,0.00792
1308.20929,0.00799
1306.14912,0.00793
1304.08895,0.00793
1302.02878,0.00802
1299.96861,0.00803
1297.90843,0.00806
1295.84826,0.00821
1293.78809,0.00833
1291.72792,0.00831
1289.66775,0.00821
1287.60757,0.00810
1285.54740,0.00808
1283.48723,0.00819
1281.42706,0.00832
1279.36688,0.00837
1277.30671,0.00840
1275.24654,0.00851
1273.18637,0.00867
1271.12620,0.00878
1269.06602,0.00884
1267.00585,0.00889
1264.94568,0.00900
1262.88551,0.00919
1260.82534,0.00938
1258.76516,0.00951
1256.70499,0.00952
1254.64482,0.00945
1252.58465,0.00945
1250.52447,0.00948
1248.46430,0.00940
1246.40413,0.00921
1244.34396,0.00902
1242.28379,0.00889
1240.22361,0.00882
1238.16344,0.00878
1236.10327,0.00871
1234.04310,0.00853
1231.98293,0.00832
1229.92275,0.00810
1227.86258,0.00776
1225.80241,0.00743
1223.74224,0.00722
1221.68207,0.00700
1219.62189,0.00668
1217.56172,0.00633
1215.50155,0.00594
1213.44138,0.00551
1211.38120,0.00516
1209.32103,0.00494
1207.26086,0.00476
1205.20069,0.00462
1203.14052,0.00451
1201.08034,0.00436
1199.02017,0.00413
1196.96000,0.00407
1194.89983,0.00402
1192.83966,0.00385
1190.77948,0.00369
1188.71931,0.00365
1186.65914,0.00378
1184.59897,0.00410
1182.53880,0.00445
1180.47862,0.00472
1178.41845,0.00496
1176.35828,0.00514
1174.29811,0.00538
1172.23793,0.00579
1170.17776,0.00622
1168.11759,0.00661
1166.05742,0.00701
1163.99725,0.00746
1161.93707,0.00798
1159.87690,0.00853
1157.81673,0.00913
1155.75656,0.00974
1153.69639,0.01033
1151.63621,0.01091
1149.57604,0.01155
1147.51587,0.01221
1145.45570,0.01284
1143.39552,0.01348
1141.33535,0.01411
1139.27518,0.01479
1137.21501,0.01559
1135.15484,0.01653
1133.09466,0.01756
1131.03449,0.01862
1128.97432,0.01976
1126.91415,0.02095
1124.85398,0.02219
1122.79380,0.02360
1120.73363,0.02506
1118.67346,0.02638
1116.61329,0.02762
1114.55312,0.02901
1112.49294,0.03056
1110.43277,0.03208
1108.37260,0.03343
1106.31243,0.03481
1104.25225,0.03630
1102.19208,0.03764
1100.13191,0.03878
1098.07174,0.03996
1096.01157,0.04115
1093.95139,0.04221
1091.89122,0.04310
1089.83105,0.04399
1087.77088,0.04502
1085.71071,0.04612
1083.65053,0.04711
1081.59036,0.04795
1079.53019,0.04876
1077.47002,0.04964
1075.40985,0.05045
1073.34967,0.05109
1071.28950,0.05149
1069.22933,0.05168
1067.16916,0.05173
1065.10898,0.05165
1063.04881,0.05158
1060.98864,0.05161
1058.92847,0.05154
1056.86830,0.05124
1054.80812,0.05081
1052.74795,0.05030
1050.68778,0.04969
1048.62761,0.04888
1046.56744,0.04789
1044.50726,0.04689
1042.44709,0.04578
1040.38692,0.04436
1038.32675,0.04259
1036.26657,0.04046
1034.20640,0.03806
1032.14623,0.03597
1030.08606,0.03455
1028.02589,0.03342
1025.96571,0.03210
1023.90554,0.03058
1021.84537,0.02914
1019.78520,0.02794
1017.72503,0.02691
1015.66485,0.02608
1013.60468,0.02553
1011.54451,0.02519
1009.48434,0.02504
1007.42417,0.02503
1005.36399,0.02510
1003.30382,0.02551
1001.24365,0.02640
999.18348,0.02749
997.12330,0.02855
995.06313,0.02945
993.00296,0.03029
990.94279,0.03132
988.88262,0.03235
986.82244,0.03306
984.76227,0.03345
982.70210,0.03372
980.64193,0.03382
978.58176,0.03359
976.52158,0.03310
974.46141,0.03256
972.40124,0.03196
970.34107,0.03113
968.28089,0.03003
966.22072,0.02878
964.16055,0.02753
962.10038,0.02630
960.04021,0.02498
957.98003,0.02365
955.91986,0.02238
953.85969,0.02103
951.79952,0.01968
949.73935,0.01833
947.67917,0.01706
945.61900,0.01599
943.55883,0.01501
941.49866,0.01388
939.43849,0.01277
937.37831,0.01193
935.31814,0.01117
933.25797,0.01040
931.19780,0.00985
929.13762,0.00944
927.07745,0.00902
925.01728,0.00864
922.95711,0.00829
920.89694,0.00792
918.83676,0.00755
916.77659,0.00712
914.71642,0.00658
912.65625,0.00625
910.59608,0.00619
908.53590,0.00604
906.47573,0.00586
904.41556,0.00593
902.35539,0.00620
900.29522,0.00647
898.23504,0.00659
896.17487,0.00684
894.11470,0.00726
892.05453,0.00763
889.99435,0.00808
887.93418,0.00863
885.87401,0.00916
883.81384,0.00960
881.75367,0.00998
879.69349,0.01025
877.63332,0.01055
875.57315,0.01115
873.51298,0.01187
871.45281,0.01248
869.39263,0.01307
867.33246,0.01360
865.27229,0.01393
863.21212,0.01407
861.15194,0.01421
859.09177,0.01446
857.03160,0.01460
854.97143,0.01450
852.91126,0.01437
850.85108,0.01431
848.79091,0.01421
846.73074,0.01407
844.67057,0.01398
842.61040,0.01378
840.55022,0.01337
838.49005,0.01285
836.42988,0.01220
834.36971,0.01172
832.30954,0.01153
830.24936,0.01124
828.18919,0.01087
826.12902,0.01054
824.06885,0.01017
822.00867,0.00982
819.94850,0.00947
817.88833,0.00910
815.82816,0.00887
813.76799,0.00871
811.70781,0.00829
809.64764,0.00775
807.58747,0.00759
805.52730,0.00782
803.46713,0.00804
801.40695,0.00802
799.34678,0.00780
797.28661,0.00752
795.22644,0.00731
793.16627,0.00720
791.10609,0.00706
789.04592,0.00681
786.98575,0.00659
784.92558,0.00650
782.86540,0.00648
780.80523,0.00650
778.74506,0.00656
776.68489,0.00660
774.62472,0.00653
772.56454,0.00634
770.50437,0.00621
768.44420,0.00616
766.38403,0.00612
764.32386,0.00621
762.26368,0.00640
760.20351,0.00648
758.14334,0.00635
756.08317,0.00607
754.02299,0.00584
751.96282,0.00585
749.90265,0.00575
747.84248,0.00537
745.78231,0.00517
743.72213,0.00528
741.66196,0.00524
739.60179,0.00489
737.54162,0.00481
735.48145,0.00537
733.42127,0.00597
731.36110,0.00595
729.30093,0.00557
727.24076,0.00526
725.18059,0.00514
723.12041,0.00536
721.06024,0.00523
719.00007,0.00557
716.93990,0.00594
714.87972,0.00616
712.81955,0.00642
710.75938,0.00633
708.69921,0.00575
706.63904,0.00529
704.57886,0.00552
702.51869,0.00603
700.45852,0.00602
698.39835,0.00563
696.33818,0.00549
694.27800,0.00581
692.21783,0.00629
690.15766,0.00642
688.09749,0.00625
686.03731,0.00631
683.97714,0.00692
681.91697,0.00758
679.85680,0.00755
677.79663,0.00694
675.73645,0.00655
673.67628,0.00674
671.61611,0.00670
669.55594,0.00460
667.49577,0.00264
665.43559,0.00584
663.37542,0.00666
661.31525,0.00666
659.25508,0.00676
657.19491,0.00640
655.13473,0.00555
653.07456,0.00506
651.01439,0.00503
648.95422,0.00488
646.89404,0.00468
644.83387,0.00464
642.77370,0.00511
640.71353,0.00561
638.65336,0.00532
636.59318,0.00449
634.53301,0.00394
632.47284,0.00376
630.41267,0.00347
628.35250,0.00302
626.29232,0.00280
624.23215,0.00294
622.17198,0.00313
620.11181,0.00256
618.05164,0.00098
615.99146,-0.00004
613.93129,0.00079
611.87112,0.00175
609.81095,0.00144
607.75077,0.00156
605.69060,0.00251
603.63043,0.00215
601.57026,0.00045
599.51009,0.00000
