3996.73391,-0.00055
3994.67373,-0.00071
3992.61356,-0.00067
3990.55339,-0.00037
3988.49322,-0.00012
3986.43305,-0.00001
3984.37287,0.00009
3982.31270,0.00022
3980.25253,0.00027
3978.19236,0.00018
3976.13219,0.00005
3974.07201,0.00010
3972.01184,0.00028
3969.95167,0.00043
3967.89150,0.00058
3965.83133,0.00065
3963.77115,0.00058
3961.71098,0.00048
3959.65081,0.00054
3957.59064,0.00075
3955.53046,0.00099
3953.47029,0.00112
3951.41012,0.00093
3949.34995,0.00034
3947.28978,0.00000
3945.22960,0.00033
3943.16943,0.00074
3941.10926,0.00091
3939.04909,0.00103
3936.98892,0.00098
3934.92874,0.00068
3932.86857,0.00066
3930.80840,0.00121
3928.74823,0.00170
3926.68805,0.00172
3924.62788,0.00138
3922.56771,0.00084
3920.50754,0.00045
3918.44737,0.00047
3916.38719,0.00111
3914.32702,0.00188
3912.26685,0.00206
3910.20668,0.00186
3908.14651,0.00166
3906.08633,0.00134
3904.02616,0.00073
3901.96599,0.00050
3899.90582,0.00109
3897.84565,0.00164
3895.78547,0.00164
3893.72530,0.00144
3891.66513,0.00135
3889.60496,0.00135
3887.54478,0.00112
3885.48461,0.00078
3883.42444,0.00056
3881.36427,0.00060
3879.30410,0.00103
3877.24392,0.00147
3875.18375,0.00145
3873.12358,0.00104
3871.06341,0.00078
3869.00324,0.00107
3866.94306,0.00134
3864.88289,0.00125
3862.82272,0.00116
3860.76255,0.00118
3858.70237,0.00079
3856.64220,-0.00005
3854.58203,0.00000
3852.52186,0.00139
3850.46169,0.00257
3848.40151,0.00246
3846.34134,0.00208
3844.28117,0.00208
3842.22100,0.00205
3840.16083,0.00153
3838.10065,0.00104
3836.04048,0.00140
3833.98031,0.00215
3831.92014,0.00274
3829.85997,0.00318
3827.79979,0.00324
3825.73962,0.00286
3823.67945,0.00260
3821.61928,0.00291
3819.55910,0.00298
3817.49893,0.00273
3815.43876,0.00284
3813.37859,0.00313
3811.31842,0.00311
3809.25824,0.00314
3807.19807,0.00329
3805.13790,0.00324
3803.07773,0.00329
3801.01756,0.00366
3798.95738,0.00388
3796.89721,0.00385
3794.83704,0.00411
3792.77687,0.00453
3790.71670,0.00464
3788.65652,0.00463
3786.59635,0.00477
3784.53618,0.00497
3782.47601,0.00528
3780.41583,0.00579
3778.35566,0.00604
3776.29549,0.00588
3774.23532,0.00549
3772.17515,0.00505
3770.11497,0.00468
3768.05480,0.00451
3765.99463,0.00450
3763.93446,0.00442
3761.87429,0.00417
3759.81411,0.00375
3757.75394,0.00304
3755.69377,0.00234
3753.63360,0.00188
3751.57342,0.00133
3749.51325,0.00049
3747.45308,0.00005
3745.39291,0.00000
3743.33274,0.00093
3741.27256,0.00178
3739.21239,0.00171
3737.15222,0.00189
3735.09205,0.00245
3733.03188,0.00290
3730.97170,0.00311
3728.91153,0.00336
3726.85136,0.00341
3724.79119,0.00324
3722.73102,0.00352
3720.67084,0.00398
3718.61067,0.00408
3716.55050,0.00353
3714.49033,0.00341
3712.43015,0.00467
3710.36998,0.00550
3708.30981,0.00553
3706.24964,0.00539
3704.18947,0.00550
3702.12929,0.00588
3700.06912,0.00612
3698.00895,0.00624
3695.94878,0.00634
3693.88861,0.00655
3691.82843,0.00661
3689.76826,0.00645
3687.70809,0.00625
3685.64792,0.00640
3683.58775,0.00625
3681.52757,0.00591
3679.46740,0.00552
3677.40723,0.00536
3675.34706,0.00564
3673.28688,0.00599
3671.22671,0.00630
3669.16654,0.00687
3667.10637,0.00724
3665.04620,0.00732
3662.98602,0.00748
3660.92585,0.00764
3658.86568,0.00757
3656.80551,0.00751
3654.74534,0.00778
3652.68516,0.00830
3650.62499,0.00884
3648.56482,0.00897
3646.50465,0.00910
3644.44447,0.00908
3642.38430,0.00906
3640.32413,0.00941
3638.26396,0.00979
3636.20379,0.00994
3634.14361,0.01015
3632.08344,0.01039
3630.02327,0.01080
3627.96310,0.01153
3625.90293,0.01224
3623.84275,0.01229
3621.78258,0.01218
3619.72241,0.01230
3617.66224,0.01228
3615.60207,0.01201
3613.54189,0.01168
3611.48172,0.01190
3609.42155,0.01271
3607.36138,0.01379
3605.30120,0.01487
3603.24103,0.01556
3601.18086,0.01612
3599.12069,0.01643
3597.06052,0.01657
3595.00034,0.01655
3592.94017,0.01683
3590.88000,0.01713
3588.81983,0.01749
3586.75966,0.01793
3584.69948,0.01855
3582.63931,0.01916
3580.57914,0.01973
3578.51897,0.02029
3576.45879,0.02072
3574.39862,0.02099
3572.33845,0.02128
3570.27828,0.02165
3568.21811,0.02194
3566.15793,0.02230
3564.09776,0.02286
3562.03759,0.02327
3559.97742,0.02360
3557.91725,0.02394
3555.85707,0.02418
3553.79690,0.02443
3551.73673,0.02464
3549.67656,0.02453
3547.61639,0.02413
3545.55621,0.02417
3543.49604,0.02507
3541.43587,0.02626
3539.37570,0.02717
3537.31552,0.02774
3535.25535,0.02812
3533.19518,0.02845
3531.13501,0.02872
3529.07484,0.02880
3527.01466,0.02869
3524.95449,0.02880
3522.89432,0.02948
3520.83415,0.03035
3518.77398,0.03098
3516.71380,0.03144
3514.65363,0.03182
3512.59346,0.03202
3510.53329,0.03205
3508.47312,0.03212
3506.41294,0.03225
3504.35277,0.03235
3502.29260,0.03271
3500.23243,0.03361
3498.17225,0.03455
3496.11208,0.03499
3494.05191,0.03513
3491.99174,0.03535
3489.93157,0.03569
3487.87139,0.03602
3485.81122,0.03622
3483.75105,0.03634
3481.69088,0.03648
3479.63071,0.03669
3477.57053,0.03710
3475.51036,0.03764
3473.45019,0.03802
3471.39002,0.03819
3469.32984,0.03841
3467.26967,0.03882
3465.20950,0.03918
3463.14933,0.03934
3461.08916,0.03947
3459.02898,0.03979
3456.96881,0.04014
3454.90864,0.04044
3452.84847,0.04077
3450.78830,0.04108
3448.72812,0.04121
3446.66795,0.04120
3444.60778,0.04126
3442.54761,0.04141
3440.48744,0.04152
3438.42726,0.04173
3436.36709,0.04214
3434.30692,0.04258
3432.24675,0.04284
3430.18657,0.04301
3428.12640,0.04319
3426.06623,0.04333
3424.00606,0.04349
3421.94589,0.04379
3419.88571,0.04412
3417.82554,0.04453
3415.76537,0.04493
3413.70520,0.04514
3411.64503,0.04514
3409.58485,0.04506
3407.52468,0.04516
3405.46451,0.04548
3403.40434,0.04575
3401.34416,0.04576
3399.28399,0.04475
3397.22382,0.04479
3395.16365,0.04501
3393.10348,0.04522
3391.04330,0.04575
3388.98313,0.04643
3386.92296,0.04679
3384.86279,0.04683
3382.80262,0.04703
3380.74244,0.04741
3378.68227,0.04768
3376.62210,0.04778
3374.56193,0.04793
3372.50176,0.04805
3370.44158,0.04798
3368.38141,0.04784
3366.32124,0.04791
3364.26107,0.04812
3362.20089,0.04823
3360.14072,0.04827
3358.08055,0.04841
3356.02038,0.04858
3353.96021,0.04864
3351.90003,0.04861
3349.83986,0.04871
3347.77969,0.04901
3345.71952,0.04926
3343.65935,0.04933
3341.59917,0.04925
3339.53900,0.04893
3337.47883,0.04864
3335.41866,0.04879
3333.35849,0.04919
3331.29831,0.04952
3329.23814,0.04972
3327.17797,0.04987
3325.11780,0.04993
3323.05762,0.05003
3320.99745,0.05027
3318.93728,0.05042
3316.87711,0.05032
3314.81694,0.05004
3312.75676,0.04971
3310.69659,0.04956
3308.63642,0.04977
3306.57625,0.05024
3304.51608,0.05063
3302.45590,0.05083
3300.39573,0.05090
3298.33556,0.05086
3296.27539,0.05065
3294.21521,0.05042
3292.15504,0.05041
3290.09487,0.05056
3288.03470,0.05072
3285.97453,0.05089
3283.91435,0.05114
3281.85418,0.05129
3279.79401,0.05105
3277.73384,0.05079
3275.67367,0.05081
3273.61349,0.05085
3271.55332,0.05082
3269.49315,0.05087
3267.43298,0.05105
3265.37281,0.05115
3263.31263,0.05101
3261.25246,0.05093
3259.19229,0.05110
3257.13212,0.05122
3255.07194,0.05113
3253.01177,0.05103
3250.95160,0.05109
3248.89143,0.05128
3246.83126,0.05134
3244.77108,0.05123
3242.71091,0.05122
3240.65074,0.05129
3238.59057,0.05131
3236.53040,0.05123
3234.47022,0.05103
3232.41005,0.05090
3230.34988,0.05083
3228.28971,0.05069
3226.22954,0.05062
3224.16936,0.05073
3222.10919,0.05076
3220.04902,0.05056
3217.98885,0.05049
3215.92867,0.05062
3213.86850,0.05073
3211.80833,0.05070
3209.74816,0.05053
3207.68799,0.05041
3205.62781,0.05047
3203.56764,0.05055
3201.50747,0.05051
3199.44730,0.05047
3197.38713,0.05045
3195.32695,0.05037
3193.26678,0.05024
3191.20661,0.05013
3189.14644,0.05008
3187.08626,0.05000
3185.02609,0.04979
3182.96592,0.04961
3180.90575,0.04942
3178.84558,0.04917
3176.78540,0.04915
3174.72523,0.04936
3172.66506,0.04945
3170.60489,0.04943
3168.54472,0.04935
3166.48454,0.04924
3164.42437,0.04921
3162.36420,0.04921
3160.30403,0.04918
3158.24386,0.04916
3156.18368,0.04909
3154.12351,0.04880
3152.06334,0.04848
3150.00317,0.04832
3147.94299,0.04819
3145.88282,0.04810
3143.82265,0.04814
3141.76248,0.04819
3139.70231,0.04814
3137.64213,0.04799
3135.58196,0.04768
3133.52179,0.04729
3131.46162,0.04710
3129.40145,0.04706
3127.34127,0.04684
3125.28110,0.04647
3123.22093,0.04625
3121.16076,0.04626
3119.10058,0.04627
3117.04041,0.04617
3114.98024,0.04604
3112.92007,0.04604
3110.85990,0.04611
3108.79972,0.04605
3106.73955,0.04585
3104.67938,0.04567
3102.61921,0.04552
3100.55904,0.04547
3098.49886,0.04550
3096.43869,0.04533
3094.37852,0.04501
3092.31835,0.04481
3090.25818,0.04477
3088.19800,0.04483
3086.13783,0.04493
3084.07766,0.04483
3082.01749,0.04457
3079.95731,0.04434
3077.89714,0.04423
3075.83697,0.04418
3073.77680,0.04410
3071.71663,0.04405
3069.65645,0.04391
3067.59628,0.04362
3065.53611,0.04338
3063.47594,0.04330
3061.41577,0.04324
3059.35559,0.04307
3057.29542,0.04281
3055.23525,0.04256
3053.17508,0.04238
3051.11491,0.04226
3049.05473,0.04216
3046.99456,0.04207
3044.93439,0.04200
3042.87422,0.04188
3040.81404,0.04167
3038.75387,0.04144
3036.69370,0.04118
3034.63353,0.04091
3032.57336,0.04066
3030.51318,0.04055
3028.45301,0.04053
3026.39284,0.04036
3024.33267,0.04016
3022.27250,0.04011
3020.21232,0.04008
3018.15215,0.03984
3016.09198,0.03938
3014.03181,0.03891
3011.97163,0.03875
3009.91146,0.03884
3007.85129,0.03889
3005.79112,0.03880
3003.73095,0.03867
3001.67077,0.03855
2999.61060,0.03855
2997.55043,0.03842
2995.49026,0.03821
2993.43009,0.03802
2991.36991,0.03805
2989.30974,0.03807
2987.24957,0.03785
2985.18940,0.03761
2983.12923,0.03761
2981.06905,0.03773
2979.00888,0.03782
2976.94871,0.03785
2974.88854,0.03776
2972.82836,0.03772
2970.76819,0.03784
2968.70802,0.03785
2966.64785,0.03761
2964.58768,0.03741
2962.52750,0.03747
2960.46733,0.03757
2958.40716,0.03761
2956.34699,0.03761
2954.28682,0.03748
2952.22664,0.03740
2950.16647,0.03736
2948.10630,0.03716
2946.04613,0.03697
2943.98596,0.03700
2941.92578,0.03703
2939.86561,0.03684
2937.80544,0.03664
2935.74527,0.03664
2933.68509,0.03677
2931.62492,0.03682
2929.56475,0.03673
2927.50458,0.03660
2925.44441,0.03646
2923.38423,0.03632
2921.32406,0.03637
2919.26389,0.03641
2917.20372,0.03628
2915.14355,0.03613
2913.08337,0.03600
2911.02320,0.03575
2908.96303,0.03541
2906.90286,0.03521
2904.84268,0.03516
2902.78251,0.03512
2900.72234,0.03499
2898.66217,0.03487
2896.60200,0.03491
2894.54182,0.03493
2892.48165,0.03475
2890.42148,0.03459
2888.36131,0.03458
2886.30114,0.03460
2884.24096,0.03455
2882.18079,0.03446
2880.12062,0.03430
2878.06045,0.03401
2876.00028,0.03378
2873.94010,0.03372
2871.87993,0.03371
2869.81976,0.03358
2867.75959,0.03334
2865.69941,0.03310
2863.63924,0.03287
2861.57907,0.03276
2859.51890,0.03273
2857.45873,0.03255
2855.39855,0.03235
2853.33838,0.03229
2851.27821,0.03225
2849.21804,0.03221
2847.15787,0.03216
2845.09769,0.03205
2843.03752,0.03180
2840.97735,0.03154
2838.91718,0.03135
2836.85700,0.03121
2834.79683,0.03111
2832.73666,0.03105
2830.67649,0.03098
2828.61632,0.03086
2826.55614,0.03075
2824.49597,0.03072
2822.43580,0.03058
2820.37563,0.03027
2818.31546,0.03011
2816.25528,0.03014
2814.19511,0.03016
2812.13494,0.03020
2810.07477,0.03012
2808.01460,0.02983
2805.95442,0.02953
2803.89425,0.02934
2801.83408,0.02929
2799.77391,0.02933
2797.71373,0.02933
2795.65356,0.02926
2793.59339,0.02919
2791.53322,0.02917
2789.47305,0.02917
2787.41287,0.02911
2785.35270,0.02901
2783.29253,0.02896
2781.23236,0.02886
2779.17219,0.02867
2777.11201,0.02851
2775.05184,0.02837
2772.99167,0.02822
2770.93150,0.02813
2768.87133,0.02811
2766.81115,0.02812
2764.75098,0.02808
2762.69081,0.02796
2760.63064,0.02781
2758.57046,0.02766
2756.51029,0.02759
2754.45012,0.02758
2752.38995,0.02757
2750.32978,0.02755
2748.26960,0.02749
2746.20943,0.02737
2744.14926,0.02723
2742.08909,0.02712
2740.02892,0.02704
2737.96874,0.02700
2735.90857,0.02695
2733.84840,0.02681
2731.78823,0.02665
2729.72805,0.02660
2727.66788,0.02657
2725.60771,0.02647
2723.54754,0.02636
2721.48737,0.02627
2719.42719,0.02618
2717.36702,0.02611
2715.30685,0.02605
2713.24668,0.02593
2711.18651,0.02589
2709.12633,0.02593
2707.06616,0.02586
2705.00599,0.02576
2702.94582,0.02573
2700.88565,0.02571
2698.82547,0.02556
2696.76530,0.02537
2694.70513,0.02532
2692.64496,0.02525
2690.58478,0.02511
2688.52461,0.02498
2686.46444,0.02492
2684.40427,0.02496
2682.34410,0.02493
2680.28392,0.02484
2678.22375,0.02482
2676.16358,0.02471
2674.10341,0.02445
2672.04324,0.02424
2669.98306,0.02410
2667.92289,0.02404
2665.86272,0.02411
2663.80255,0.02417
2661.74238,0.02417
2659.68220,0.02416
2657.62203,0.02404
2655.56186,0.02383
2653.50169,0.02372
2651.44151,0.02374
2649.38134,0.02372
2647.32117,0.02354
2645.26100,0.02335
2643.20083,0.02326
2641.14065,0.02311
2639.08048,0.02287
2637.02031,0.02287
2634.96014,0.02303
2632.89997,0.02292
2630.83979,0.02274
2628.77962,0.02266
2626.71945,0.02254
2624.65928,0.02247
2622.59910,0.02252
2620.53893,0.02252
2618.47876,0.02244
2616.41859,0.02232
2614.35842,0.02212
2612.29824,0.02193
2610.23807,0.02186
2608.17790,0.02188
2606.11773,0.02196
2604.05756,0.02192
2601.99738,0.02180
2599.93721,0.02176
2597.87704,0.02166
2595.81687,0.02155
2593.75670,0.02158
2591.69652,0.02164
2589.63635,0.02165
2587.57618,0.02165
2585.51601,0.02150
2583.45583,0.02132
2581.39566,0.02134
2579.33549,0.02145
2577.27532,0.02146
2575.21515,0.02136
2573.15497,0.02125
2571.09480,0.02106
2569.03463,0.02099
2566.97446,0.02112
2564.91429,0.02110
2562.85411,0.02101
2560.79394,0.02113
2558.73377,0.02125
2556.67360,0.02112
2554.61342,0.02101
2552.55325,0.02111
2550.49308,0.02119
2548.43291,0.02119
2546.37274,0.02118
2544.31256,0.02118
2542.25239,0.02108
2540.19222,0.02093
2538.13205,0.02093
2536.07188,0.02098
2534.01170,0.02092
2531.95153,0.02092
2529.89136,0.02101
2527.83119,0.02111
2525.77102,0.02122
2523.71084,0.02126
2521.65067,0.02118
2519.59050,0.02115
2517.53033,0.02121
2515.47015,0.02117
2513.40998,0.02106
2511.34981,0.02113
2509.28964,0.02131
2507.22947,0.02137
2505.16929,0.02120
2503.10912,0.02093
2501.04895,0.02080
2498.98878,0.02078
2496.92861,0.02089
2494.86843,0.02128
2492.80826,0.02170
2490.74809,0.02173
2488.68792,0.02135
2486.62775,0.02124
2484.56757,0.02155
2482.50740,0.02167
2480.44723,0.02154
2478.38706,0.02166
2476.32688,0.02194
2474.26671,0.02204
2472.20654,0.02199
2470.14637,0.02193
2468.08620,0.02188
2466.02602,0.02172
2463.96585,0.02162
2461.90568,0.02179
2459.84551,0.02205
2457.78534,0.02209
2455.72516,0.02194
2453.66499,0.02190
2451.60482,0.02180
2449.54465,0.02155
2447.48447,0.02165
2445.42430,0.02209
2443.36413,0.02233
2441.30396,0.02223
2439.24379,0.02221
2437.18361,0.02237
2435.12344,0.02236
2433.06327,0.02217
2431.00310,0.02202
2428.94293,0.02215
2426.88275,0.02233
2424.82258,0.02210
2422.76241,0.02173
2420.70224,0.02159
2418.64207,0.02165
2416.58189,0.02179
2414.52172,0.02188
2412.46155,0.02176
2410.40138,0.02153
2408.34120,0.02144
2406.28103,0.02159
2404.22086,0.02180
2402.16069,0.02187
2400.10052,0.02178
2398.04034,0.02134
2395.98017,0.02146
2393.92000,0.02181
2391.85983,0.02198
2389.79966,0.02193
2387.73948,0.02166
2385.67931,0.02093
2383.61914,0.02013
2381.55897,0.01982
2379.49880,0.01960
2377.43862,0.01945
2375.37845,0.02059
2373.31828,0.02019
2371.25811,0.02007
2369.19793,0.02208
2367.13776,0.02371
2365.07759,0.02262
2363.01742,0.02410
2360.95725,0.02215
2358.89707,0.02417
2356.83690,0.02524
2354.77673,0.02737
2352.71656,0.02598
2350.65639,0.01791
2348.59621,0.01214
2346.53604,0.02496
2344.47587,0.02748
2342.41570,0.02509
2340.35552,0.02341
2338.29535,0.02319
2336.23518,0.02241
2334.17501,0.02196
2332.11484,0.02259
2330.05466,0.02226
2327.99449,0.02417
2325.93432,0.02124
2323.87415,0.02104
2321.81398,0.01912
2319.75380,0.02039
2317.69363,0.01894
2315.63346,0.01877
2313.57329,0.01981
2311.51312,0.01943
2309.45294,0.01934
2307.39277,0.01950
2305.33260,0.01965
2303.27243,0.01976
2301.21225,0.02028
2299.15208,0.02010
2297.09191,0.01988
2295.03174,0.02045
2292.97157,0.02096
2290.91139,0.02137
2288.85122,0.02169
2286.79105,0.02150
2284.73088,0.02085
2282.67071,0.02050
2280.61053,0.02071
2278.55036,0.02106
2276.49019,0.02119
2274.43002,0.02103
2272.36984,0.02085
2270.30967,0.02047
2268.24950,0.02030
2266.18933,0.02061
2264.12916,0.02110
2262.06898,0.02133
2260.00881,0.02126
2257.94864,0.02069
2255.88847,0.02031
2253.82830,0.02014
2251.76812,0.01988
2249.70795,0.01963
2247.64778,0.01980
2245.58761,0.01994
2243.52744,0.01963
2241.46726,0.01928
2239.40709,0.01973
2237.34692,0.02040
2235.28675,0.02036
2233.22657,0.02014
2231.16640,0.02036
2229.10623,0.02055
2227.04606,0.02019
2224.98589,0.01962
2222.92571,0.01928
2220.86554,0.01920
2218.80537,0.01940
2216.74520,0.01957
2214.68503,0.01933
2212.62485,0.01898
2210.56468,0.01878
2208.50451,0.01858
2206.44434,0.01821
2204.38417,0.01807
2202.32399,0.01855
2200.26382,0.01880
2198.20365,0.01866
2196.14348,0.01866
2194.08330,0.01830
2192.02313,0.01817
2189.96296,0.01860
2187.90279,0.01842
2185.84262,0.01794
2183.78244,0.01812
2181.72227,0.01820
2179.66210,0.01751
2177.60193,0.01689
2175.54176,0.01693
2173.48158,0.01726
2171.42141,0.01753
2169.36124,0.01742
2167.30107,0.01683
2165.24089,0.01673
2163.18072,0.01691
2161.12055,0.01621
2159.06038,0.01538
2157.00021,0.01539
2154.94003,0.01620
2152.87986,0.01753
2150.81969,0.01819
2148.75952,0.01776
2146.69935,0.01733
2144.63917,0.01735
2142.57900,0.01745
2140.51883,0.01733
2138.45866,0.01700
2136.39849,0.01690
2134.33831,0.01731
2132.27814,0.01770
2130.21797,0.01770
2128.15780,0.01765
2126.09762,0.01759
2124.03745,0.01743
2121.97728,0.01766
2119.91711,0.01818
2117.85694,0.01803
2115.79676,0.01739
2113.73659,0.01725
2111.67642,0.01742
2109.61625,0.01741
2107.55608,0.01739
2105.49590,0.01738
2103.43573,0.01735
2101.37556,0.01783
2099.31539,0.01904
2097.25521,0.01910
2095.19504,0.01834
2093.13487,0.01752
2091.07470,0.01721
2089.01453,0.01739
2086.95435,0.01748
2084.89418,0.01757
2082.83401,0.01817
2080.77384,0.01900
2078.71367,0.01935
2076.65349,0.01920
2074.59332,0.01898
2072.53315,0.01903
2070.47298,0.01905
2068.41281,0.01885
2066.35263,0.01866
2064.29246,0.01836
2062.23229,0.01768
2060.17212,0.01694
2058.11194,0.01665
2056.05177,0.01692
2053.99160,0.01767
2051.93143,0.01869
2049.87126,0.01962
2047.81108,0.02005
2045.75091,0.02018
2043.69074,0.02031
2041.63057,0.02027
2039.57040,0.02013
2037.51022,0.01978
2035.45005,0.01909
2033.38988,0.01802
2031.32971,0.01697
2029.26954,0.01684
2027.20936,0.01716
2025.14919,0.01684
2023.08902,0.01664
2021.02885,0.01742
2018.96867,0.01808
2016.90850,0.01804
2014.84833,0.01820
2012.78816,0.01872
2010.72799,0.01893
2008.66781,0.01888
2006.60764,0.01865
2004.54747,0.01780
2002.48730,0.01658
2000.42713,0.01581
1998.36695,0.01580
1996.30678,0.01604
1994.24661,0.01606
1992.18644,0.01605
1990.12626,0.01616
1988.06609,0.01640
1986.00592,0.01669
1983.94575,0.01700
1981.88558,0.01806
1979.82540,0.02009
1977.76523,0.02144
1975.70506,0.02093
1973.64489,0.01955
1971.58472,0.01861
1969.52454,0.01814
1967.46437,0.01788
1965.40420,0.01805
1963.34403,0.01825
1961.28386,0.01792
1959.22368,0.01716
1957.16351,0.01626
1955.10334,0.01566
1953.04317,0.01599
1950.98299,0.01694
1948.92282,0.01764
1946.86265,0.01793
1944.80248,0.01801
1942.74231,0.01799
1940.68213,0.01794
1938.62196,0.01793
1936.56179,0.01786
1934.50162,0.01771
1932.44145,0.01747
1930.38127,0.01734
1928.32110,0.01729
1926.26093,0.01703
1924.20076,0.01680
1922.14059,0.01696
1920.08041,0.01731
1918.02024,0.01751
1915.96007,0.01750
1913.89990,0.01767
1911.83972,0.01796
1909.77955,0.01812
1907.71938,0.01809
1905.65921,0.01799
1903.59904,0.01790
1901.53886,0.01776
1899.47869,0.01757
1897.41852,0.01747
1895.35835,0.01739
1893.29818,0.01725
1891.23800,0.01724
1889.17783,0.01740
1887.11766,0.01748
1885.05749,0.01739
1882.99731,0.01722
1880.93714,0.01724
1878.87697,0.01751
1876.81680,0.01780
1874.75663,0.01790
1872.69645,0.01797
1870.63628,0.01828
1868.57611,0.01857
1866.51594,0.01842
1864.45577,0.01806
1862.39559,0.01784
1860.33542,0.01778
1858.27525,0.01781
1856.21508,0.01791
1854.15491,0.01799
1852.09473,0.01796
1850.03456,0.01779
1847.97439,0.01749
1845.91422,0.01706
1843.85404,0.01668
1841.79387,0.01666
1839.73370,0.01697
1837.67353,0.01726
1835.61336,0.01724
1833.55318,0.01728
1831.49301,0.01777
1829.43284,0.01821
1827.37267,0.01822
1825.31250,0.01817
1823.25232,0.01824
1821.19215,0.01827
1819.13198,0.01803
1817.07181,0.01764
1815.01163,0.01742
1812.95146,0.01736
1810.89129,0.01725
1808.83112,0.01709
1806.77095,0.01701
1804.71077,0.01690
1802.65060,0.01678
1800.59043,0.01691
1798.53026,0.01706
1796.47009,0.01709
1794.40991,0.01725
1792.34974,0.01741
1790.28957,0.01717
1788.22940,0.01671
1786.16923,0.01641
1784.10905,0.01656
1782.04888,0.01700
1779.98871,0.01714
1777.92854,0.01703
1775.86836,0.01727
1773.80819,0.01787
1771.74802,0.01801
1769.68785,0.01738
1767.62768,0.01695
1765.56750,0.01717
1763.50733,0.01761
1761.44716,0.01782
1759.38699,0.01786
1757.32682,0.01805
1755.26664,0.01833
1753.20647,0.01858
1751.14630,0.01898
1749.08613,0.01951
1747.02596,0.01974
1744.96578,0.01978
1742.90561,0.01996
1740.84544,0.02022
1738.78527,0.02031
1736.72509,0.02030
1734.66492,0.02033
1732.60475,0.02031
1730.54458,0.02032
1728.48441,0.02027
1726.42423,0.02021
1724.36406,0.02017
1722.30389,0.02035
1720.24372,0.02100
1718.18355,0.02151
1716.12337,0.02088
1714.06320,0.02010
1712.00303,0.01975
1709.94286,0.01986
1707.88268,0.02023
1705.82251,0.02035
1703.76234,0.02035
1701.70217,0.02106
1699.64200,0.02200
1697.58182,0.02220
1695.52165,0.02227
1693.46148,0.02269
1691.40131,0.02324
1689.34114,0.02406
1687.28096,0.02534
1685.22079,0.02712
1683.16062,0.02816
1681.10045,0.02822
1679.04028,0.02846
1676.98010,0.02949
1674.91993,0.03108
1672.85976,0.03261
1670.79959,0.03383
1668.73941,0.03446
1666.67924,0.03451
1664.61907,0.03479
1662.55890,0.03530
1660.49873,0.03529
1658.43855,0.03510
1656.37838,0.03560
1654.31821,0.03672
1652.25804,0.03718
1650.19787,0.03706
1648.13769,0.03703
1646.07752,0.03697
1644.01735,0.03634
1641.95718,0.03586
1639.89701,0.03615
1637.83683,0.03703
1635.77666,0.03749
1633.71649,0.03700
1631.65632,0.03629
1629.59614,0.03604
1627.53597,0.03612
1625.47580,0.03613
1623.41563,0.03591
1621.35546,0.03545
1619.29528,0.03549
1617.23511,0.03612
1615.17494,0.03609
1613.11477,0.03535
1611.05460,0.03490
1608.99442,0.03488
1606.93425,0.03485
1604.87408,0.03477
1602.81391,0.03464
1600.75373,0.03435
1598.69356,0.03411
1596.63339,0.03402
1594.57322,0.03387
1592.51305,0.03356
1590.45287,0.03316
1588.39270,0.03273
1586.33253,0.03223
1584.27236,0.03167
1582.21219,0.03117
1580.15201,0.03101
1578.09184,0.03115
1576.03167,0.03077
1573.97150,0.02963
1571.91133,0.02886
1569.85115,0.02866
1567.79098,0.02809
1565.73081,0.02715
1563.67064,0.02678
1561.61046,0.02760
1559.55029,0.02840
1557.49012,0.02693
1555.42995,0.02499
1553.36978,0.02400
1551.30960,0.02368
1549.24943,0.02343
1547.18926,0.02318
1545.12909,0.02341
1543.06892,0.02429
1541.00874,0.02514
1538.94857,0.02442
1536.88840,0.02284
1534.82823,0.02204
1532.76805,0.02195
1530.70788,0.02166
1528.64771,0.02129
1526.58754,0.02093
1524.52737,0.02062
1522.46719,0.02042
1520.40702,0.01995
1518.34685,0.01956
1516.28668,0.01922
1514.22651,0.01853
1512.16633,0.01797
1510.10616,0.01826
1508.04599,0.01924
1505.98582,0.01974
1503.92565,0.01916
1501.86547,0.01844
1499.80530,0.01858
1497.74513,0.01912
1495.68496,0.01931
1493.62478,0.01947
1491.56461,0.01985
1489.50444,0.01993
1487.44427,0.01962
1485.38410,0.01942
1483.32392,0.01949
1481.26375,0.01972
1479.20358,0.01996
1477.14341,0.02027
1475.08324,0.02071
1473.02306,0.02115
1470.96289,0.02120
1468.90272,0.02094
1466.84255,0.02103
1464.78238,0.02138
1462.72220,0.02149
1460.66203,0.02179
1458.60186,0.02225
1456.54169,0.02201
1454.48151,0.02158
1452.42134,0.02154
1450.36117,0.02213
1448.30100,0.02291
1446.24083,0.02331
1444.18065,0.02340
1442.12048,0.02341
1440.06031,0.02338
1438.00014,0.02335
1435.93997,0.02329
1433.87979,0.02334
1431.81962,0.02366
1429.75945,0.02418
1427.69928,0.02451
1425.63910,0.02472
1423.57893,0.02489
1421.51876,0.02499
1419.45859,0.02502
1417.39842,0.02519
1415.33824,0.02565
1413.27807,0.02616
1411.21790,0.02645
1409.15773,0.02657
1407.09756,0.02669
1405.03738,0.02671
1402.97721,0.02652
1400.91704,0.02616
1398.85687,0.02560
1396.79670,0.02511
1394.73652,0.02498
1392.67635,0.02490
1390.61618,0.02477
1388.55601,0.02483
1386.49583,0.02496
1384.43566,0.02495
1382.37549,0.02480
1380.31532,0.02466
1378.25515,0.02474
1376.19497,0.02499
1374.13480,0.02495
1372.07463,0.02454
1370.01446,0.02425
1367.95429,0.02416
1365.89411,0.02406
1363.83394,0.02373
1361.77377,0.02330
1359.71360,0.02327
1357.65343,0.02354
1355.59325,0.02370
1353.53308,0.02366
1351.47291,0.02359
1349.41274,0.02350
1347.35256,0.02334
1345.29239,0.02317
1343.23222,0.02298
1341.17205,0.02266
1339.11188,0.02230
1337.05170,0.02234
1334.99153,0.02276
1332.93136,0.02307
1330.87119,0.02311
1328.81102,0.02309
1326.75084,0.02315
1324.69067,0.02319
1322.63050,0.02315
1320.57033,0.02311
1318.51015,0.02306
1316.44998,0.02299
1314.38981,0.02301
1312.32964,0.02309
1310.26947,0.02314
1308.20929,0.02312
1306.14912,0.02312
1304.08895,0.02322
1302.02878,0.02336
1299.96861,0.02342
1297.90843,0.02344
1295.84826,0.02353
1293.78809,0.02365
1291.72792,0.02362
1289.66775,0.02347
1287.60757,0.02341
1285.54740,0.02350
1283.48723,0.02366
1281.42706,0.02383
1279.36688,0.02395
1277.30671,0.02404
1275.24654,0.02415
1273.18637,0.02424
1271.12620,0.02427
1269.06602,0.02424
1267.00585,0.02423
1264.94568,0.02431
1262.88551,0.02447
1260.82534,0.02462
1258.76516,0.02473
1256.70499,0.02487
1254.64482,0.02495
1252.58465,0.02494
1250.52447,0.02493
1248.46430,0.02486
1246.40413,0.02469
1244.34396,0.02453
1242.28379,0.02447
1240.22361,0.02435
1238.16344,0.02418
1236.10327,0.02408
1234.04310,0.02399
1231.98293,0.02383
1229.92275,0.02357
1227.86258,0.02319
1225.80241,0.02286
1223.74224,0.02261
1221.68207,0.02228
1219.62189,0.02191
1217.56172,0.02155
1215.50155,0.02112
1213.44138,0.02066
1211.38120,0.02033
1209.32103,0.02017
1207.26086,0.02006
1205.20069,0.01998
1203.14052,0.01988
1201.08034,0.01969
1199.02017,0.01950
1196.96000,0.01956
1194.89983,0.01955
1192.83966,0.01936
1190.77948,0.01918
1188.71931,0.01913
1186.65914,0.01921
1184.59897,0.01949
1182.53880,0.01984
1180.47862,0.02024
1178.41845,0.02070
1176.35828,0.02095
1174.29811,0.02107
1172.23793,0.02144
1170.17776,0.02197
1168.11759,0.02245
1166.05742,0.02298
1163.99725,0.02360
1161.93707,0.02420
1159.87690,0.02484
1157.81673,0.02557
1155.75656,0.02628
1153.69639,0.02693
1151.63621,0.02761
1149.57604,0.02839
1147.51587,0.02922
1145.45570,0.02997
1143.39552,0.03067
1141.33535,0.03145
1139.27518,0.03233
1137.21501,0.03333
1135.15484,0.03445
1133.09466,0.03555
1131.03449,0.03665
1128.97432,0.03781
1126.91415,0.03909
1124.85398,0.04045
1122.79380,0.04184
1120.73363,0.04327
1118.67346,0.04469
1116.61329,0.04608
1114.55312,0.04751
1112.49294,0.04898
1110.43277,0.05044
1108.37260,0.05185
1106.31243,0.05322
1104.25225,0.05454
1102.19208,0.05575
1100.13191,0.05691
1098.07174,0.05802
1096.01157,0.05907
1093.95139,0.06008
1091.89122,0.06098
1089.83105,0.06176
1087.77088,0.06264
1085.71071,0.06360
1083.65053,0.06447
1081.59036,0.06524
1079.53019,0.06603
1077.47002,0.06691
1075.40985,0.06767
1073.34967,0.06823
1071.28950,0.06869
1069.22933,0.06894
1067.16916,0.06894
1065.10898,0.06885
1063.04881,0.06875
1060.98864,0.06862
1058.92847,0.06837
1056.86830,0.06799
1054.80812,0.06750
1052.74795,0.06688
1050.68778,0.06611
1048.62761,0.06521
1046.56744,0.06420
1044.50726,0.06308
1042.44709,0.06170
1040.38692,0.06000
1038.32675,0.05821
1036.26657,0.05631
1034.20640,0.05418
1032.14623,0.05221
1030.08606,0.05076
1028.02589,0.04960
1025.96571,0.04836
1023.90554,0.04694
1021.84537,0.04547
1019.78520,0.04415
1017.72503,0.04310
1015.66485,0.04231
1013.60468,0.04178
1011.54451,0.04153
1009.48434,0.04150
1007.42417,0.04156
1005.36399,0.04172
1003.30382,0.04223
1001.24365,0.04308
999.18348,0.04398
997.12330,0.04480
995.06313,0.04562
993.00296,0.04653
990.94279,0.04759
988.88262,0.04861
986.82244,0.04937
984.76227,0.04993
982.70210,0.05030
980.64193,0.05044
978.58176,0.05032
976.52158,0.05006
974.46141,0.04982
972.40124,0.04950
970.34107,0.04881
968.28089,0.04774
966.22072,0.04660
964.16055,0.04552
962.10038,0.04439
960.04021,0.04315
957.98003,0.04195
955.91986,0.04079
953.85969,0.03950
951.79952,0.03807
949.73935,0.03672
947.67917,0.03562
945.61900,0.03461
943.55883,0.03342
941.49866,0.03228
939.43849,0.03132
937.37831,0.03045
935.31814,0.02964
933.25797,0.02887
931.19780,0.02817
929.13762,0.02762
927.07745,0.02720
925.01728,0.02679
922.95711,0.02634
920.89694,0.02588
918.83676,0.02544
916.77659,0.02505
914.71642,0.02457
912.65625,0.02421
910.59608,0.02417
908.53590,0.02410
906.47573,0.02394
904.41556,0.02401
902.35539,0.02427
900.29522,0.02438
898.23504,0.02439
896.17487,0.02458
894.11470,0.02496
892.05453,0.02548
889.99435,0.02607
887.93418,0.02646
885.87401,0.02677
883.81384,0.02730
881.75367,0.02788
879.69349,0.02828
877.63332,0.02865
875.57315,0.02907
873.51298,0.02964
871.45281,0.03040
869.39263,0.03100
867.33246,0.03130
865.27229,0.03160
863.21212,0.03185
861.15194,0.03182
859.09177,0.03183
857.03160,0.03214
854.97143,0.03240
852.91126,0.03241
850.85108,0.03241
848.79091,0.03235
846.73074,0.03207
844.67057,0.03167
842.61040,0.03123
840.55022,0.03085
838.49005,0.03031
836.42988,0.02962
834.36971,0.02920
832.30954,0.02898
830.24936,0.02880
828.18919,0.02858
826.12902,0.02810
824.06885,0.02758
822.00867,0.02733
819.94850,0.02704
817.88833,0.02656
815.82816,0.02617
813.76799,0.02597
811.70781,0.02560
809.64764,0.02500
807.58747,0.02470
805.52730,0.02489
803.46713,0.02506
801.40695,0.02492
799.34678,0.02464
797.28661,0.02434
795.22644,0.02421
793.16627,0.02424
791.10609,0.02422
789.04592,0.02400
786.98575,0.02362
784.92558,0.02339
782.86540,0.02348
780.80523,0.02368
778.74506,0.02392
776.68489,0.02414
774.62472,0.02399
772.56454,0.02375
770.50437,0.02363
768.44420,0.02322
766.38403,0.02260
764.32386,0.02249
762.26368,0.02284
760.20351,0.02289
758.14334,0.02258
756.08317,0.02231
754.02299,0.02209
751.96282,0.02205
749.90265,0.02225
747.84248,0.02241
745.78231,0.02228
743.72213,0.02197
741.66196,0.02144
739.60179,0.02061
737.54162,0.02020
735.48145,0.02081
733.42127,0.02167
731.36110,0.02200
729.30093,0.02204
727.24076,0.02209
725.18059,0.02209
723.12041,0.02150
721.06024,0.02176
719.00007,0.02062
716.93990,0.02149
714.87972,0.02192
712.81955,0.02169
710.75938,0.02160
708.69921,0.02156
706.63904,0.02150
704.57886,0.02139
702.51869,0.02111
700.45852,0.02040
698.39835,0.01941
696.33818,0.01853
694.27800,0.01807
692.21783,0.01799
690.15766,0.01780
688.09749,0.01734
686.03731,0.01709
683.97714,0.01715
681.91697,0.01714
679.85680,0.01678
677.79663,0.01654
675.73645,0.01749
673.67628,0.01662
671.61611,0.00472
669.55594,0.00000
667.49577,0.02835
665.43559,0.00711
663.37542,0.01145
661.31525,0.01629
659.25508,0.01482
657.19491,0.01291
655.13473,0.01235
653.07456,0.01211
651.01439,0.01189
648.95422,0.01238
646.89404,0.01182
644.83387,0.01199
642.77370,0.01258
640.71353,0.01310
638.65336,0.01282
636.59318,0.01162
634.53301,0.01053
632.47284,0.01005
630.41267,0.00965
628.35250,0.00946
626.29232,0.00942
624.23215,0.00937
622.17198,0.00939
620.11181,0.00895
618.05164,0.00706
615.99146,0.00514
613.93129,0.00465
611.87112,0.00475
609.81095,0.00433
607.75077,0.00348
605.69060,0.00288
603.63043,0.00222
601.57026,0.00103
599.51009,0.00000
