3996.73391,-0.00046
3994.67373,-0.00056
3992.61356,-0.00054
3990.55339,-0.00039
3988.49322,-0.00029
3986.43305,-0.00028
3984.37287,-0.00022
3982.31270,0.00003
3980.25253,0.00036
3978.19236,0.00052
3976.13219,0.00040
3974.07201,0.00024
3972.01184,0.00028
3969.95167,0.00055
3967.89150,0.00089
3965.83133,0.00101
3963.77115,0.00078
3961.71098,0.00043
3959.65081,0.00032
3957.59064,0.00056
3955.53046,0.00087
3953.47029,0.00094
3951.41012,0.00067
3949.34995,0.00023
3947.28978,0.00000
3945.22960,0.00011
3943.16943,0.00031
3941.10926,0.00055
3939.04909,0.00081
3936.98892,0.00087
3934.92874,0.00065
3932.86857,0.00042
3930.80840,0.00060
3928.74823,0.00108
3926.68805,0.00140
3924.62788,0.00142
3922.56771,0.00118
3920.50754,0.00090
3918.44737,0.00083
3916.38719,0.00104
3914.32702,0.00130
3912.26685,0.00141
3910.20668,0.00145
3908.14651,0.00137
3906.08633,0.00106
3904.02616,0.00065
3901.96599,0.00050
3899.90582,0.00083
3897.84565,0.00126
3895.78547,0.00143
3893.72530,0.00131
3891.66513,0.00110
3889.60496,0.00095
3887.54478,0.00077
3885.48461,0.00064
3883.42444,0.00072
3881.36427,0.00099
3879.30410,0.00145
3877.24392,0.00184
3875.18375,0.00172
3873.12358,0.00106
3871.06341,0.00031
3869.00324,0.00000
3866.94306,0.00026
3864.88289,0.00085
3862.82272,0.00124
3860.76255,0.00114
3858.70237,0.00084
3856.64220,0.00043
3854.58203,0.00029
3852.52186,0.00087
3850.46169,0.00172
3848.40151,0.00186
3846.34134,0.00158
3844.28117,0.00146
3842.22100,0.00152
3840.16083,0.00140
3838.10065,0.00100
3836.04048,0.00086
3833.98031,0.00123
3831.92014,0.00174
3829.85997,0.00209
3827.79979,0.00206
3825.73962,0.00179
3823.67945,0.00170
3821.61928,0.00194
3819.55910,0.00205
3817.49893,0.00202
3815.43876,0.00224
3813.37859,0.00259
3811.31842,0.00266
3809.25824,0.00266
3807.19807,0.00281
3805.13790,0.00294
3803.07773,0.00311
3801.01756,0.00326
3798.95738,0.00315
3796.89721,0.00296
3794.83704,0.00299
3792.77687,0.00322
3790.71670,0.00335
3788.65652,0.00324
3786.59635,0.00308
3784.53618,0.00310
3782.47601,0.00330
3780.41583,0.00357
3778.35566,0.00366
3776.29549,0.00353
3774.23532,0.00331
3772.17515,0.00310
3770.11497,0.00293
3768.05480,0.00280
3765.99463,0.00271
3763.93446,0.00265
3761.87429,0.00265
3759.81411,0.00271
3757.75394,0.00261
3755.69377,0.00218
3753.63360,0.00159
3751.57342,0.00099
3749.51325,0.00048
3747.45308,0.00021
3745.39291,0.00000
3743.33274,0.00003
3741.27256,0.00021
3739.21239,0.00028
3737.15222,0.00031
3735.09205,0.00043
3733.03188,0.00101
3730.97170,0.00190
3728.91153,0.00230
3726.85136,0.00219
3724.79119,0.00201
3722.73102,0.00196
3720.67084,0.00238
3718.61067,0.00270
3716.55050,0.00263
3714.49033,0.00241
3712.43015,0.00223
3710.36998,0.00248
3708.30981,0.00288
3706.24964,0.00334
3704.18947,0.00347
3702.12929,0.00318
3700.06912,0.00297
3698.00895,0.00305
3695.94878,0.00324
3693.88861,0.00335
3691.82843,0.00341
3689.76826,0.00306
3687.70809,0.00291
3685.64792,0.00319
3683.58775,0.00350
3681.52757,0.00362
3679.46740,0.00352
3677.40723,0.00309
3675.34706,0.00283
3673.28688,0.00299
3671.22671,0.00308
3669.16654,0.00302
3667.10637,0.00315
3665.04620,0.00340
3662.98602,0.00358
3660.92585,0.00372
3658.86568,0.00394
3656.80551,0.00413
3654.74534,0.00411
3652.68516,0.00386
3650.62499,0.00356
3648.56482,0.00372
3646.50465,0.00466
3644.44447,0.00518
3642.38430,0.00509
3640.32413,0.00496
3638.26396,0.00506
3636.20379,0.00512
3634.14361,0.00495
3632.08344,0.00485
3630.02327,0.00498
3627.96310,0.00531
3625.90293,0.00559
3623.84275,0.00566
3621.78258,0.00547
3619.72241,0.00528
3617.66224,0.00544
3615.60207,0.00555
3613.54189,0.00543
3611.48172,0.00527
3609.42155,0.00573
3607.36138,0.00659
3605.30120,0.00705
3603.24103,0.00720
3601.18086,0.00724
3599.12069,0.00732
3597.06052,0.00728
3595.00034,0.00745
3592.94017,0.00774
3590.88000,0.00794
3588.81983,0.00765
3586.75966,0.00744
3584.69948,0.00779
3582.63931,0.00834
3580.57914,0.00879
3578.51897,0.00906
3576.45879,0.00919
3574.39862,0.00931
3572.33845,0.00945
3570.27828,0.00942
3568.21811,0.00915
3566.15793,0.00915
3564.09776,0.00973
3562.03759,0.01024
3559.97742,0.01046
3557.91725,0.01071
3555.85707,0.01094
3553.79690,0.01103
3551.73673,0.01109
3549.67656,0.01103
3547.61639,0.01084
3545.55621,0.01105
3543.49604,0.01184
3541.43587,0.01256
3539.37570,0.01274
3537.31552,0.01250
3535.25535,0.01244
3533.19518,0.01292
3531.13501,0.01354
3529.07484,0.01362
3527.01466,0.01319
3524.95449,0.01306
3522.89432,0.01358
3520.83415,0.01413
3518.77398,0.01434
3516.71380,0.01452
3514.65363,0.01480
3512.59346,0.01495
3510.53329,0.01488
3508.47312,0.01474
3506.41294,0.01481
3504.35277,0.01497
3502.29260,0.01504
3500.23243,0.01522
3498.17225,0.01556
3496.11208,0.01581
3494.05191,0.01594
3491.99174,0.01614
3489.93157,0.01636
3487.87139,0.01642
3485.81122,0.01638
3483.75105,0.01644
3481.69088,0.01669
3479.63071,0.01692
3477.57053,0.01708
3475.51036,0.01735
3473.45019,0.01768
3471.39002,0.01782
3469.32984,0.01776
3467.26967,0.01770
3465.20950,0.01775
3463.14933,0.01792
3461.08916,0.01812
3459.02898,0.01835
3456.96881,0.01854
3454.90864,0.01861
3452.84847,0.01869
3450.78830,0.01881
3448.72812,0.01886
3446.66795,0.01892
3444.60778,0.01894
3442.54761,0.01882
3440.48744,0.01880
3438.42726,0.01907
3436.36709,0.01947
3434.30692,0.01991
3432.24675,0.02017
3430.18657,0.02016
3428.12640,0.02017
3426.06623,0.02038
3424.00606,0.02054
3421.94589,0.02048
3419.88571,0.02035
3417.82554,0.02048
3415.76537,0.02077
3413.70520,0.02090
3411.64503,0.02087
3409.58485,0.02090
3407.52468,0.02106
3405.46451,0.02127
3403.40434,0.02139
3401.34416,0.02132
3399.28399,0.02072
3397.22382,0.02079
3395.16365,0.02086
3393.10348,0.02068
3391.04330,0.02066
3388.98313,0.02100
3386.92296,0.02132
3384.86279,0.02138
3382.80262,0.02143
3380.74244,0.02169
3378.68227,0.02195
3376.62210,0.02194
3374.56193,0.02178
3372.50176,0.02176
3370.44158,0.02184
3368.38141,0.02182
3366.32124,0.02180
3364.26107,0.02200
3362.20089,0.02228
3360.14072,0.02245
3358.08055,0.02254
3356.02038,0.02253
3353.96021,0.02244
3351.90003,0.02238
3349.83986,0.02246
3347.77969,0.02261
3345.71952,0.02268
3343.65935,0.02265
3341.59917,0.02261
3339.53900,0.02256
3337.47883,0.02248
3335.41866,0.02261
3333.35849,0.02285
3331.29831,0.02285
3329.23814,0.02256
3327.17797,0.02243
3325.11780,0.02268
3323.05762,0.02301
3320.99745,0.02315
3318.93728,0.02323
3316.87711,0.02334
3314.81694,0.02344
3312.75676,0.02346
3310.69659,0.02336
3308.63642,0.02318
3306.57625,0.02304
3304.51608,0.02311
3302.45590,0.02330
3300.39573,0.02341
3298.33556,0.02346
3296.27539,0.02349
3294.21521,0.02343
3292.15504,0.02329
3290.09487,0.02326
3288.03470,0.02331
3285.97453,0.02329
3283.91435,0.02320
3281.85418,0.02318
3279.79401,0.02330
3277.73384,0.02351
3275.67367,0.02369
3273.61349,0.02373
3271.55332,0.02368
3269.49315,0.02363
3267.43298,0.02346
3265.37281,0.02322
3263.31263,0.02317
3261.25246,0.02333
3259.19229,0.02348
3257.13212,0.02346
3255.07194,0.02337
3253.01177,0.02340
3250.95160,0.02343
3248.89143,0.02332
3246.83126,0.02319
3244.77108,0.02307
3242.71091,0.02292
3240.65074,0.02293
3238.59057,0.02314
3236.53040,0.02330
3234.47022,0.02321
3232.41005,0.02298
3230.34988,0.02284
3228.28971,0.02291
3226.22954,0.02311
3224.16936,0.02309
3222.10919,0.02275
3220.04902,0.02239
3217.98885,0.02231
3215.92867,0.02245
3213.86850,0.02249
3211.80833,0.02236
3209.74816,0.02236
3207.68799,0.02244
3205.62781,0.02241
3203.56764,0.02241
3201.50747,0.02244
3199.44730,0.02238
3197.38713,0.02228
3195.32695,0.02221
3193.26678,0.02211
3191.20661,0.02203
3189.14644,0.02200
3187.08626,0.02193
3185.02609,0.02181
3182.96592,0.02172
3180.90575,0.02158
3178.84558,0.02143
3176.78540,0.02138
3174.72523,0.02147
3172.66506,0.02159
3170.60489,0.02159
3168.54472,0.02155
3166.48454,0.02152
3164.42437,0.02142
3162.36420,0.02118
3160.30403,0.02092
3158.24386,0.02092
3156.18368,0.02106
3154.12351,0.02100
3152.06334,0.02083
3150.00317,0.02076
3147.94299,0.02074
3145.88282,0.02069
3143.82265,0.02063
3141.76248,0.02063
3139.70231,0.02067
3137.64213,0.02065
3135.58196,0.02059
3133.52179,0.02069
3131.46162,0.02085
3129.40145,0.02063
3127.34127,0.02020
3125.28110,0.02005
3123.22093,0.02004
3121.16076,0.01986
3119.10058,0.01961
3117.04041,0.01944
3114.98024,0.01953
3112.92007,0.01980
3110.85990,0.01985
3108.79972,0.01964
3106.73955,0.01956
3104.67938,0.01972
3102.61921,0.01980
3100.55904,0.01962
3098.49886,0.01941
3096.43869,0.01940
3094.37852,0.01951
3092.31835,0.01962
3090.25818,0.01956
3088.19800,0.01932
3086.13783,0.01916
3084.07766,0.01913
3082.01749,0.01903
3079.95731,0.01890
3077.89714,0.01885
3075.83697,0.01897
3073.77680,0.01918
3071.71663,0.01927
3069.65645,0.01905
3067.59628,0.01867
3065.53611,0.01845
3063.47594,0.01844
3061.41577,0.01848
3059.35559,0.01850
3057.29542,0.01855
3055.23525,0.01853
3053.17508,0.01848
3051.11491,0.01841
3049.05473,0.01829
3046.99456,0.01814
3044.93439,0.01807
3042.87422,0.01810
3040.81404,0.01807
3038.75387,0.01798
3036.69370,0.01785
3034.63353,0.01763
3032.57336,0.01738
3030.51318,0.01728
3028.45301,0.01734
3026.39284,0.01735
3024.33267,0.01720
3022.27250,0.01698
3020.21232,0.01688
3018.15215,0.01695
3016.09198,0.01698
3014.03181,0.01685
3011.97163,0.01677
3009.91146,0.01675
3007.85129,0.01667
3005.79112,0.01656
3003.73095,0.01649
3001.67077,0.01654
2999.61060,0.01672
2997.55043,0.01675
2995.49026,0.01654
2993.43009,0.01624
2991.36991,0.01613
2989.30974,0.01613
2987.24957,0.01614
2985.18940,0.01624
2983.12923,0.01642
2981.06905,0.01656
2979.00888,0.01665
2976.94871,0.01671
2974.88854,0.01671
2972.82836,0.01658
2970.76819,0.01644
2968.70802,0.01644
2966.64785,0.01653
2964.58768,0.01659
2962.52750,0.01663
2960.46733,0.01675
2958.40716,0.01682
2956.34699,0.01672
2954.28682,0.01664
2952.22664,0.01670
2950.16647,0.01680
2948.10630,0.01681
2946.04613,0.01679
2943.98596,0.01687
2941.92578,0.01701
2939.86561,0.01700
2937.80544,0.01690
2935.74527,0.01682
2933.68509,0.01673
2931.62492,0.01672
2929.56475,0.01675
2927.50458,0.01664
2925.44441,0.01651
2923.38423,0.01647
2921.32406,0.01631
2919.26389,0.01607
2917.20372,0.01596
2915.14355,0.01599
2913.08337,0.01603
2911.02320,0.01603
2908.96303,0.01598
2906.90286,0.01591
2904.84268,0.01584
2902.78251,0.01580
2900.72234,0.01588
2898.66217,0.01595
2896.60200,0.01585
2894.54182,0.01579
2892.48165,0.01577
2890.42148,0.01559
2888.36131,0.01548
2886.30114,0.01564
2884.24096,0.01585
2882.18079,0.01601
2880.12062,0.01614
2878.06045,0.01608
2876.00028,0.01587
2873.94010,0.01578
2871.87993,0.01579
2869.81976,0.01574
2867.75959,0.01562
2865.69941,0.01546
2863.63924,0.01528
2861.57907,0.01514
2859.51890,0.01512
2857.45873,0.01512
2855.39855,0.01499
2853.33838,0.01481
2851.27821,0.01460
2849.21804,0.01436
2847.15787,0.01416
2845.09769,0.01410
2843.03752,0.01417
2840.97735,0.01417
2838.91718,0.01413
2836.85700,0.01420
2834.79683,0.01426
2832.73666,0.01420
2830.67649,0.01415
2828.61632,0.01405
2826.55614,0.01378
2824.49597,0.01361
2822.43580,0.01364
2820.37563,0.01360
2818.31546,0.01347
2816.25528,0.01336
2814.19511,0.01329
2812.13494,0.01336
2810.07477,0.01342
2808.01460,0.01331
2805.95442,0.01322
2803.89425,0.01325
2801.83408,0.01319
2799.77391,0.01297
2797.71373,0.01287
2795.65356,0.01301
2793.59339,0.01314
2791.53322,0.01307
2789.47305,0.01293
2787.41287,0.01280
2785.35270,0.01266
2783.29253,0.01260
2781.23236,0.01258
2779.17219,0.01250
2777.11201,0.01244
2775.05184,0.01245
2772.99167,0.01248
2770.93150,0.01245
2768.87133,0.01236
2766.81115,0.01230
2764.75098,0.01235
2762.69081,0.01234
2760.63064,0.01219
2758.57046,0.01207
2756.51029,0.01200
2754.45012,0.01185
2752.38995,0.01171
2750.32978,0.01178
2748.26960,0.01188
2746.20943,0.01182
2744.14926,0.01169
2742.08909,0.01158
2740.02892,0.01155
2737.96874,0.01158
2735.90857,0.01157
2733.84840,0.01159
2731.78823,0.01161
2729.72805,0.01157
2727.66788,0.01150
2725.60771,0.01143
2723.54754,0.01139
2721.48737,0.01145
2719.42719,0.01151
2717.36702,0.01145
2715.30685,0.01129
2713.24668,0.01112
2711.18651,0.01100
2709.12633,0.01097
2707.06616,0.01104
2705.00599,0.01114
2702.94582,0.01117
2700.88565,0.01114
2698.82547,0.01101
2696.76530,0.01080
2694.70513,0.01075
2692.64496,0.01080
2690.58478,0.01083
2688.52461,0.01081
2686.46444,0.01082
2684.40427,0.01085
2682.34410,0.01077
2680.28392,0.01065
2678.22375,0.01062
2676.16358,0.01062
2674.10341,0.01062
2672.04324,0.01056
2669.98306,0.01043
2667.92289,0.01035
2665.86272,0.01037
2663.80255,0.01051
2661.74238,0.01061
2659.68220,0.01050
2657.62203,0.01036
2655.56186,0.01039
2653.50169,0.01055
2651.44151,0.01065
2649.38134,0.01064
2647.32117,0.01050
2645.26100,0.01040
2643.20083,0.01042
2641.14065,0.01044
2639.08048,0.01040
2637.02031,0.01037
2634.96014,0.01031
2632.89997,0.01025
2630.83979,0.01022
2628.77962,0.01014
2626.71945,0.00999
2624.65928,0.00989
2622.59910,0.00994
2620.53893,0.01004
2618.47876,0.01003
2616.41859,0.01000
2614.35842,0.00993
2612.29824,0.00972
2610.23807,0.00959
2608.17790,0.00969
2606.11773,0.00974
2604.05756,0.00952
2601.99738,0.00934
2599.93721,0.00937
2597.87704,0.00956
2595.81687,0.00974
2593.75670,0.00982
2591.69652,0.00966
2589.63635,0.00926
2587.57618,0.00897
2585.51601,0.00904
2583.45583,0.00929
2581.39566,0.00947
2579.33549,0.00947
2577.27532,0.00939
2575.21515,0.00933
2573.15497,0.00931
2571.09480,0.00936
2569.03463,0.00949
2566.97446,0.00961
2564.91429,0.00966
2562.85411,0.00974
2560.79394,0.00961
2558.73377,0.00930
2556.67360,0.00914
2554.61342,0.00916
2552.55325,0.00917
2550.49308,0.00910
2548.43291,0.00905
2546.37274,0.00901
2544.31256,0.00898
2542.25239,0.00909
2540.19222,0.00933
2538.13205,0.00945
2536.07188,0.00937
2534.01170,0.00929
2531.95153,0.00930
2529.89136,0.00936
2527.83119,0.00943
2525.77102,0.00940
2523.71084,0.00927
2521.65067,0.00927
2519.59050,0.00936
2517.53033,0.00927
2515.47015,0.00919
2513.40998,0.00943
2511.34981,0.00965
2509.28964,0.00958
2507.22947,0.00935
2505.16929,0.00909
2503.10912,0.00905
2501.04895,0.00931
2498.98878,0.00955
2496.92861,0.00976
2494.86843,0.01001
2492.80826,0.01010
2490.74809,0.00998
2488.68792,0.00974
2486.62775,0.00952
2484.56757,0.00941
2482.50740,0.00942
2480.44723,0.00959
2478.38706,0.00974
2476.32688,0.00980
2474.26671,0.00988
2472.20654,0.00995
2470.14637,0.01002
2468.08620,0.01016
2466.02602,0.01012
2463.96585,0.00996
2461.90568,0.00998
2459.84551,0.01007
2457.78534,0.01019
2455.72516,0.01038
2453.66499,0.01028
2451.60482,0.00990
2449.54465,0.00961
2447.48447,0.00960
2445.42430,0.00979
2443.36413,0.00991
2441.30396,0.00989
2439.24379,0.00986
2437.18361,0.00975
2435.12344,0.00966
2433.06327,0.00969
2431.00310,0.00972
2428.94293,0.00976
2426.88275,0.00999
2424.82258,0.01019
2422.76241,0.01010
2420.70224,0.00999
2418.64207,0.00987
2416.58189,0.00970
2414.52172,0.00989
2412.46155,0.01027
2410.40138,0.01035
2408.34120,0.01010
2406.28103,0.00976
2404.22086,0.00959
2402.16069,0.00964
2400.10052,0.00978
2398.04034,0.00988
2395.98017,0.00987
2393.92000,0.00986
2391.85983,0.00987
2389.79966,0.00980
2387.73948,0.00972
2385.67931,0.00979
2383.61914,0.00980
2381.55897,0.00958
2379.49880,0.00948
2377.43862,0.00952
2375.37845,0.00862
2373.31828,0.00854
2371.25811,0.00870
2369.19793,0.00801
2367.13776,0.00860
2365.07759,0.01138
2363.01742,0.01135
2360.95725,0.01342
2358.89707,0.01234
2356.83690,0.01049
2354.77673,0.00746
2352.71656,0.00748
2350.65639,0.01405
2348.59621,0.01847
2346.53604,0.00862
2344.47587,0.00710
2342.41570,0.00976
2340.35552,0.01147
2338.29535,0.01202
2336.23518,0.01195
2334.17501,0.01134
2332.11484,0.01041
2330.05466,0.01061
2327.99449,0.00964
2325.93432,0.01141
2323.87415,0.01045
2321.81398,0.01006
2319.75380,0.00834
2317.69363,0.00926
2315.63346,0.00917
2313.57329,0.00832
2311.51312,0.00861
2309.45294,0.00899
2307.39277,0.00901
2305.33260,0.00880
2303.27243,0.00888
2301.21225,0.00880
2299.15208,0.00911
2297.09191,0.00937
2295.03174,0.00918
2292.97157,0.00916
2290.91139,0.00928
2288.85122,0.00927
2286.79105,0.00924
2284.73088,0.00933
2282.67071,0.00944
2280.61053,0.00952
2278.55036,0.00951
2276.49019,0.00943
2274.43002,0.00958
2272.36984,0.00965
2270.30967,0.00947
2268.24950,0.00931
2266.18933,0.00927
2264.12916,0.00922
2262.06898,0.00917
2260.00881,0.00883
2257.94864,0.00829
2255.88847,0.00789
2253.82830,0.00826
2251.76812,0.00898
2249.70795,0.00895
2247.64778,0.00843
2245.58761,0.00853
2243.52744,0.00875
2241.46726,0.00865
2239.40709,0.00849
2237.34692,0.00813
2235.28675,0.00773
2233.22657,0.00748
2231.16640,0.00753
2229.10623,0.00774
2227.04606,0.00773
2224.98589,0.00765
2222.92571,0.00751
2220.86554,0.00718
2218.80537,0.00714
2216.74520,0.00754
2214.68503,0.00781
2212.62485,0.00755
2210.56468,0.00701
2208.50451,0.00668
2206.44434,0.00667
2204.38417,0.00664
2202.32399,0.00647
2200.26382,0.00647
2198.20365,0.00688
2196.14348,0.00706
2194.08330,0.00650
2192.02313,0.00612
2189.96296,0.00651
2187.90279,0.00689
2185.84262,0.00621
2183.78244,0.00521
2181.72227,0.00602
2179.66210,0.00761
2177.60193,0.00733
2175.54176,0.00623
2173.48158,0.00628
2171.42141,0.00696
2169.36124,0.00722
2167.30107,0.00728
2165.24089,0.00723
2163.18072,0.00658
2161.12055,0.00521
2159.06038,0.00380
2157.00021,0.00316
2154.94003,0.00346
2152.87986,0.00404
2150.81969,0.00419
2148.75952,0.00405
2146.69935,0.00424
2144.63917,0.00468
2142.57900,0.00480
2140.51883,0.00485
2138.45866,0.00510
2136.39849,0.00523
2134.33831,0.00505
2132.27814,0.00474
2130.21797,0.00464
2128.15780,0.00486
2126.09762,0.00530
2124.03745,0.00582
2121.97728,0.00634
2119.91711,0.00681
2117.85694,0.00700
2115.79676,0.00681
2113.73659,0.00662
2111.67642,0.00662
2109.61625,0.00661
2107.55608,0.00657
2105.49590,0.00667
2103.43573,0.00714
2101.37556,0.00738
2099.31539,0.00688
2097.25521,0.00609
2095.19504,0.00577
2093.13487,0.00571
2091.07470,0.00578
2089.01453,0.00617
2086.95435,0.00670
2084.89418,0.00710
2082.83401,0.00721
2080.77384,0.00730
2078.71367,0.00748
2076.65349,0.00737
2074.59332,0.00691
2072.53315,0.00662
2070.47298,0.00660
2068.41281,0.00655
2066.35263,0.00630
2064.29246,0.00591
2062.23229,0.00558
2060.17212,0.00529
2058.11194,0.00509
2056.05177,0.00537
2053.99160,0.00628
2051.93143,0.00722
2049.87126,0.00767
2047.81108,0.00756
2045.75091,0.00735
2043.69074,0.00758
2041.63057,0.00783
2039.57040,0.00762
2037.51022,0.00731
2035.45005,0.00717
2033.38988,0.00711
2031.32971,0.00726
2029.26954,0.00773
2027.20936,0.00789
2025.14919,0.00731
2023.08902,0.00654
2021.02885,0.00594
2018.96867,0.00543
2016.90850,0.00554
2014.84833,0.00643
2012.78816,0.00697
2010.72799,0.00681
2008.66781,0.00670
2006.60764,0.00663
2004.54747,0.00610
2002.48730,0.00530
2000.42713,0.00506
1998.36695,0.00530
1996.30678,0.00527
1994.24661,0.00535
1992.18644,0.00615
1990.12626,0.00683
1988.06609,0.00687
1986.00592,0.00690
1983.94575,0.00703
1981.88558,0.00701
1979.82540,0.00681
1977.76523,0.00659
1975.70506,0.00654
1973.64489,0.00641
1971.58472,0.00605
1969.52454,0.00595
1967.46437,0.00603
1965.40420,0.00582
1963.34403,0.00558
1961.28386,0.00557
1959.22368,0.00552
1957.16351,0.00523
1955.10334,0.00482
1953.04317,0.00479
1950.98299,0.00557
1948.92282,0.00649
1946.86265,0.00664
1944.80248,0.00620
1942.74231,0.00576
1940.68213,0.00564
1938.62196,0.00584
1936.56179,0.00606
1934.50162,0.00619
1932.44145,0.00625
1930.38127,0.00628
1928.32110,0.00637
1926.26093,0.00633
1924.20076,0.00605
1922.14059,0.00578
1920.08041,0.00587
1918.02024,0.00631
1915.96007,0.00666
1913.89990,0.00678
1911.83972,0.00676
1909.77955,0.00666
1907.71938,0.00663
1905.65921,0.00678
1903.59904,0.00699
1901.53886,0.00713
1899.47869,0.00717
1897.41852,0.00708
1895.35835,0.00699
1893.29818,0.00708
1891.23800,0.00720
1889.17783,0.00712
1887.11766,0.00704
1885.05749,0.00712
1882.99731,0.00727
1880.93714,0.00742
1878.87697,0.00747
1876.81680,0.00738
1874.75663,0.00717
1872.69645,0.00698
1870.63628,0.00696
1868.57611,0.00715
1866.51594,0.00731
1864.45577,0.00739
1862.39559,0.00753
1860.33542,0.00765
1858.27525,0.00759
1856.21508,0.00742
1854.15491,0.00736
1852.09473,0.00735
1850.03456,0.00723
1847.97439,0.00714
1845.91422,0.00721
1843.85404,0.00742
1841.79387,0.00757
1839.73370,0.00762
1837.67353,0.00765
1835.61336,0.00757
1833.55318,0.00744
1831.49301,0.00746
1829.43284,0.00760
1827.37267,0.00768
1825.31250,0.00763
1823.25232,0.00759
1821.19215,0.00766
1819.13198,0.00777
1817.07181,0.00780
1815.01163,0.00779
1812.95146,0.00773
1810.89129,0.00767
1808.83112,0.00773
1806.77095,0.00787
1804.71077,0.00785
1802.65060,0.00763
1800.59043,0.00742
1798.53026,0.00735
1796.47009,0.00738
1794.40991,0.00755
1792.34974,0.00772
1790.28957,0.00767
1788.22940,0.00756
1786.16923,0.00753
1784.10905,0.00761
1782.04888,0.00785
1779.98871,0.00803
1777.92854,0.00795
1775.86836,0.00781
1773.80819,0.00789
1771.74802,0.00795
1769.68785,0.00768
1767.62768,0.00748
1765.56750,0.00769
1763.50733,0.00803
1761.44716,0.00815
1759.38699,0.00808
1757.32682,0.00808
1755.26664,0.00817
1753.20647,0.00819
1751.14630,0.00811
1749.08613,0.00808
1747.02596,0.00813
1744.96578,0.00818
1742.90561,0.00824
1740.84544,0.00833
1738.78527,0.00845
1736.72509,0.00859
1734.66492,0.00865
1732.60475,0.00866
1730.54458,0.00880
1728.48441,0.00884
1726.42423,0.00872
1724.36406,0.00861
1722.30389,0.00866
1720.24372,0.00887
1718.18355,0.00894
1716.12337,0.00850
1714.06320,0.00814
1712.00303,0.00810
1709.94286,0.00834
1707.88268,0.00865
1705.82251,0.00871
1703.76234,0.00862
1701.70217,0.00888
1699.64200,0.00935
1697.58182,0.00961
1695.52165,0.00977
1693.46148,0.00994
1691.40131,0.01013
1689.34114,0.01044
1687.28096,0.01101
1685.22079,0.01196
1683.16062,0.01274
1681.10045,0.01311
1679.04028,0.01352
1676.98010,0.01407
1674.91993,0.01461
1672.85976,0.01516
1670.79959,0.01585
1668.73941,0.01645
1666.67924,0.01675
1664.61907,0.01698
1662.55890,0.01718
1660.49873,0.01716
1658.43855,0.01717
1656.37838,0.01756
1654.31821,0.01816
1652.25804,0.01823
1650.19787,0.01787
1648.13769,0.01762
1646.07752,0.01757
1644.01735,0.01731
1641.95718,0.01703
1639.89701,0.01701
1637.83683,0.01716
1635.77666,0.01711
1633.71649,0.01674
1631.65632,0.01638
1629.59614,0.01622
1627.53597,0.01620
1625.47580,0.01609
1623.41563,0.01580
1621.35546,0.01540
1619.29528,0.01522
1617.23511,0.01527
1615.17494,0.01517
1613.11477,0.01494
1611.05460,0.01483
1608.99442,0.01485
1606.93425,0.01488
1604.87408,0.01487
1602.81391,0.01476
1600.75373,0.01453
1598.69356,0.01428
1596.63339,0.01408
1594.57322,0.01390
1592.51305,0.01369
1590.45287,0.01350
1588.39270,0.01340
1586.33253,0.01331
1584.27236,0.01306
1582.21219,0.01269
1580.15201,0.01245
1578.09184,0.01241
1576.03167,0.01222
1573.97150,0.01175
1571.91133,0.01151
1569.85115,0.01163
1567.79098,0.01161
1565.73081,0.01122
1563.67064,0.01087
1561.61046,0.01097
1559.55029,0.01117
1557.49012,0.01066
1555.42995,0.01005
1553.36978,0.00973
1551.30960,0.00961
1549.24943,0.00951
1547.18926,0.00938
1545.12909,0.00932
1543.06892,0.00948
1541.00874,0.00988
1538.94857,0.00981
1536.88840,0.00921
1534.82823,0.00881
1532.76805,0.00881
1530.70788,0.00877
1528.64771,0.00858
1526.58754,0.00828
1524.52737,0.00800
1522.46719,0.00778
1520.40702,0.00754
1518.34685,0.00751
1516.28668,0.00760
1514.22651,0.00749
1512.16633,0.00715
1510.10616,0.00690
1508.04599,0.00709
1505.98582,0.00762
1503.92565,0.00776
1501.86547,0.00760
1499.80530,0.00773
1497.74513,0.00801
1495.68496,0.00811
1493.62478,0.00813
1491.56461,0.00815
1489.50444,0.00808
1487.44427,0.00809
1485.38410,0.00828
1483.32392,0.00850
1481.26375,0.00861
1479.20358,0.00860
1477.14341,0.00860
1475.08324,0.00870
1473.02306,0.00888
1470.96289,0.00900
1468.90272,0.00909
1466.84255,0.00927
1464.78238,0.00947
1462.72220,0.00952
1460.66203,0.00962
1458.60186,0.00977
1456.54169,0.00974
1454.48151,0.00979
1452.42134,0.00989
1450.36117,0.01006
1448.30100,0.01032
1446.24083,0.01058
1444.18065,0.01078
1442.12048,0.01087
1440.06031,0.01083
1438.00014,0.01073
1435.93997,0.01066
1433.87979,0.01073
1431.81962,0.01088
1429.75945,0.01107
1427.69928,0.01123
1425.63910,0.01135
1423.57893,0.01141
1421.51876,0.01141
1419.45859,0.01132
1417.39842,0.01134
1415.33824,0.01166
1413.27807,0.01211
1411.21790,0.01242
1409.15773,0.01254
1407.09756,0.01258
1405.03738,0.01260
1402.97721,0.01258
1400.91704,0.01252
1398.85687,0.01235
1396.79670,0.01214
1394.73652,0.01214
1392.67635,0.01228
1390.61618,0.01233
1388.55601,0.01230
1386.49583,0.01243
1384.43566,0.01271
1382.37549,0.01289
1380.31532,0.01292
1378.25515,0.01295
1376.19497,0.01305
1374.13480,0.01304
1372.07463,0.01296
1370.01446,0.01302
1367.95429,0.01312
1365.89411,0.01312
1363.83394,0.01294
1361.77377,0.01269
1359.71360,0.01266
1357.65343,0.01278
1355.59325,0.01288
1353.53308,0.01292
1351.47291,0.01288
1349.41274,0.01274
1347.35256,0.01249
1345.29239,0.01221
1343.23222,0.01192
1341.17205,0.01155
1339.11188,0.01113
1337.05170,0.01101
1334.99153,0.01123
1332.93136,0.01142
1330.87119,0.01143
1328.81102,0.01140
1326.75084,0.01145
1324.69067,0.01149
1322.63050,0.01149
1320.57033,0.01140
1318.51015,0.01115
1316.44998,0.01093
1314.38981,0.01092
1312.32964,0.01106
1310.26947,0.01120
1308.20929,0.01129
1306.14912,0.01135
1304.08895,0.01140
1302.02878,0.01141
1299.96861,0.01131
1297.90843,0.01120
1295.84826,0.01125
1293.78809,0.01142
1291.72792,0.01142
1289.66775,0.01122
1287.60757,0.01105
1285.54740,0.01096
1283.48723,0.01102
1281.42706,0.01116
1279.36688,0.01118
1277.30671,0.01108
1275.24654,0.01102
1273.18637,0.01104
1271.12620,0.01105
1269.06602,0.01100
1267.00585,0.01101
1264.94568,0.01107
1262.88551,0.01110
1260.82534,0.01115
1258.76516,0.01123
1256.70499,0.01127
1254.64482,0.01130
1252.58465,0.01134
1250.52447,0.01129
1248.46430,0.01117
1246.40413,0.01109
1244.34396,0.01114
1242.28379,0.01129
1240.22361,0.01136
1238.16344,0.01125
1236.10327,0.01108
1234.04310,0.01095
1231.98293,0.01081
1229.92275,0.01065
1227.86258,0.01055
1225.80241,0.01050
1223.74224,0.01042
1221.68207,0.01031
1219.62189,0.01025
1217.56172,0.01028
1215.50155,0.01029
1213.44138,0.01010
1211.38120,0.00980
1209.32103,0.00971
1207.26086,0.00986
1205.20069,0.01007
1203.14052,0.01019
1201.08034,0.01019
1199.02017,0.01022
1196.96000,0.01049
1194.89983,0.01092
1192.83966,0.01147
1190.77948,0.01203
1188.71931,0.01250
1186.65914,0.01302
1184.59897,0.01374
1182.53880,0.01453
1180.47862,0.01527
1178.41845,0.01593
1176.35828,0.01661
1174.29811,0.01742
1172.23793,0.01823
1170.17776,0.01886
1168.11759,0.01941
1166.05742,0.02006
1163.99725,0.02079
1161.93707,0.02154
1159.87690,0.02217
1157.81673,0.02271
1155.75656,0.02329
1153.69639,0.02388
1151.63621,0.02442
1149.57604,0.02496
1147.51587,0.02539
1145.45570,0.02568
1143.39552,0.02597
1141.33535,0.02625
1139.27518,0.02644
1137.21501,0.02657
1135.15484,0.02666
1133.09466,0.02681
1131.03449,0.02705
1128.97432,0.02740
1126.91415,0.02785
1124.85398,0.02829
1122.79380,0.02872
1120.73363,0.02912
1118.67346,0.02952
1116.61329,0.03006
1114.55312,0.03078
1112.49294,0.03151
1110.43277,0.03219
1108.37260,0.03277
1106.31243,0.03325
1104.25225,0.03379
1102.19208,0.03440
1100.13191,0.03493
1098.07174,0.03548
1096.01157,0.03618
1093.95139,0.03684
1091.89122,0.03738
1089.83105,0.03793
1087.77088,0.03848
1085.71071,0.03902
1083.65053,0.03953
1081.59036,0.04000
1079.53019,0.04049
1077.47002,0.04092
1075.40985,0.04126
1073.34967,0.04157
1071.28950,0.04173
1069.22933,0.04163
1067.16916,0.04135
1065.10898,0.04105
1063.04881,0.04074
1060.98864,0.04030
1058.92847,0.03975
1056.86830,0.03918
1054.80812,0.03851
1052.74795,0.03775
1050.68778,0.03695
1048.62761,0.03607
1046.56744,0.03504
1044.50726,0.03388
1042.44709,0.03279
1040.38692,0.03183
1038.32675,0.03078
1036.26657,0.02967
1034.20640,0.02865
1032.14623,0.02781
1030.08606,0.02714
1028.02589,0.02649
1025.96571,0.02581
1023.90554,0.02524
1021.84537,0.02478
1019.78520,0.02415
1017.72503,0.02347
1015.66485,0.02306
1013.60468,0.02293
1011.54451,0.02287
1009.48434,0.02283
1007.42417,0.02290
1005.36399,0.02306
1003.30382,0.02326
1001.24365,0.02371
999.18348,0.02437
997.12330,0.02488
995.06313,0.02525
993.00296,0.02562
990.94279,0.02594
988.88262,0.02621
986.82244,0.02651
984.76227,0.02680
982.70210,0.02694
980.64193,0.02702
978.58176,0.02713
976.52158,0.02709
974.46141,0.02693
972.40124,0.02675
970.34107,0.02652
968.28089,0.02629
966.22072,0.02610
964.16055,0.02591
962.10038,0.02569
960.04021,0.02536
957.98003,0.02495
955.91986,0.02455
953.85969,0.02424
951.79952,0.02408
949.73935,0.02391
947.67917,0.02361
945.61900,0.02335
943.55883,0.02308
941.49866,0.02259
939.43849,0.02210
937.37831,0.02177
935.31814,0.02134
933.25797,0.02067
931.19780,0.02008
929.13762,0.01965
927.07745,0.01928
925.01728,0.01884
922.95711,0.01826
920.89694,0.01768
918.83676,0.01728
916.77659,0.01701
914.71642,0.01668
912.65625,0.01630
910.59608,0.01594
908.53590,0.01559
906.47573,0.01528
904.41556,0.01514
902.35539,0.01516
900.29522,0.01514
898.23504,0.01517
896.17487,0.01525
894.11470,0.01527
892.05453,0.01538
889.99435,0.01561
887.93418,0.01591
885.87401,0.01655
883.81384,0.01753
881.75367,0.01845
879.69349,0.01911
877.63332,0.01955
875.57315,0.02000
873.51298,0.02058
871.45281,0.02131
869.39263,0.02221
867.33246,0.02302
865.27229,0.02357
863.21212,0.02401
861.15194,0.02443
859.09177,0.02483
857.03160,0.02508
854.97143,0.02499
852.91126,0.02476
850.85108,0.02470
848.79091,0.02462
846.73074,0.02416
844.67057,0.02340
842.61040,0.02266
840.55022,0.02202
838.49005,0.02143
836.42988,0.02083
834.36971,0.02015
832.30954,0.01963
830.24936,0.01944
828.18919,0.01919
826.12902,0.01856
824.06885,0.01778
822.00867,0.01729
819.94850,0.01698
817.88833,0.01678
815.82816,0.01669
813.76799,0.01629
811.70781,0.01572
809.64764,0.01552
807.58747,0.01556
805.52730,0.01551
803.46713,0.01518
801.40695,0.01454
799.34678,0.01414
797.28661,0.01417
795.22644,0.01416
793.16627,0.01390
791.10609,0.01364
789.04592,0.01364
786.98575,0.01380
784.92558,0.01394
782.86540,0.01383
780.80523,0.01335
778.74506,0.01293
776.68489,0.01306
774.62472,0.01330
772.56454,0.01316
770.50437,0.01297
768.44420,0.01296
766.38403,0.01302
764.32386,0.01305
762.26368,0.01290
760.20351,0.01272
758.14334,0.01280
756.08317,0.01288
754.02299,0.01261
751.96282,0.01226
749.90265,0.01216
747.84248,0.01206
745.78231,0.01172
743.72213,0.01156
741.66196,0.01185
739.60179,0.01210
737.54162,0.01208
735.48145,0.01191
733.42127,0.01174
731.36110,0.01166
729.30093,0.01160
727.24076,0.01152
725.18059,0.01153
723.12041,0.01204
721.06024,0.01114
719.00007,0.01197
716.93990,0.01210
714.87972,0.01187
712.81955,0.01166
710.75938,0.01149
708.69921,0.01175
706.63904,0.01220
704.57886,0.01245
702.51869,0.01239
700.45852,0.01227
698.39835,0.01217
696.33818,0.01210
694.27800,0.01224
692.21783,0.01253
690.15766,0.01305
688.09749,0.01397
686.03731,0.01511
683.97714,0.01584
681.91697,0.01577
679.85680,0.01516
677.79663,0.01433
675.73645,0.01347
673.67628,0.01529
671.61611,0.02366
669.55594,0.02075
667.49577,0.00000
665.43559,0.02208
663.37542,0.01820
661.31525,0.01218
659.25508,0.01200
657.19491,0.01293
655.13473,0.01301
653.07456,0.01246
651.01439,0.01166
648.95422,0.01065
646.89404,0.01077
644.83387,0.00990
642.77370,0.00843
640.71353,0.00741
638.65336,0.00706
636.59318,0.00677
634.53301,0.00646
632.47284,0.00627
630.41267,0.00586
628.35250,0.00507
626.29232,0.00446
624.23215,0.00427
622.17198,0.00480
620.11181,0.00484
618.05164,0.00357
615.99146,0.00246
613.93129,0.00251
611.87112,0.00260
609.81095,0.00175
607.75077,0.00104
605.69060,0.00160
603.63043,0.00190
601.57026,0.00078
599.51009,0.00000
