3996.73391,-0.00097
3994.67373,-0.00107
3992.61356,-0.00099
3990.55339,-0.00081
3988.49322,-0.00068
3986.43305,-0.00064
3984.37287,-0.00069
3982.31270,-0.00062
3980.25253,-0.00041
3978.19236,-0.00026
3976.13219,-0.00020
3974.07201,-0.00009
3972.01184,-0.00002
3969.95167,-0.00003
3967.89150,0.00008
3965.83133,0.00032
3963.77115,0.00042
3961.71098,0.00045
3959.65081,0.00069
3957.59064,0.00103
3955.53046,0.00131
3953.47029,0.00137
3951.41012,0.00096
3949.34995,0.00027
3947.28978,0.00000
3945.22960,0.00026
3943.16943,0.00056
3941.10926,0.00089
3939.04909,0.00130
3936.98892,0.00151
3934.92874,0.00127
3932.86857,0.00079
3930.80840,0.00074
3928.74823,0.00118
3926.68805,0.00158
3924.62788,0.00166
3922.56771,0.00141
3920.50754,0.00103
3918.44737,0.00085
3916.38719,0.00133
3914.32702,0.00221
3912.26685,0.00277
3910.20668,0.00291
3908.14651,0.00281
3906.08633,0.00224
3904.02616,0.00095
3901.96599,0.00000
3899.90582,0.00038
3897.84565,0.00137
3895.78547,0.00191
3893.72530,0.00188
3891.66513,0.00161
3889.60496,0.00148
3887.54478,0.00150
3885.48461,0.00158
3883.42444,0.00164
3881.36427,0.00168
3879.30410,0.00190
3877.24392,0.00229
3875.18375,0.00239
3873.12358,0.00194
3871.06341,0.00125
3869.00324,0.00103
3866.94306,0.00137
3864.88289,0.00171
3862.82272,0.00155
3860.76255,0.00111
3858.70237,0.00079
3856.64220,0.00087
3854.58203,0.00174
3852.52186,0.00256
3850.46169,0.00249
3848.40151,0.00206
3846.34134,0.00215
3844.28117,0.00261
3842.22100,0.00272
3840.16083,0.00244
3838.10065,0.00220
3836.04048,0.00216
3833.98031,0.00219
3831.92014,0.00228
3829.85997,0.00256
3827.79979,0.00294
3825.73962,0.00312
3823.67945,0.00314
3821.61928,0.00326
3819.55910,0.00333
3817.49893,0.00349
3815.43876,0.00351
3813.37859,0.00317
3811.31842,0.00288
3809.25824,0.00316
3807.19807,0.00381
3805.13790,0.00437
3803.07773,0.00480
3801.01756,0.00481
3798.95738,0.00457
3796.89721,0.00461
3794.83704,0.00472
3792.77687,0.00466
3790.71670,0.00452
3788.65652,0.00458
3786.59635,0.00496
3784.53618,0.00527
3782.47601,0.00530
3780.41583,0.00519
3778.35566,0.00489
3776.29549,0.00469
3774.23532,0.00487
3772.17515,0.00522
3770.11497,0.00512
3768.05480,0.00444
3765.99463,0.00393
3763.93446,0.00391
3761.87429,0.00399
3759.81411,0.00375
3757.75394,0.00314
3755.69377,0.00273
3753.63360,0.00284
3751.57342,0.00292
3749.51325,0.00211
3747.45308,0.00088
3745.39291,0.00000
3743.33274,0.00043
3741.27256,0.00147
3739.21239,0.00188
3737.15222,0.00180
3735.09205,0.00174
3733.03188,0.00223
3730.97170,0.00267
3728.91153,0.00261
3726.85136,0.00223
3724.79119,0.00196
3722.73102,0.00224
3720.67084,0.00280
3718.61067,0.00290
3716.55050,0.00269
3714.49033,0.00295
3712.43015,0.00382
3710.36998,0.00431
3708.30981,0.00428
3706.24964,0.00427
3704.18947,0.00439
3702.12929,0.00446
3700.06912,0.00446
3698.00895,0.00458
3695.94878,0.00477
3693.88861,0.00512
3691.82843,0.00563
3689.76826,0.00572
3687.70809,0.00535
3685.64792,0.00502
3683.58775,0.00455
3681.52757,0.00423
3679.46740,0.00449
3677.40723,0.00494
3675.34706,0.00488
3673.28688,0.00454
3671.22671,0.00446
3669.16654,0.00440
3667.10637,0.00439
3665.04620,0.00470
3662.98602,0.00520
3660.92585,0.00555
3658.86568,0.00546
3656.80551,0.00497
3654.74534,0.00468
3652.68516,0.00512
3650.62499,0.00573
3648.56482,0.00557
3646.50465,0.00552
3644.44447,0.00573
3642.38430,0.00587
3640.32413,0.00614
3638.26396,0.00667
3636.20379,0.00715
3634.14361,0.00726
3632.08344,0.00715
3630.02327,0.00709
3627.96310,0.00718
3625.90293,0.00764
3623.84275,0.00822
3621.78258,0.00854
3619.72241,0.00835
3617.66224,0.00776
3615.60207,0.00728
3613.54189,0.00702
3611.48172,0.00689
3609.42155,0.00707
3607.36138,0.00780
3605.30120,0.00899
3603.24103,0.01020
3601.18086,0.01096
3599.12069,0.01089
3597.06052,0.01031
3595.00034,0.01000
3592.94017,0.01029
3590.88000,0.01057
3588.81983,0.01026
3586.75966,0.01006
3584.69948,0.01081
3582.63931,0.01180
3580.57914,0.01234
3578.51897,0.01255
3576.45879,0.01273
3574.39862,0.01292
3572.33845,0.01309
3570.27828,0.01306
3568.21811,0.01269
3566.15793,0.01245
3564.09776,0.01301
3562.03759,0.01379
3559.97742,0.01441
3557.91725,0.01507
3555.85707,0.01563
3553.79690,0.01575
3551.73673,0.01548
3549.67656,0.01502
3547.61639,0.01453
3545.55621,0.01454
3543.49604,0.01540
3541.43587,0.01649
3539.37570,0.01694
3537.31552,0.01672
3535.25535,0.01672
3533.19518,0.01733
3531.13501,0.01796
3529.07484,0.01811
3527.01466,0.01786
3524.95449,0.01774
3522.89432,0.01809
3520.83415,0.01866
3518.77398,0.01907
3516.71380,0.01931
3514.65363,0.01952
3512.59346,0.01967
3510.53329,0.01965
3508.47312,0.01976
3506.41294,0.02009
3504.35277,0.02020
3502.29260,0.02022
3500.23243,0.02078
3498.17225,0.02164
3496.11208,0.02211
3494.05191,0.02219
3491.99174,0.02220
3489.93157,0.02233
3487.87139,0.02255
3485.81122,0.02272
3483.75105,0.02278
3481.69088,0.02268
3479.63071,0.02271
3477.57053,0.02310
3475.51036,0.02359
3473.45019,0.02397
3471.39002,0.02420
3469.32984,0.02418
3467.26967,0.02401
3465.20950,0.02396
3463.14933,0.02420
3461.08916,0.02455
3459.02898,0.02491
3456.96881,0.02532
3454.90864,0.02553
3452.84847,0.02548
3450.78830,0.02555
3448.72812,0.02584
3446.66795,0.02605
3444.60778,0.02617
3442.54761,0.02639
3440.48744,0.02664
3438.42726,0.02683
3436.36709,0.02702
3434.30692,0.02733
3432.24675,0.02753
3430.18657,0.02741
3428.12640,0.02724
3426.06623,0.02718
3424.00606,0.02722
3421.94589,0.02743
3419.88571,0.02776
3417.82554,0.02824
3415.76537,0.02850
3413.70520,0.02819
3411.64503,0.02778
3409.58485,0.02779
3407.52468,0.02828
3405.46451,0.02891
3403.40434,0.02902
3401.34416,0.02870
3399.28399,0.02783
3397.22382,0.02787
3395.16365,0.02811
3393.10348,0.02840
3391.04330,0.02874
3388.98313,0.02905
3386.92296,0.02909
3384.86279,0.02896
3382.80262,0.02898
3380.74244,0.02910
3378.68227,0.02927
3376.62210,0.02958
3374.56193,0.02993
3372.50176,0.03013
3370.44158,0.03016
3368.38141,0.03006
3366.32124,0.02986
3364.26107,0.02972
3362.20089,0.02968
3360.14072,0.02966
3358.08055,0.02968
3356.02038,0.02985
3353.96021,0.03021
3351.90003,0.03042
3349.83986,0.03037
3347.77969,0.03029
3345.71952,0.03023
3343.65935,0.03019
3341.59917,0.03022
3339.53900,0.03024
3337.47883,0.03008
3335.41866,0.02995
3333.35849,0.03015
3331.29831,0.03046
3329.23814,0.03065
3327.17797,0.03082
3325.11780,0.03106
3323.05762,0.03122
3320.99745,0.03118
3318.93728,0.03115
3316.87711,0.03122
3314.81694,0.03123
3312.75676,0.03101
3310.69659,0.03079
3308.63642,0.03094
3306.57625,0.03130
3304.51608,0.03144
3302.45590,0.03127
3300.39573,0.03095
3298.33556,0.03071
3296.27539,0.03076
3294.21521,0.03094
3292.15504,0.03103
3290.09487,0.03111
3288.03470,0.03130
3285.97453,0.03155
3283.91435,0.03170
3281.85418,0.03166
3279.79401,0.03149
3277.73384,0.03133
3275.67367,0.03122
3273.61349,0.03116
3271.55332,0.03116
3269.49315,0.03116
3267.43298,0.03119
3265.37281,0.03133
3263.31263,0.03148
3261.25246,0.03153
3259.19229,0.03158
3257.13212,0.03160
3255.07194,0.03158
3253.01177,0.03161
3250.95160,0.03160
3248.89143,0.03145
3246.83126,0.03120
3244.77108,0.03113
3242.71091,0.03144
3240.65074,0.03177
3238.59057,0.03190
3236.53040,0.03182
3234.47022,0.03157
3232.41005,0.03133
3230.34988,0.03122
3228.28971,0.03114
3226.22954,0.03098
3224.16936,0.03077
3222.10919,0.03067
3220.04902,0.03064
3217.98885,0.03061
3215.92867,0.03065
3213.86850,0.03069
3211.80833,0.03069
3209.74816,0.03072
3207.68799,0.03078
3205.62781,0.03098
3203.56764,0.03115
3201.50747,0.03094
3199.44730,0.03057
3197.38713,0.03048
3195.32695,0.03065
3193.26678,0.03074
3191.20661,0.03063
3189.14644,0.03044
3187.08626,0.03034
3185.02609,0.03036
3182.96592,0.03050
3180.90575,0.03058
3178.84558,0.03047
3176.78540,0.03042
3174.72523,0.03046
3172.66506,0.03030
3170.60489,0.03010
3168.54472,0.02996
3166.48454,0.02962
3164.42437,0.02938
3162.36420,0.02961
3160.30403,0.02981
3158.24386,0.02957
3156.18368,0.02934
3154.12351,0.02957
3152.06334,0.02995
3150.00317,0.02996
3147.94299,0.02966
3145.88282,0.02942
3143.82265,0.02937
3141.76248,0.02934
3139.70231,0.02933
3137.64213,0.02935
3135.58196,0.02916
3133.52179,0.02874
3131.46162,0.02844
3129.40145,0.02840
3127.34127,0.02842
3125.28110,0.02834
3123.22093,0.02826
3121.16076,0.02829
3119.10058,0.02830
3117.04041,0.02826
3114.98024,0.02822
3112.92007,0.02819
3110.85990,0.02813
3108.79972,0.02810
3106.73955,0.02816
3104.67938,0.02805
3102.61921,0.02766
3100.55904,0.02745
3098.49886,0.02759
3096.43869,0.02777
3094.37852,0.02774
3092.31835,0.02751
3090.25818,0.02721
3088.19800,0.02708
3086.13783,0.02718
3084.07766,0.02722
3082.01749,0.02704
3079.95731,0.02676
3077.89714,0.02663
3075.83697,0.02674
3073.77680,0.02686
3071.71663,0.02681
3069.65645,0.02645
3067.59628,0.02589
3065.53611,0.02569
3063.47594,0.02597
3061.41577,0.02617
3059.35559,0.02612
3057.29542,0.02607
3055.23525,0.02608
3053.17508,0.02603
3051.11491,0.02583
3049.05473,0.02542
3046.99456,0.02495
3044.93439,0.02477
3042.87422,0.02498
3040.81404,0.02528
3038.75387,0.02534
3036.69370,0.02498
3034.63353,0.02447
3032.57336,0.02423
3030.51318,0.02431
3028.45301,0.02440
3026.39284,0.02431
3024.33267,0.02419
3022.27250,0.02418
3020.21232,0.02421
3018.15215,0.02420
3016.09198,0.02386
3014.03181,0.02335
3011.97163,0.02316
3009.91146,0.02328
3007.85129,0.02335
3005.79112,0.02331
3003.73095,0.02328
3001.67077,0.02324
2999.61060,0.02340
2997.55043,0.02345
2995.49026,0.02318
2993.43009,0.02276
2991.36991,0.02261
2989.30974,0.02265
2987.24957,0.02263
2985.18940,0.02258
2983.12923,0.02262
2981.06905,0.02265
2979.00888,0.02254
2976.94871,0.02232
2974.88854,0.02217
2972.82836,0.02216
2970.76819,0.02215
2968.70802,0.02208
2966.64785,0.02198
2964.58768,0.02193
2962.52750,0.02201
2960.46733,0.02204
2958.40716,0.02184
2956.34699,0.02152
2954.28682,0.02140
2952.22664,0.02156
2950.16647,0.02176
2948.10630,0.02176
2946.04613,0.02159
2943.98596,0.02147
2941.92578,0.02144
2939.86561,0.02131
2937.80544,0.02125
2935.74527,0.02133
2933.68509,0.02131
2931.62492,0.02114
2929.56475,0.02094
2927.50458,0.02077
2925.44441,0.02073
2923.38423,0.02084
2921.32406,0.02087
2919.26389,0.02075
2917.20372,0.02065
2915.14355,0.02065
2913.08337,0.02062
2911.02320,0.02042
2908.96303,0.02016
2906.90286,0.02004
2904.84268,0.01990
2902.78251,0.01962
2900.72234,0.01938
2898.66217,0.01921
2896.60200,0.01911
2894.54182,0.01911
2892.48165,0.01917
2890.42148,0.01918
2888.36131,0.01902
2886.30114,0.01880
2884.24096,0.01869
2882.18079,0.01857
2880.12062,0.01840
2878.06045,0.01837
2876.00028,0.01843
2873.94010,0.01847
2871.87993,0.01849
2869.81976,0.01836
2867.75959,0.01811
2865.69941,0.01796
2863.63924,0.01793
2861.57907,0.01798
2859.51890,0.01796
2857.45873,0.01768
2855.39855,0.01739
2853.33838,0.01739
2851.27821,0.01748
2849.21804,0.01738
2847.15787,0.01706
2845.09769,0.01671
2843.03752,0.01655
2840.97735,0.01651
2838.91718,0.01646
2836.85700,0.01641
2834.79683,0.01633
2832.73666,0.01621
2830.67649,0.01607
2828.61632,0.01588
2826.55614,0.01573
2824.49597,0.01578
2822.43580,0.01582
2820.37563,0.01567
2818.31546,0.01550
2816.25528,0.01540
2814.19511,0.01533
2812.13494,0.01534
2810.07477,0.01529
2808.01460,0.01512
2805.95442,0.01502
2803.89425,0.01495
2801.83408,0.01482
2799.77391,0.01472
2797.71373,0.01465
2795.65356,0.01458
2793.59339,0.01454
2791.53322,0.01453
2789.47305,0.01450
2787.41287,0.01431
2785.35270,0.01405
2783.29253,0.01385
2781.23236,0.01371
2779.17219,0.01372
2777.11201,0.01390
2775.05184,0.01400
2772.99167,0.01387
2770.93150,0.01380
2768.87133,0.01386
2766.81115,0.01379
2764.75098,0.01357
2762.69081,0.01334
2760.63064,0.01329
2758.57046,0.01335
2756.51029,0.01342
2754.45012,0.01335
2752.38995,0.01303
2750.32978,0.01272
2748.26960,0.01274
2746.20943,0.01294
2744.14926,0.01297
2742.08909,0.01272
2740.02892,0.01243
2737.96874,0.01232
2735.90857,0.01234
2733.84840,0.01238
2731.78823,0.01243
2729.72805,0.01243
2727.66788,0.01232
2725.60771,0.01218
2723.54754,0.01208
2721.48737,0.01203
2719.42719,0.01210
2717.36702,0.01208
2715.30685,0.01190
2713.24668,0.01177
2711.18651,0.01166
2709.12633,0.01151
2707.06616,0.01145
2705.00599,0.01151
2702.94582,0.01161
2700.88565,0.01160
2698.82547,0.01146
2696.76530,0.01132
2694.70513,0.01131
2692.64496,0.01132
2690.58478,0.01120
2688.52461,0.01096
2686.46444,0.01083
2684.40427,0.01085
2682.34410,0.01085
2680.28392,0.01071
2678.22375,0.01053
2676.16358,0.01049
2674.10341,0.01048
2672.04324,0.01038
2669.98306,0.01029
2667.92289,0.01037
2665.86272,0.01056
2663.80255,0.01069
2661.74238,0.01074
2659.68220,0.01068
2657.62203,0.01054
2655.56186,0.01036
2653.50169,0.01013
2651.44151,0.01001
2649.38134,0.01026
2647.32117,0.01053
2645.26100,0.01038
2643.20083,0.01004
2641.14065,0.00996
2639.08048,0.01011
2637.02031,0.01004
2634.96014,0.00973
2632.89997,0.00953
2630.83979,0.00948
2628.77962,0.00943
2626.71945,0.00949
2624.65928,0.00976
2622.59910,0.00989
2620.53893,0.00973
2618.47876,0.00957
2616.41859,0.00941
2614.35842,0.00918
2612.29824,0.00907
2610.23807,0.00908
2608.17790,0.00903
2606.11773,0.00896
2604.05756,0.00907
2601.99738,0.00906
2599.93721,0.00874
2597.87704,0.00855
2595.81687,0.00862
2593.75670,0.00868
2591.69652,0.00878
2589.63635,0.00894
2587.57618,0.00886
2585.51601,0.00860
2583.45583,0.00848
2581.39566,0.00836
2579.33549,0.00800
2577.27532,0.00762
2575.21515,0.00748
2573.15497,0.00767
2571.09480,0.00781
2569.03463,0.00762
2566.97446,0.00743
2564.91429,0.00745
2562.85411,0.00749
2560.79394,0.00737
2558.73377,0.00737
2556.67360,0.00758
2554.61342,0.00775
2552.55325,0.00782
2550.49308,0.00792
2548.43291,0.00808
2546.37274,0.00810
2544.31256,0.00797
2542.25239,0.00774
2540.19222,0.00763
2538.13205,0.00774
2536.07188,0.00773
2534.01170,0.00755
2531.95153,0.00745
2529.89136,0.00737
2527.83119,0.00721
2525.77102,0.00706
2523.71084,0.00707
2521.65067,0.00723
2519.59050,0.00733
2517.53033,0.00733
2515.47015,0.00766
2513.40998,0.00810
2511.34981,0.00815
2509.28964,0.00821
2507.22947,0.00834
2505.16929,0.00801
2503.10912,0.00750
2501.04895,0.00727
2498.98878,0.00728
2496.92861,0.00739
2494.86843,0.00748
2492.80826,0.00747
2490.74809,0.00748
2488.68792,0.00764
2486.62775,0.00783
2484.56757,0.00798
2482.50740,0.00828
2480.44723,0.00859
2478.38706,0.00857
2476.32688,0.00839
2474.26671,0.00830
2472.20654,0.00810
2470.14637,0.00790
2468.08620,0.00803
2466.02602,0.00819
2463.96585,0.00812
2461.90568,0.00818
2459.84551,0.00835
2457.78534,0.00840
2455.72516,0.00842
2453.66499,0.00844
2451.60482,0.00836
2449.54465,0.00822
2447.48447,0.00798
2445.42430,0.00787
2443.36413,0.00802
2441.30396,0.00804
2439.24379,0.00770
2437.18361,0.00731
2435.12344,0.00720
2433.06327,0.00745
2431.00310,0.00776
2428.94293,0.00786
2426.88275,0.00792
2424.82258,0.00800
2422.76241,0.00790
2420.70224,0.00771
2418.64207,0.00764
2416.58189,0.00765
2414.52172,0.00748
2412.46155,0.00737
2410.40138,0.00749
2408.34120,0.00749
2406.28103,0.00748
2404.22086,0.00763
2402.16069,0.00768
2400.10052,0.00749
2398.04034,0.00704
2395.98017,0.00707
2393.92000,0.00740
2391.85983,0.00763
2389.79966,0.00753
2387.73948,0.00716
2385.67931,0.00662
2383.61914,0.00593
2381.55897,0.00508
2379.49880,0.00431
2377.43862,0.00391
2375.37845,0.00405
2373.31828,0.00480
2371.25811,0.00626
2369.19793,0.00794
2367.13776,0.00919
2365.07759,0.01036
2363.01742,0.01193
2360.95725,0.01293
2358.89707,0.01363
2356.83690,0.01301
2354.77673,0.01090
2352.71656,0.00855
2350.65639,0.00674
2348.59621,0.00659
2346.53604,0.00902
2344.47587,0.01098
2342.41570,0.01215
2340.35552,0.01249
2338.29535,0.01191
2336.23518,0.01105
2334.17501,0.01015
2332.11484,0.00934
2330.05466,0.00896
2327.99449,0.00909
2325.93432,0.00852
2323.87415,0.00716
2321.81398,0.00558
2319.75380,0.00515
2317.69363,0.00526
2315.63346,0.00520
2313.57329,0.00466
2311.51312,0.00397
2309.45294,0.00374
2307.39277,0.00411
2305.33260,0.00468
2303.27243,0.00517
2301.21225,0.00574
2299.15208,0.00630
2297.09191,0.00660
2295.03174,0.00672
2292.97157,0.00702
2290.91139,0.00751
2288.85122,0.00778
2286.79105,0.00782
2284.73088,0.00797
2282.67071,0.00811
2280.61053,0.00786
2278.55036,0.00732
2276.49019,0.00713
2274.43002,0.00747
2272.36984,0.00787
2270.30967,0.00809
2268.24950,0.00803
2266.18933,0.00754
2264.12916,0.00716
2262.06898,0.00721
2260.00881,0.00703
2257.94864,0.00648
2255.88847,0.00633
2253.82830,0.00665
2251.76812,0.00673
2249.70795,0.00616
2247.64778,0.00586
2245.58761,0.00639
2243.52744,0.00666
2241.46726,0.00623
2239.40709,0.00579
2237.34692,0.00566
2235.28675,0.00584
2233.22657,0.00571
2231.16640,0.00493
2229.10623,0.00439
2227.04606,0.00481
2224.98589,0.00573
2222.92571,0.00630
2220.86554,0.00637
2218.80537,0.00634
2216.74520,0.00605
2214.68503,0.00553
2212.62485,0.00544
2210.56468,0.00562
2208.50451,0.00563
2206.44434,0.00563
2204.38417,0.00534
2202.32399,0.00443
2200.26382,0.00367
2198.20365,0.00354
2196.14348,0.00383
2194.08330,0.00446
2192.02313,0.00489
2189.96296,0.00467
2187.90279,0.00400
2185.84262,0.00316
2183.78244,0.00287
2181.72227,0.00340
2179.66210,0.00399
2177.60193,0.00394
2175.54176,0.00331
2173.48158,0.00317
2171.42141,0.00377
2169.36124,0.00398
2167.30107,0.00384
2165.24089,0.00413
2163.18072,0.00441
2161.12055,0.00338
2159.06038,0.00123
2157.00021,0.00000
2154.94003,0.00036
2152.87986,0.00150
2150.81969,0.00245
2148.75952,0.00243
2146.69935,0.00201
2144.63917,0.00222
2142.57900,0.00252
2140.51883,0.00223
2138.45866,0.00155
2136.39849,0.00104
2134.33831,0.00145
2132.27814,0.00229
2130.21797,0.00250
2128.15780,0.00246
2126.09762,0.00301
2124.03745,0.00377
2121.97728,0.00397
2119.91711,0.00375
2117.85694,0.00347
2115.79676,0.00328
2113.73659,0.00348
2111.67642,0.00388
2109.61625,0.00404
2107.55608,0.00401
2105.49590,0.00383
2103.43573,0.00391
2101.37556,0.00450
2099.31539,0.00501
2097.25521,0.00466
2095.19504,0.00425
2093.13487,0.00389
2091.07470,0.00354
2089.01453,0.00351
2086.95435,0.00381
2084.89418,0.00388
2082.83401,0.00350
2080.77384,0.00313
2078.71367,0.00310
2076.65349,0.00366
2074.59332,0.00472
2072.53315,0.00541
2070.47298,0.00544
2068.41281,0.00528
2066.35263,0.00487
2064.29246,0.00421
2062.23229,0.00386
2060.17212,0.00403
2058.11194,0.00429
2056.05177,0.00450
2053.99160,0.00521
2051.93143,0.00630
2049.87126,0.00660
2047.81108,0.00582
2045.75091,0.00471
2043.69074,0.00387
2041.63057,0.00372
2039.57040,0.00384
2037.51022,0.00360
2035.45005,0.00323
2033.38988,0.00313
2031.32971,0.00344
2029.26954,0.00369
2027.20936,0.00349
2025.14919,0.00306
2023.08902,0.00288
2021.02885,0.00280
2018.96867,0.00220
2016.90850,0.00146
2014.84833,0.00166
2012.78816,0.00302
2010.72799,0.00427
2008.66781,0.00421
2006.60764,0.00360
2004.54747,0.00355
2002.48730,0.00369
2000.42713,0.00356
1998.36695,0.00345
1996.30678,0.00334
1994.24661,0.00279
1992.18644,0.00183
1990.12626,0.00131
1988.06609,0.00153
1986.00592,0.00200
1983.94575,0.00278
1981.88558,0.00451
1979.82540,0.00649
1977.76523,0.00681
1975.70506,0.00548
1973.64489,0.00418
1971.58472,0.00340
1969.52454,0.00276
1967.46437,0.00218
1965.40420,0.00183
1963.34403,0.00160
1961.28386,0.00104
1959.22368,0.00033
1957.16351,0.00000
1955.10334,0.00011
1953.04317,0.00059
1950.98299,0.00115
1948.92282,0.00154
1946.86265,0.00151
1944.80248,0.00090
1942.74231,0.00052
1940.68213,0.00085
1938.62196,0.00121
1936.56179,0.00111
1934.50162,0.00085
1932.44145,0.00096
1930.38127,0.00133
1928.32110,0.00156
1926.26093,0.00150
1924.20076,0.00113
1922.14059,0.00093
1920.08041,0.00126
1918.02024,0.00173
1915.96007,0.00197
1913.89990,0.00214
1911.83972,0.00225
1909.77955,0.00219
1907.71938,0.00209
1905.65921,0.00210
1903.59904,0.00213
1901.53886,0.00211
1899.47869,0.00213
1897.41852,0.00217
1895.35835,0.00207
1893.29818,0.00180
1891.23800,0.00161
1889.17783,0.00169
1887.11766,0.00200
1885.05749,0.00227
1882.99731,0.00240
1880.93714,0.00235
1878.87697,0.00214
1876.81680,0.00196
1874.75663,0.00195
1872.69645,0.00215
1870.63628,0.00256
1868.57611,0.00289
1866.51594,0.00262
1864.45577,0.00194
1862.39559,0.00161
1860.33542,0.00182
1858.27525,0.00214
1856.21508,0.00237
1854.15491,0.00252
1852.09473,0.00249
1850.03456,0.00213
1847.97439,0.00159
1845.91422,0.00118
1843.85404,0.00097
1841.79387,0.00090
1839.73370,0.00099
1837.67353,0.00115
1835.61336,0.00118
1833.55318,0.00133
1831.49301,0.00185
1829.43284,0.00232
1827.37267,0.00244
1825.31250,0.00249
1823.25232,0.00254
1821.19215,0.00235
1819.13198,0.00176
1817.07181,0.00125
1815.01163,0.00125
1812.95146,0.00145
1810.89129,0.00145
1808.83112,0.00132
1806.77095,0.00116
1804.71077,0.00072
1802.65060,0.00021
1800.59043,0.00033
1798.53026,0.00097
1796.47009,0.00149
1794.40991,0.00177
1792.34974,0.00169
1790.28957,0.00120
1788.22940,0.00075
1786.16923,0.00049
1784.10905,0.00055
1782.04888,0.00094
1779.98871,0.00118
1777.92854,0.00123
1775.86836,0.00162
1773.80819,0.00238
1771.74802,0.00241
1769.68785,0.00133
1767.62768,0.00055
1765.56750,0.00070
1763.50733,0.00116
1761.44716,0.00138
1759.38699,0.00129
1757.32682,0.00118
1755.26664,0.00113
1753.20647,0.00098
1751.14630,0.00089
1749.08613,0.00112
1747.02596,0.00141
1744.96578,0.00158
1742.90561,0.00195
1740.84544,0.00239
1738.78527,0.00246
1736.72509,0.00229
1734.66492,0.00207
1732.60475,0.00183
1730.54458,0.00183
1728.48441,0.00196
1726.42423,0.00215
1724.36406,0.00234
1722.30389,0.00269
1720.24372,0.00342
1718.18355,0.00387
1716.12337,0.00314
1714.06320,0.00243
1712.00303,0.00241
1709.94286,0.00288
1707.88268,0.00347
1705.82251,0.00360
1703.76234,0.00340
1701.70217,0.00380
1699.64200,0.00448
1697.58182,0.00460
1695.52165,0.00451
1693.46148,0.00456
1691.40131,0.00469
1689.34114,0.00512
1687.28096,0.00614
1685.22079,0.00752
1683.16062,0.00784
1681.10045,0.00737
1679.04028,0.00753
1676.98010,0.00849
1674.91993,0.00973
1672.85976,0.01092
1670.79959,0.01190
1668.73941,0.01226
1666.67924,0.01219
1664.61907,0.01252
1662.55890,0.01297
1660.49873,0.01270
1658.43855,0.01239
1656.37838,0.01306
1654.31821,0.01453
1652.25804,0.01510
1650.19787,0.01485
1648.13769,0.01477
1646.07752,0.01465
1644.01735,0.01399
1641.95718,0.01345
1639.89701,0.01363
1637.83683,0.01447
1635.77666,0.01502
1633.71649,0.01452
1631.65632,0.01380
1629.59614,0.01364
1627.53597,0.01393
1625.47580,0.01415
1623.41563,0.01390
1621.35546,0.01334
1619.29528,0.01352
1617.23511,0.01416
1615.17494,0.01384
1613.11477,0.01293
1611.05460,0.01251
1608.99442,0.01247
1606.93425,0.01228
1604.87408,0.01205
1602.81391,0.01199
1600.75373,0.01199
1598.69356,0.01197
1596.63339,0.01193
1594.57322,0.01179
1592.51305,0.01153
1590.45287,0.01125
1588.39270,0.01101
1586.33253,0.01069
1584.27236,0.01020
1582.21219,0.00976
1580.15201,0.00988
1578.09184,0.01051
1576.03167,0.01057
1573.97150,0.00967
1571.91133,0.00908
1569.85115,0.00896
1567.79098,0.00838
1565.73081,0.00751
1563.67064,0.00721
1561.61046,0.00805
1559.55029,0.00896
1557.49012,0.00757
1555.42995,0.00547
1553.36978,0.00425
1551.30960,0.00374
1549.24943,0.00349
1547.18926,0.00348
1545.12909,0.00403
1543.06892,0.00553
1541.00874,0.00713
1538.94857,0.00659
1536.88840,0.00480
1534.82823,0.00376
1532.76805,0.00344
1530.70788,0.00308
1528.64771,0.00280
1526.58754,0.00273
1524.52737,0.00302
1522.46719,0.00331
1520.40702,0.00270
1518.34685,0.00176
1516.28668,0.00109
1514.22651,0.00049
1512.16633,0.00000
1510.10616,0.00002
1508.04599,0.00101
1505.98582,0.00224
1503.92565,0.00231
1501.86547,0.00183
1499.80530,0.00206
1497.74513,0.00270
1495.68496,0.00290
1493.62478,0.00284
1491.56461,0.00281
1489.50444,0.00261
1487.44427,0.00246
1485.38410,0.00257
1483.32392,0.00272
1481.26375,0.00278
1479.20358,0.00273
1477.14341,0.00275
1475.08324,0.00296
1473.02306,0.00322
1470.96289,0.00322
1468.90272,0.00313
1466.84255,0.00341
1464.78238,0.00373
1462.72220,0.00370
1460.66203,0.00383
1458.60186,0.00406
1456.54169,0.00357
1454.48151,0.00292
1452.42134,0.00268
1450.36117,0.00302
1448.30100,0.00364
1446.24083,0.00398
1444.18065,0.00399
1442.12048,0.00391
1440.06031,0.00383
1438.00014,0.00368
1435.93997,0.00344
1433.87979,0.00341
1431.81962,0.00363
1429.75945,0.00392
1427.69928,0.00406
1425.63910,0.00415
1423.57893,0.00414
1421.51876,0.00379
1419.45859,0.00323
1417.39842,0.00308
1415.33824,0.00361
1413.27807,0.00417
1411.21790,0.00435
1409.15773,0.00437
1407.09756,0.00444
1405.03738,0.00442
1402.97721,0.00426
1400.91704,0.00397
1398.85687,0.00351
1396.79670,0.00316
1394.73652,0.00320
1392.67635,0.00327
1390.61618,0.00313
1388.55601,0.00294
1386.49583,0.00308
1384.43566,0.00347
1382.37549,0.00367
1380.31532,0.00353
1378.25515,0.00339
1376.19497,0.00343
1374.13480,0.00331
1372.07463,0.00303
1370.01446,0.00303
1367.95429,0.00326
1365.89411,0.00322
1363.83394,0.00261
1361.77377,0.00190
1359.71360,0.00193
1357.65343,0.00250
1355.59325,0.00296
1353.53308,0.00316
1351.47291,0.00329
1349.41274,0.00338
1347.35256,0.00325
1345.29239,0.00289
1343.23222,0.00232
1341.17205,0.00147
1339.11188,0.00076
1337.05170,0.00097
1334.99153,0.00178
1332.93136,0.00239
1330.87119,0.00259
1328.81102,0.00265
1326.75084,0.00265
1324.69067,0.00254
1322.63050,0.00242
1320.57033,0.00226
1318.51015,0.00199
1316.44998,0.00182
1314.38981,0.00186
1312.32964,0.00200
1310.26947,0.00220
1308.20929,0.00244
1306.14912,0.00266
1304.08895,0.00286
1302.02878,0.00296
1299.96861,0.00288
1297.90843,0.00270
1295.84826,0.00260
1293.78809,0.00257
1291.72792,0.00250
1289.66775,0.00243
1287.60757,0.00246
1285.54740,0.00253
1283.48723,0.00254
1281.42706,0.00247
1279.36688,0.00247
1277.30671,0.00260
1275.24654,0.00270
1273.18637,0.00266
1271.12620,0.00257
1269.06602,0.00252
1267.00585,0.00252
1264.94568,0.00261
1262.88551,0.00283
1260.82534,0.00305
1258.76516,0.00308
1256.70499,0.00296
1254.64482,0.00283
1252.58465,0.00275
1250.52447,0.00268
1248.46430,0.00264
1246.40413,0.00263
1244.34396,0.00261
1242.28379,0.00261
1240.22361,0.00257
1238.16344,0.00242
1236.10327,0.00226
1234.04310,0.00213
1231.98293,0.00204
1229.92275,0.00197
1227.86258,0.00186
1225.80241,0.00172
1223.74224,0.00157
1221.68207,0.00137
1219.62189,0.00118
1217.56172,0.00110
1215.50155,0.00095
1213.44138,0.00072
1211.38120,0.00064
1209.32103,0.00071
1207.26086,0.00071
1205.20069,0.00064
1203.14052,0.00054
1201.08034,0.00037
1199.02017,0.00008
1196.96000,0.00000
1194.89983,0.00005
1192.83966,0.00010
1190.77948,0.00010
1188.71931,-0.00001
1186.65914,-0.00009
1184.59897,-0.00006
1182.53880,0.00004
1180.47862,0.00017
1178.41845,0.00028
1176.35828,0.00028
1174.29811,0.00033
1172.23793,0.00056
1170.17776,0.00085
1168.11759,0.00109
1166.05742,0.00131
1163.99725,0.00152
1161.93707,0.00171
1159.87690,0.00190
1157.81673,0.00221
1155.75656,0.00266
1153.69639,0.00312
1151.63621,0.00350
1149.57604,0.00390
1147.51587,0.00439
1145.45570,0.00486
1143.39552,0.00536
1141.33535,0.00598
1139.27518,0.00661
1137.21501,0.00723
1135.15484,0.00795
1133.09466,0.00881
1131.03449,0.00970
1128.97432,0.01059
1126.91415,0.01154
1124.85398,0.01243
1122.79380,0.01316
1120.73363,0.01395
1118.67346,0.01493
1116.61329,0.01599
1114.55312,0.01712
1112.49294,0.01824
1110.43277,0.01923
1108.37260,0.02014
1106.31243,0.02103
1104.25225,0.02191
1102.19208,0.02280
1100.13191,0.02366
1098.07174,0.02437
1096.01157,0.02507
1093.95139,0.02594
1091.89122,0.02676
1089.83105,0.02731
1087.77088,0.02779
1085.71071,0.02841
1083.65053,0.02913
1081.59036,0.02976
1079.53019,0.03035
1077.47002,0.03097
1075.40985,0.03149
1073.34967,0.03193
1071.28950,0.03234
1069.22933,0.03265
1067.16916,0.03278
1065.10898,0.03277
1063.04881,0.03276
1060.98864,0.03276
1058.92847,0.03255
1056.86830,0.03204
1054.80812,0.03150
1052.74795,0.03105
1050.68778,0.03043
1048.62761,0.02947
1046.56744,0.02824
1044.50726,0.02701
1042.44709,0.02592
1040.38692,0.02477
1038.32675,0.02349
1036.26657,0.02223
1034.20640,0.02097
1032.14623,0.01965
1030.08606,0.01835
1028.02589,0.01714
1025.96571,0.01609
1023.90554,0.01532
1021.84537,0.01463
1019.78520,0.01404
1017.72503,0.01372
1015.66485,0.01347
1013.60468,0.01314
1011.54451,0.01304
1009.48434,0.01323
1007.42417,0.01354
1005.36399,0.01398
1003.30382,0.01445
1001.24365,0.01487
999.18348,0.01550
997.12330,0.01648
995.06313,0.01760
993.00296,0.01861
990.94279,0.01943
988.88262,0.02012
986.82244,0.02065
984.76227,0.02089
982.70210,0.02106
980.64193,0.02140
978.58176,0.02169
976.52158,0.02158
974.46141,0.02120
972.40124,0.02083
970.34107,0.02032
968.28089,0.01965
966.22072,0.01897
964.16055,0.01809
962.10038,0.01703
960.04021,0.01613
957.98003,0.01541
955.91986,0.01474
953.85969,0.01398
951.79952,0.01307
949.73935,0.01238
947.67917,0.01197
945.61900,0.01146
943.55883,0.01085
941.49866,0.01024
939.43849,0.00969
937.37831,0.00939
935.31814,0.00925
933.25797,0.00902
931.19780,0.00866
929.13762,0.00816
927.07745,0.00754
925.01728,0.00710
922.95711,0.00698
920.89694,0.00697
918.83676,0.00688
916.77659,0.00684
914.71642,0.00689
912.65625,0.00687
910.59608,0.00669
908.53590,0.00655
906.47573,0.00679
904.41556,0.00737
902.35539,0.00788
900.29522,0.00802
898.23504,0.00790
896.17487,0.00787
894.11470,0.00811
892.05453,0.00857
889.99435,0.00899
887.93418,0.00939
885.87401,0.01003
883.81384,0.01061
881.75367,0.01076
879.69349,0.01092
877.63332,0.01132
875.57315,0.01159
873.51298,0.01177
871.45281,0.01223
869.39263,0.01297
867.33246,0.01352
865.27229,0.01360
863.21212,0.01348
861.15194,0.01355
859.09177,0.01379
857.03160,0.01392
854.97143,0.01388
852.91126,0.01375
850.85108,0.01363
848.79091,0.01340
846.73074,0.01292
844.67057,0.01237
842.61040,0.01195
840.55022,0.01147
838.49005,0.01081
836.42988,0.01018
834.36971,0.00983
832.30954,0.00958
830.24936,0.00914
828.18919,0.00841
826.12902,0.00737
824.06885,0.00652
822.00867,0.00624
819.94850,0.00619
817.88833,0.00606
815.82816,0.00587
813.76799,0.00557
811.70781,0.00524
809.64764,0.00523
807.58747,0.00549
805.52730,0.00558
803.46713,0.00554
801.40695,0.00548
799.34678,0.00534
797.28661,0.00538
795.22644,0.00541
793.16627,0.00506
791.10609,0.00497
789.04592,0.00544
786.98575,0.00579
784.92558,0.00593
782.86540,0.00624
780.80523,0.00661
778.74506,0.00653
776.68489,0.00607
774.62472,0.00597
772.56454,0.00629
770.50437,0.00640
768.44420,0.00613
766.38403,0.00589
764.32386,0.00606
762.26368,0.00658
760.20351,0.00676
758.14334,0.00681
756.08317,0.00709
754.02299,0.00701
751.96282,0.00682
749.90265,0.00683
747.84248,0.00664
745.78231,0.00647
743.72213,0.00651
741.66196,0.00660
739.60179,0.00675
737.54162,0.00703
735.48145,0.00715
733.42127,0.00703
731.36110,0.00713
729.30093,0.00740
727.24076,0.00758
725.18059,0.00765
723.12041,0.00758
721.06024,0.00730
719.00007,0.00686
716.93990,0.00639
714.87972,0.00593
712.81955,0.00583
710.75938,0.00596
708.69921,0.00604
706.63904,0.00616
704.57886,0.00603
702.51869,0.00540
700.45852,0.00481
698.39835,0.00482
696.33818,0.00546
694.27800,0.00624
692.21783,0.00658
690.15766,0.00653
688.09749,0.00671
686.03731,0.00749
683.97714,0.00810
681.91697,0.00782
679.85680,0.00749
677.79663,0.00779
675.73645,0.00806
673.67628,0.00718
671.61611,0.00472
669.55594,0.00401
667.49577,0.00605
665.43559,0.00512
663.37542,0.00643
661.31525,0.00685
659.25508,0.00648
657.19491,0.00657
655.13473,0.00677
653.07456,0.00616
651.01439,0.00527
648.95422,0.00549
646.89404,0.00628
644.83387,0.00641
642.77370,0.00593
640.71353,0.00536
638.65336,0.00420
636.59318,0.00254
634.53301,0.00194
632.47284,0.00255
630.41267,0.00292
628.35250,0.00263
626.29232,0.00230
624.23215,0.00307
622.17198,0.00474
620.11181,0.00456
618.05164,0.00226
615.99146,0.00189
613.93129,0.00397
611.87112,0.00401
609.81095,0.00167
607.75077,0.00021
605.69060,0.00009
603.63043,0.00000
601.57026,-0.00013
599.51009,0.00000
