3996.73391,0.00015
3994.67373,0.00012
3992.61356,-0.00008
3990.55339,-0.00016
3988.49322,-0.00007
3986.43305,-0.00004
3984.37287,-0.00009
3982.31270,-0.00003
3980.25253,0.00007
3978.19236,0.00007
3976.13219,0.00021
3974.07201,0.00050
3972.01184,0.00054
3969.95167,0.00039
3967.89150,0.00049
3965.83133,0.00074
3963.77115,0.00070
3961.71098,0.00052
3959.65081,0.00069
3957.59064,0.00105
3955.53046,0.00128
3953.47029,0.00130
3951.41012,0.00094
3949.34995,0.00027
3947.28978,0.00000
3945.22960,0.00033
3943.16943,0.00073
3941.10926,0.00109
3939.04909,0.00137
3936.98892,0.00132
3934.92874,0.00092
3932.86857,0.00048
3930.80840,0.00054
3928.74823,0.00106
3926.68805,0.00143
3924.62788,0.00143
3922.56771,0.00129
3920.50754,0.00117
3918.44737,0.00108
3916.38719,0.00144
3914.32702,0.00219
3912.26685,0.00280
3910.20668,0.00311
3908.14651,0.00301
3906.08633,0.00223
3904.02616,0.00084
3901.96599,0.00000
3899.90582,0.00058
3897.84565,0.00161
3895.78547,0.00196
3893.72530,0.00170
3891.66513,0.00143
3889.60496,0.00148
3887.54478,0.00152
3885.48461,0.00137
3883.42444,0.00117
3881.36427,0.00122
3879.30410,0.00176
3877.24392,0.00229
3875.18375,0.00224
3873.12358,0.00158
3871.06341,0.00074
3869.00324,0.00049
3866.94306,0.00093
3864.88289,0.00135
3862.82272,0.00143
3860.76255,0.00139
3858.70237,0.00123
3856.64220,0.00112
3854.58203,0.00177
3852.52186,0.00262
3850.46169,0.00265
3848.40151,0.00212
3846.34134,0.00183
3844.28117,0.00183
3842.22100,0.00186
3840.16083,0.00199
3838.10065,0.00218
3836.04048,0.00235
3833.98031,0.00250
3831.92014,0.00272
3829.85997,0.00301
3827.79979,0.00312
3825.73962,0.00292
3823.67945,0.00270
3821.61928,0.00272
3819.55910,0.00269
3817.49893,0.00276
3815.43876,0.00314
3813.37859,0.00343
3811.31842,0.00344
3809.25824,0.00369
3807.19807,0.00412
3805.13790,0.00421
3803.07773,0.00420
3801.01756,0.00444
3798.95738,0.00479
3796.89721,0.00512
3794.83704,0.00527
3792.77687,0.00518
3790.71670,0.00494
3788.65652,0.00479
3786.59635,0.00493
3784.53618,0.00518
3782.47601,0.00531
3780.41583,0.00538
3778.35566,0.00536
3776.29549,0.00533
3774.23532,0.00547
3772.17515,0.00569
3770.11497,0.00551
3768.05480,0.00475
3765.99463,0.00418
3763.93446,0.00414
3761.87429,0.00421
3759.81411,0.00401
3757.75394,0.00328
3755.69377,0.00233
3753.63360,0.00182
3751.57342,0.00178
3749.51325,0.00136
3747.45308,0.00056
3745.39291,0.00000
3743.33274,0.00071
3741.27256,0.00185
3739.21239,0.00198
3737.15222,0.00132
3735.09205,0.00088
3733.03188,0.00159
3730.97170,0.00254
3728.91153,0.00273
3726.85136,0.00241
3724.79119,0.00218
3722.73102,0.00251
3720.67084,0.00332
3718.61067,0.00369
3716.55050,0.00348
3714.49033,0.00355
3712.43015,0.00441
3710.36998,0.00529
3708.30981,0.00544
3706.24964,0.00523
3704.18947,0.00513
3702.12929,0.00524
3700.06912,0.00550
3698.00895,0.00573
3695.94878,0.00568
3693.88861,0.00560
3691.82843,0.00574
3689.76826,0.00557
3687.70809,0.00518
3685.64792,0.00525
3683.58775,0.00548
3681.52757,0.00554
3679.46740,0.00527
3677.40723,0.00467
3675.34706,0.00422
3673.28688,0.00429
3671.22671,0.00451
3669.16654,0.00469
3667.10637,0.00483
3665.04620,0.00487
3662.98602,0.00490
3660.92585,0.00503
3658.86568,0.00505
3656.80551,0.00481
3654.74534,0.00457
3652.68516,0.00458
3650.62499,0.00456
3648.56482,0.00439
3646.50465,0.00485
3644.44447,0.00528
3642.38430,0.00553
3640.32413,0.00602
3638.26396,0.00654
3636.20379,0.00661
3634.14361,0.00633
3632.08344,0.00611
3630.02327,0.00630
3627.96310,0.00683
3625.90293,0.00720
3623.84275,0.00705
3621.78258,0.00672
3619.72241,0.00660
3617.66224,0.00664
3615.60207,0.00644
3613.54189,0.00594
3611.48172,0.00544
3609.42155,0.00571
3607.36138,0.00690
3605.30120,0.00822
3603.24103,0.00914
3601.18086,0.00947
3599.12069,0.00908
3597.06052,0.00836
3595.00034,0.00805
3592.94017,0.00831
3590.88000,0.00843
3588.81983,0.00783
3586.75966,0.00756
3584.69948,0.00857
3582.63931,0.00970
3580.57914,0.01009
3578.51897,0.01014
3576.45879,0.01042
3574.39862,0.01092
3572.33845,0.01119
3570.27828,0.01090
3568.21811,0.01031
3566.15793,0.01033
3564.09776,0.01127
3562.03759,0.01208
3559.97742,0.01252
3557.91725,0.01310
3555.85707,0.01372
3553.79690,0.01392
3551.73673,0.01361
3549.67656,0.01289
3547.61639,0.01198
3545.55621,0.01187
3543.49604,0.01302
3541.43587,0.01430
3539.37570,0.01473
3537.31552,0.01465
3535.25535,0.01480
3533.19518,0.01519
3531.13501,0.01541
3529.07484,0.01525
3527.01466,0.01476
3524.95449,0.01451
3522.89432,0.01486
3520.83415,0.01550
3518.77398,0.01607
3516.71380,0.01649
3514.65363,0.01669
3512.59346,0.01673
3510.53329,0.01672
3508.47312,0.01682
3506.41294,0.01694
3504.35277,0.01691
3502.29260,0.01699
3500.23243,0.01754
3498.17225,0.01818
3496.11208,0.01849
3494.05191,0.01861
3491.99174,0.01868
3489.93157,0.01869
3487.87139,0.01890
3485.81122,0.01938
3483.75105,0.01964
3481.69088,0.01936
3479.63071,0.01919
3477.57053,0.01959
3475.51036,0.02013
3473.45019,0.02048
3471.39002,0.02074
3469.32984,0.02086
3467.26967,0.02084
3465.20950,0.02068
3463.14933,0.02048
3461.08916,0.02056
3459.02898,0.02104
3456.96881,0.02162
3454.90864,0.02194
3452.84847,0.02185
3450.78830,0.02168
3448.72812,0.02168
3446.66795,0.02178
3444.60778,0.02192
3442.54761,0.02203
3440.48744,0.02217
3438.42726,0.02254
3436.36709,0.02300
3434.30692,0.02332
3432.24675,0.02337
3430.18657,0.02329
3428.12640,0.02330
3426.06623,0.02332
3424.00606,0.02333
3421.94589,0.02352
3419.88571,0.02381
3417.82554,0.02400
3415.76537,0.02396
3413.70520,0.02383
3411.64503,0.02378
3409.58485,0.02394
3407.52468,0.02433
3405.46451,0.02469
3403.40434,0.02473
3401.34416,0.02464
3399.28399,0.02395
3397.22382,0.02389
3395.16365,0.02382
3393.10348,0.02395
3391.04330,0.02438
3388.98313,0.02480
3386.92296,0.02496
3384.86279,0.02490
3382.80262,0.02488
3380.74244,0.02492
3378.68227,0.02503
3376.62210,0.02540
3374.56193,0.02591
3372.50176,0.02608
3370.44158,0.02581
3368.38141,0.02551
3366.32124,0.02541
3364.26107,0.02555
3362.20089,0.02576
3360.14072,0.02581
3358.08055,0.02568
3356.02038,0.02560
3353.96021,0.02579
3351.90003,0.02607
3349.83986,0.02619
3347.77969,0.02627
3345.71952,0.02641
3343.65935,0.02656
3341.59917,0.02665
3339.53900,0.02655
3337.47883,0.02638
3335.41866,0.02642
3333.35849,0.02652
3331.29831,0.02647
3329.23814,0.02638
3327.17797,0.02648
3325.11780,0.02668
3323.05762,0.02676
3320.99745,0.02669
3318.93728,0.02669
3316.87711,0.02689
3314.81694,0.02711
3312.75676,0.02707
3310.69659,0.02685
3308.63642,0.02682
3306.57625,0.02710
3304.51608,0.02732
3302.45590,0.02719
3300.39573,0.02688
3298.33556,0.02673
3296.27539,0.02676
3294.21521,0.02672
3292.15504,0.02655
3290.09487,0.02662
3288.03470,0.02709
3285.97453,0.02742
3283.91435,0.02740
3281.85418,0.02736
3279.79401,0.02733
3277.73384,0.02727
3275.67367,0.02727
3273.61349,0.02725
3271.55332,0.02732
3269.49315,0.02754
3267.43298,0.02751
3265.37281,0.02734
3263.31263,0.02743
3261.25246,0.02766
3259.19229,0.02780
3257.13212,0.02784
3255.07194,0.02784
3253.01177,0.02782
3250.95160,0.02778
3248.89143,0.02770
3246.83126,0.02758
3244.77108,0.02750
3242.71091,0.02746
3240.65074,0.02741
3238.59057,0.02742
3236.53040,0.02751
3234.47022,0.02758
3232.41005,0.02758
3230.34988,0.02754
3228.28971,0.02760
3226.22954,0.02769
3224.16936,0.02763
3222.10919,0.02748
3220.04902,0.02741
3217.98885,0.02742
3215.92867,0.02743
3213.86850,0.02731
3211.80833,0.02717
3209.74816,0.02718
3207.68799,0.02730
3205.62781,0.02750
3203.56764,0.02759
3201.50747,0.02743
3199.44730,0.02729
3197.38713,0.02730
3195.32695,0.02739
3193.26678,0.02749
3191.20661,0.02753
3189.14644,0.02758
3187.08626,0.02764
3185.02609,0.02765
3182.96592,0.02762
3180.90575,0.02740
3178.84558,0.02704
3176.78540,0.02705
3174.72523,0.02741
3172.66506,0.02757
3170.60489,0.02746
3168.54472,0.02726
3166.48454,0.02700
3164.42437,0.02686
3162.36420,0.02693
3160.30403,0.02699
3158.24386,0.02688
3156.18368,0.02677
3154.12351,0.02679
3152.06334,0.02698
3150.00317,0.02720
3147.94299,0.02712
3145.88282,0.02681
3143.82265,0.02669
3141.76248,0.02676
3139.70231,0.02673
3137.64213,0.02653
3135.58196,0.02631
3133.52179,0.02613
3131.46162,0.02603
3129.40145,0.02612
3127.34127,0.02623
3125.28110,0.02614
3123.22093,0.02594
3121.16076,0.02576
3119.10058,0.02558
3117.04041,0.02542
3114.98024,0.02543
3112.92007,0.02558
3110.85990,0.02567
3108.79972,0.02560
3106.73955,0.02554
3104.67938,0.02545
3102.61921,0.02513
3100.55904,0.02491
3098.49886,0.02508
3096.43869,0.02534
3094.37852,0.02533
3092.31835,0.02507
3090.25818,0.02469
3088.19800,0.02435
3086.13783,0.02438
3084.07766,0.02462
3082.01749,0.02459
3079.95731,0.02435
3077.89714,0.02421
3075.83697,0.02417
3073.77680,0.02415
3071.71663,0.02417
3069.65645,0.02417
3067.59628,0.02407
3065.53611,0.02393
3063.47594,0.02387
3061.41577,0.02394
3059.35559,0.02397
3057.29542,0.02375
3055.23525,0.02351
3053.17508,0.02366
3051.11491,0.02390
3049.05473,0.02374
3046.99456,0.02343
3044.93439,0.02327
3042.87422,0.02325
3040.81404,0.02336
3038.75387,0.02346
3036.69370,0.02329
3034.63353,0.02285
3032.57336,0.02251
3030.51318,0.02253
3028.45301,0.02270
3026.39284,0.02264
3024.33267,0.02239
3022.27250,0.02225
3020.21232,0.02226
3018.15215,0.02226
3016.09198,0.02206
3014.03181,0.02166
3011.97163,0.02143
3009.91146,0.02150
3007.85129,0.02148
3005.79112,0.02138
3003.73095,0.02147
3001.67077,0.02164
2999.61060,0.02192
2997.55043,0.02195
2995.49026,0.02157
2993.43009,0.02109
2991.36991,0.02100
2989.30974,0.02107
2987.24957,0.02104
2985.18940,0.02104
2983.12923,0.02106
2981.06905,0.02091
2979.00888,0.02070
2976.94871,0.02065
2974.88854,0.02070
2972.82836,0.02071
2970.76819,0.02073
2968.70802,0.02081
2966.64785,0.02081
2964.58768,0.02081
2962.52750,0.02088
2960.46733,0.02082
2958.40716,0.02052
2956.34699,0.02017
2954.28682,0.02007
2952.22664,0.02019
2950.16647,0.02025
2948.10630,0.02019
2946.04613,0.02011
2943.98596,0.02018
2941.92578,0.02030
2939.86561,0.02024
2937.80544,0.02012
2935.74527,0.02003
2933.68509,0.01984
2931.62492,0.01956
2929.56475,0.01942
2927.50458,0.01949
2925.44441,0.01956
2923.38423,0.01963
2921.32406,0.01976
2919.26389,0.01980
2917.20372,0.01984
2915.14355,0.01983
2913.08337,0.01963
2911.02320,0.01932
2908.96303,0.01907
2906.90286,0.01902
2904.84268,0.01910
2902.78251,0.01911
2900.72234,0.01896
2898.66217,0.01871
2896.60200,0.01850
2894.54182,0.01836
2892.48165,0.01829
2890.42148,0.01828
2888.36131,0.01828
2886.30114,0.01825
2884.24096,0.01814
2882.18079,0.01799
2880.12062,0.01784
2878.06045,0.01771
2876.00028,0.01768
2873.94010,0.01784
2871.87993,0.01797
2869.81976,0.01783
2867.75959,0.01760
2865.69941,0.01751
2863.63924,0.01752
2861.57907,0.01755
2859.51890,0.01749
2857.45873,0.01724
2855.39855,0.01702
2853.33838,0.01709
2851.27821,0.01728
2849.21804,0.01728
2847.15787,0.01711
2845.09769,0.01683
2843.03752,0.01651
2840.97735,0.01637
2838.91718,0.01640
2836.85700,0.01635
2834.79683,0.01620
2832.73666,0.01618
2830.67649,0.01625
2828.61632,0.01619
2826.55614,0.01609
2824.49597,0.01608
2822.43580,0.01606
2820.37563,0.01596
2818.31546,0.01576
2816.25528,0.01560
2814.19511,0.01561
2812.13494,0.01561
2810.07477,0.01552
2808.01460,0.01543
2805.95442,0.01540
2803.89425,0.01534
2801.83408,0.01520
2799.77391,0.01505
2797.71373,0.01497
2795.65356,0.01498
2793.59339,0.01499
2791.53322,0.01497
2789.47305,0.01490
2787.41287,0.01478
2785.35270,0.01471
2783.29253,0.01462
2781.23236,0.01448
2779.17219,0.01447
2777.11201,0.01465
2775.05184,0.01471
2772.99167,0.01453
2770.93150,0.01439
2768.87133,0.01440
2766.81115,0.01433
2764.75098,0.01413
2762.69081,0.01396
2760.63064,0.01384
2758.57046,0.01377
2756.51029,0.01377
2754.45012,0.01383
2752.38995,0.01382
2750.32978,0.01367
2748.26960,0.01354
2746.20943,0.01354
2744.14926,0.01359
2742.08909,0.01356
2740.02892,0.01346
2737.96874,0.01344
2735.90857,0.01341
2733.84840,0.01334
2731.78823,0.01335
2729.72805,0.01330
2727.66788,0.01311
2725.60771,0.01300
2723.54754,0.01305
2721.48737,0.01309
2719.42719,0.01308
2717.36702,0.01298
2715.30685,0.01288
2713.24668,0.01297
2711.18651,0.01302
2709.12633,0.01286
2707.06616,0.01264
2705.00599,0.01257
2702.94582,0.01268
2700.88565,0.01279
2698.82547,0.01270
2696.76530,0.01255
2694.70513,0.01247
2692.64496,0.01233
2690.58478,0.01212
2688.52461,0.01205
2686.46444,0.01214
2684.40427,0.01226
2682.34410,0.01225
2680.28392,0.01207
2678.22375,0.01192
2676.16358,0.01193
2674.10341,0.01196
2672.04324,0.01183
2669.98306,0.01160
2667.92289,0.01156
2665.86272,0.01182
2663.80255,0.01208
2661.74238,0.01207
2659.68220,0.01190
2657.62203,0.01175
2655.56186,0.01162
2653.50169,0.01153
2651.44151,0.01154
2649.38134,0.01170
2647.32117,0.01184
2645.26100,0.01172
2643.20083,0.01143
2641.14065,0.01137
2639.08048,0.01152
2637.02031,0.01147
2634.96014,0.01123
2632.89997,0.01096
2630.83979,0.01078
2628.77962,0.01077
2626.71945,0.01097
2624.65928,0.01118
2622.59910,0.01116
2620.53893,0.01105
2618.47876,0.01098
2616.41859,0.01084
2614.35842,0.01076
2612.29824,0.01070
2610.23807,0.01045
2608.17790,0.01016
2606.11773,0.01014
2604.05756,0.01030
2601.99738,0.01022
2599.93721,0.00985
2597.87704,0.00958
2595.81687,0.00966
2593.75670,0.01002
2591.69652,0.01038
2589.63635,0.01036
2587.57618,0.00998
2585.51601,0.00968
2583.45583,0.00962
2581.39566,0.00964
2579.33549,0.00973
2577.27532,0.00979
2575.21515,0.00977
2573.15497,0.00980
2571.09480,0.00975
2569.03463,0.00954
2566.97446,0.00947
2564.91429,0.00948
2562.85411,0.00931
2560.79394,0.00910
2558.73377,0.00918
2556.67360,0.00936
2554.61342,0.00937
2552.55325,0.00937
2550.49308,0.00942
2548.43291,0.00937
2546.37274,0.00926
2544.31256,0.00916
2542.25239,0.00905
2540.19222,0.00906
2538.13205,0.00922
2536.07188,0.00925
2534.01170,0.00910
2531.95153,0.00899
2529.89136,0.00902
2527.83119,0.00906
2525.77102,0.00902
2523.71084,0.00890
2521.65067,0.00882
2519.59050,0.00899
2517.53033,0.00931
2515.47015,0.00957
2513.40998,0.00963
2511.34981,0.00953
2509.28964,0.00962
2507.22947,0.00969
2505.16929,0.00920
2503.10912,0.00850
2501.04895,0.00840
2498.98878,0.00879
2496.92861,0.00912
2494.86843,0.00927
2492.80826,0.00926
2490.74809,0.00924
2488.68792,0.00949
2486.62775,0.00983
2484.56757,0.00986
2482.50740,0.00967
2480.44723,0.00964
2478.38706,0.00965
2476.32688,0.00964
2474.26671,0.00974
2472.20654,0.00970
2470.14637,0.00957
2468.08620,0.00978
2466.02602,0.01013
2463.96585,0.01011
2461.90568,0.00999
2459.84551,0.01004
2457.78534,0.00987
2455.72516,0.00965
2453.66499,0.00974
2451.60482,0.00983
2449.54465,0.00967
2447.48447,0.00933
2445.42430,0.00908
2443.36413,0.00917
2441.30396,0.00944
2439.24379,0.00953
2437.18361,0.00941
2435.12344,0.00937
2433.06327,0.00943
2431.00310,0.00941
2428.94293,0.00946
2426.88275,0.00956
2424.82258,0.00948
2422.76241,0.00933
2420.70224,0.00922
2418.64207,0.00934
2416.58189,0.00963
2414.52172,0.00953
2412.46155,0.00926
2410.40138,0.00937
2408.34120,0.00962
2406.28103,0.00955
2404.22086,0.00927
2402.16069,0.00921
2400.10052,0.00920
2398.04034,0.00867
2395.98017,0.00858
2393.92000,0.00899
2391.85983,0.00945
2389.79966,0.00954
2387.73948,0.00918
2385.67931,0.00859
2383.61914,0.00784
2381.55897,0.00696
2379.49880,0.00628
2377.43862,0.00613
2375.37845,0.00624
2373.31828,0.00659
2371.25811,0.00713
2369.19793,0.00780
2367.13776,0.00991
2365.07759,0.01306
2363.01742,0.01428
2360.95725,0.01482
2358.89707,0.01467
2356.83690,0.01387
2354.77673,0.01195
2352.71656,0.01005
2350.65639,0.01079
2348.59621,0.01196
2346.53604,0.01047
2344.47587,0.01133
2342.41570,0.01316
2340.35552,0.01389
2338.29535,0.01407
2336.23518,0.01392
2334.17501,0.01339
2332.11484,0.01220
2330.05466,0.01120
2327.99449,0.01072
2325.93432,0.01075
2323.87415,0.00944
2321.81398,0.00778
2319.75380,0.00692
2317.69363,0.00736
2315.63346,0.00721
2313.57329,0.00612
2311.51312,0.00501
2309.45294,0.00455
2307.39277,0.00494
2305.33260,0.00588
2303.27243,0.00686
2301.21225,0.00745
2299.15208,0.00776
2297.09191,0.00782
2295.03174,0.00793
2292.97157,0.00839
2290.91139,0.00878
2288.85122,0.00879
2286.79105,0.00877
2284.73088,0.00898
2282.67071,0.00928
2280.61053,0.00935
2278.55036,0.00920
2276.49019,0.00911
2274.43002,0.00912
2272.36984,0.00914
2270.30967,0.00916
2268.24950,0.00892
2266.18933,0.00849
2264.12916,0.00845
2262.06898,0.00881
2260.00881,0.00884
2257.94864,0.00855
2255.88847,0.00857
2253.82830,0.00906
2251.76812,0.00907
2249.70795,0.00822
2247.64778,0.00785
2245.58761,0.00812
2243.52744,0.00782
2241.46726,0.00700
2239.40709,0.00681
2237.34692,0.00720
2235.28675,0.00745
2233.22657,0.00700
2231.16640,0.00601
2229.10623,0.00568
2227.04606,0.00618
2224.98589,0.00672
2222.92571,0.00737
2220.86554,0.00799
2218.80537,0.00809
2216.74520,0.00791
2214.68503,0.00755
2212.62485,0.00709
2210.56468,0.00715
2208.50451,0.00750
2206.44434,0.00762
2204.38417,0.00753
2202.32399,0.00730
2200.26382,0.00720
2198.20365,0.00675
2196.14348,0.00593
2194.08330,0.00611
2192.02313,0.00662
2189.96296,0.00599
2187.90279,0.00544
2185.84262,0.00571
2183.78244,0.00558
2181.72227,0.00513
2179.66210,0.00516
2177.60193,0.00524
2175.54176,0.00484
2173.48158,0.00475
2171.42141,0.00579
2169.36124,0.00692
2167.30107,0.00695
2165.24089,0.00632
2163.18072,0.00573
2161.12055,0.00467
2159.06038,0.00308
2157.00021,0.00235
2154.94003,0.00275
2152.87986,0.00371
2150.81969,0.00486
2148.75952,0.00530
2146.69935,0.00461
2144.63917,0.00389
2142.57900,0.00389
2140.51883,0.00410
2138.45866,0.00371
2136.39849,0.00311
2134.33831,0.00335
2132.27814,0.00389
2130.21797,0.00410
2128.15780,0.00424
2126.09762,0.00451
2124.03745,0.00481
2121.97728,0.00492
2119.91711,0.00502
2117.85694,0.00519
2115.79676,0.00510
2113.73659,0.00510
2111.67642,0.00551
2109.61625,0.00567
2107.55608,0.00555
2105.49590,0.00584
2103.43573,0.00633
2101.37556,0.00638
2099.31539,0.00650
2097.25521,0.00654
2095.19504,0.00660
2093.13487,0.00636
2091.07470,0.00563
2089.01453,0.00484
2086.95435,0.00491
2084.89418,0.00549
2082.83401,0.00564
2080.77384,0.00588
2078.71367,0.00643
2076.65349,0.00669
2074.59332,0.00694
2072.53315,0.00742
2070.47298,0.00771
2068.41281,0.00749
2066.35263,0.00663
2064.29246,0.00575
2062.23229,0.00547
2060.17212,0.00559
2058.11194,0.00605
2056.05177,0.00680
2053.99160,0.00768
2051.93143,0.00854
2049.87126,0.00897
2047.81108,0.00852
2045.75091,0.00751
2043.69074,0.00684
2041.63057,0.00673
2039.57040,0.00632
2037.51022,0.00549
2035.45005,0.00539
2033.38988,0.00592
2031.32971,0.00631
2029.26954,0.00673
2027.20936,0.00700
2025.14919,0.00689
2023.08902,0.00649
2021.02885,0.00596
2018.96867,0.00558
2016.90850,0.00536
2014.84833,0.00509
2012.78816,0.00511
2010.72799,0.00587
2008.66781,0.00622
2006.60764,0.00554
2004.54747,0.00497
2002.48730,0.00440
2000.42713,0.00350
1998.36695,0.00338
1996.30678,0.00399
1994.24661,0.00400
1992.18644,0.00355
1990.12626,0.00389
1988.06609,0.00472
1986.00592,0.00529
1983.94575,0.00604
1981.88558,0.00735
1979.82540,0.00846
1977.76523,0.00828
1975.70506,0.00739
1973.64489,0.00668
1971.58472,0.00532
1969.52454,0.00369
1967.46437,0.00364
1965.40420,0.00455
1963.34403,0.00444
1961.28386,0.00316
1959.22368,0.00182
1957.16351,0.00149
1955.10334,0.00235
1953.04317,0.00358
1950.98299,0.00409
1948.92282,0.00372
1946.86265,0.00315
1944.80248,0.00283
1942.74231,0.00289
1940.68213,0.00303
1938.62196,0.00302
1936.56179,0.00293
1934.50162,0.00284
1932.44145,0.00292
1930.38127,0.00333
1928.32110,0.00388
1926.26093,0.00394
1924.20076,0.00339
1922.14059,0.00308
1920.08041,0.00351
1918.02024,0.00400
1915.96007,0.00406
1913.89990,0.00424
1911.83972,0.00469
1909.77955,0.00502
1907.71938,0.00508
1905.65921,0.00492
1903.59904,0.00461
1901.53886,0.00427
1899.47869,0.00407
1897.41852,0.00390
1895.35835,0.00374
1893.29818,0.00377
1891.23800,0.00394
1889.17783,0.00409
1887.11766,0.00414
1885.05749,0.00406
1882.99731,0.00387
1880.93714,0.00377
1878.87697,0.00382
1876.81680,0.00395
1874.75663,0.00398
1872.69645,0.00394
1870.63628,0.00406
1868.57611,0.00426
1866.51594,0.00415
1864.45577,0.00387
1862.39559,0.00384
1860.33542,0.00395
1858.27525,0.00405
1856.21508,0.00427
1854.15491,0.00451
1852.09473,0.00443
1850.03456,0.00394
1847.97439,0.00330
1845.91422,0.00293
1843.85404,0.00302
1841.79387,0.00342
1839.73370,0.00372
1837.67353,0.00365
1835.61336,0.00329
1833.55318,0.00320
1831.49301,0.00369
1829.43284,0.00416
1827.37267,0.00416
1825.31250,0.00415
1823.25232,0.00444
1821.19215,0.00459
1819.13198,0.00420
1817.07181,0.00360
1815.01163,0.00329
1812.95146,0.00320
1810.89129,0.00318
1808.83112,0.00321
1806.77095,0.00314
1804.71077,0.00273
1802.65060,0.00219
1800.59043,0.00222
1798.53026,0.00268
1796.47009,0.00297
1794.40991,0.00317
1792.34974,0.00323
1790.28957,0.00299
1788.22940,0.00269
1786.16923,0.00247
1784.10905,0.00259
1782.04888,0.00309
1779.98871,0.00344
1777.92854,0.00348
1775.86836,0.00367
1773.80819,0.00416
1771.74802,0.00411
1769.68785,0.00322
1767.62768,0.00269
1765.56750,0.00293
1763.50733,0.00329
1761.44716,0.00325
1759.38699,0.00294
1757.32682,0.00276
1755.26664,0.00271
1753.20647,0.00252
1751.14630,0.00231
1749.08613,0.00247
1747.02596,0.00268
1744.96578,0.00270
1742.90561,0.00297
1740.84544,0.00344
1738.78527,0.00366
1736.72509,0.00355
1734.66492,0.00320
1732.60475,0.00284
1730.54458,0.00300
1728.48441,0.00341
1726.42423,0.00370
1724.36406,0.00376
1722.30389,0.00394
1720.24372,0.00454
1718.18355,0.00483
1716.12337,0.00398
1714.06320,0.00327
1712.00303,0.00322
1709.94286,0.00356
1707.88268,0.00399
1705.82251,0.00398
1703.76234,0.00361
1701.70217,0.00374
1699.64200,0.00420
1697.58182,0.00436
1695.52165,0.00449
1693.46148,0.00469
1691.40131,0.00475
1689.34114,0.00495
1687.28096,0.00565
1685.22079,0.00670
1683.16062,0.00684
1681.10045,0.00636
1679.04028,0.00650
1676.98010,0.00744
1674.91993,0.00864
1672.85976,0.00965
1670.79959,0.01034
1668.73941,0.01040
1666.67924,0.01012
1664.61907,0.01028
1662.55890,0.01056
1660.49873,0.01021
1658.43855,0.00975
1656.37838,0.01009
1654.31821,0.01114
1652.25804,0.01165
1650.19787,0.01164
1648.13769,0.01172
1646.07752,0.01165
1644.01735,0.01096
1641.95718,0.01040
1639.89701,0.01069
1637.83683,0.01175
1635.77666,0.01248
1633.71649,0.01208
1631.65632,0.01144
1629.59614,0.01139
1627.53597,0.01173
1625.47580,0.01196
1623.41563,0.01180
1621.35546,0.01141
1619.29528,0.01163
1617.23511,0.01231
1615.17494,0.01219
1613.11477,0.01154
1611.05460,0.01125
1608.99442,0.01129
1606.93425,0.01126
1604.87408,0.01121
1602.81391,0.01123
1600.75373,0.01125
1598.69356,0.01130
1596.63339,0.01140
1594.57322,0.01137
1592.51305,0.01115
1590.45287,0.01090
1588.39270,0.01069
1586.33253,0.01041
1584.27236,0.00998
1582.21219,0.00960
1580.15201,0.00970
1578.09184,0.01024
1576.03167,0.01027
1573.97150,0.00940
1571.91133,0.00882
1569.85115,0.00868
1567.79098,0.00811
1565.73081,0.00729
1563.67064,0.00711
1561.61046,0.00811
1559.55029,0.00916
1557.49012,0.00795
1555.42995,0.00593
1553.36978,0.00456
1551.30960,0.00380
1549.24943,0.00338
1547.18926,0.00319
1545.12909,0.00341
1543.06892,0.00445
1541.00874,0.00594
1538.94857,0.00582
1536.88840,0.00441
1534.82823,0.00357
1532.76805,0.00339
1530.70788,0.00306
1528.64771,0.00272
1526.58754,0.00259
1524.52737,0.00273
1522.46719,0.00284
1520.40702,0.00235
1518.34685,0.00175
1516.28668,0.00130
1514.22651,0.00077
1512.16633,0.00022
1510.10616,0.00000
1508.04599,0.00069
1505.98582,0.00217
1503.92565,0.00277
1501.86547,0.00255
1499.80530,0.00270
1497.74513,0.00318
1495.68496,0.00347
1493.62478,0.00368
1491.56461,0.00372
1489.50444,0.00342
1487.44427,0.00330
1485.38410,0.00360
1483.32392,0.00393
1481.26375,0.00410
1479.20358,0.00407
1477.14341,0.00389
1475.08324,0.00369
1473.02306,0.00372
1470.96289,0.00390
1468.90272,0.00393
1466.84255,0.00409
1464.78238,0.00435
1462.72220,0.00436
1460.66203,0.00433
1458.60186,0.00415
1456.54169,0.00351
1454.48151,0.00318
1452.42134,0.00327
1450.36117,0.00373
1448.30100,0.00431
1446.24083,0.00470
1444.18065,0.00488
1442.12048,0.00489
1440.06031,0.00476
1438.00014,0.00453
1435.93997,0.00427
1433.87979,0.00424
1431.81962,0.00439
1429.75945,0.00459
1427.69928,0.00465
1425.63910,0.00464
1423.57893,0.00459
1421.51876,0.00425
1419.45859,0.00355
1417.39842,0.00329
1415.33824,0.00393
1413.27807,0.00464
1411.21790,0.00491
1409.15773,0.00495
1407.09756,0.00495
1405.03738,0.00482
1402.97721,0.00463
1400.91704,0.00430
1398.85687,0.00368
1396.79670,0.00322
1394.73652,0.00335
1392.67635,0.00368
1390.61618,0.00375
1388.55601,0.00363
1386.49583,0.00371
1384.43566,0.00410
1382.37549,0.00433
1380.31532,0.00418
1378.25515,0.00398
1376.19497,0.00404
1374.13480,0.00405
1372.07463,0.00390
1370.01446,0.00382
1367.95429,0.00382
1365.89411,0.00365
1363.83394,0.00313
1361.77377,0.00274
1359.71360,0.00305
1357.65343,0.00363
1355.59325,0.00395
1353.53308,0.00404
1351.47291,0.00414
1349.41274,0.00423
1347.35256,0.00420
1345.29239,0.00396
1343.23222,0.00333
1341.17205,0.00225
1339.11188,0.00143
1337.05170,0.00177
1334.99153,0.00281
1332.93136,0.00357
1330.87119,0.00380
1328.81102,0.00380
1326.75084,0.00375
1324.69067,0.00367
1322.63050,0.00356
1320.57033,0.00337
1318.51015,0.00307
1316.44998,0.00291
1314.38981,0.00293
1312.32964,0.00307
1310.26947,0.00333
1308.20929,0.00363
1306.14912,0.00387
1304.08895,0.00402
1302.02878,0.00406
1299.96861,0.00391
1297.90843,0.00361
1295.84826,0.00340
1293.78809,0.00342
1291.72792,0.00349
1289.66775,0.00348
1287.60757,0.00353
1285.54740,0.00373
1283.48723,0.00390
1281.42706,0.00384
1279.36688,0.00372
1277.30671,0.00379
1275.24654,0.00388
1273.18637,0.00376
1271.12620,0.00353
1269.06602,0.00342
1267.00585,0.00346
1264.94568,0.00358
1262.88551,0.00373
1260.82534,0.00386
1258.76516,0.00392
1256.70499,0.00389
1254.64482,0.00376
1252.58465,0.00364
1250.52447,0.00367
1248.46430,0.00381
1246.40413,0.00376
1244.34396,0.00351
1242.28379,0.00331
1240.22361,0.00321
1238.16344,0.00316
1236.10327,0.00316
1234.04310,0.00320
1231.98293,0.00322
1229.92275,0.00320
1227.86258,0.00307
1225.80241,0.00282
1223.74224,0.00258
1221.68207,0.00245
1219.62189,0.00241
1217.56172,0.00243
1215.50155,0.00238
1213.44138,0.00218
1211.38120,0.00196
1209.32103,0.00181
1207.26086,0.00187
1205.20069,0.00206
1203.14052,0.00210
1201.08034,0.00198
1199.02017,0.00186
1196.96000,0.00191
1194.89983,0.00195
1192.83966,0.00200
1190.77948,0.00199
1188.71931,0.00188
1186.65914,0.00189
1184.59897,0.00209
1182.53880,0.00231
1180.47862,0.00248
1178.41845,0.00266
1176.35828,0.00278
1174.29811,0.00283
1172.23793,0.00292
1170.17776,0.00314
1168.11759,0.00351
1166.05742,0.00381
1163.99725,0.00397
1161.93707,0.00416
1159.87690,0.00447
1157.81673,0.00486
1155.75656,0.00532
1153.69639,0.00583
1151.63621,0.00630
1149.57604,0.00670
1147.51587,0.00705
1145.45570,0.00741
1143.39552,0.00789
1141.33535,0.00860
1139.27518,0.00950
1137.21501,0.01028
1135.15484,0.01087
1133.09466,0.01150
1131.03449,0.01225
1128.97432,0.01298
1126.91415,0.01373
1124.85398,0.01451
1122.79380,0.01527
1120.73363,0.01606
1118.67346,0.01696
1116.61329,0.01807
1114.55312,0.01924
1112.49294,0.02026
1110.43277,0.02112
1108.37260,0.02185
1106.31243,0.02247
1104.25225,0.02310
1102.19208,0.02381
1100.13191,0.02460
1098.07174,0.02542
1096.01157,0.02623
1093.95139,0.02692
1091.89122,0.02741
1089.83105,0.02786
1087.77088,0.02841
1085.71071,0.02896
1083.65053,0.02948
1081.59036,0.03009
1079.53019,0.03075
1077.47002,0.03132
1075.40985,0.03181
1073.34967,0.03221
1071.28950,0.03244
1069.22933,0.03249
1067.16916,0.03246
1065.10898,0.03243
1063.04881,0.03242
1060.98864,0.03223
1058.92847,0.03179
1056.86830,0.03109
1054.80812,0.03030
1052.74795,0.02965
1050.68778,0.02897
1048.62761,0.02799
1046.56744,0.02672
1044.50726,0.02544
1042.44709,0.02432
1040.38692,0.02317
1038.32675,0.02198
1036.26657,0.02085
1034.20640,0.01977
1032.14623,0.01877
1030.08606,0.01783
1028.02589,0.01685
1025.96571,0.01589
1023.90554,0.01510
1021.84537,0.01444
1019.78520,0.01394
1017.72503,0.01366
1015.66485,0.01344
1013.60468,0.01324
1011.54451,0.01324
1009.48434,0.01346
1007.42417,0.01386
1005.36399,0.01433
1003.30382,0.01490
1001.24365,0.01560
999.18348,0.01641
997.12330,0.01722
995.06313,0.01794
993.00296,0.01869
990.94279,0.01948
988.88262,0.02019
986.82244,0.02075
984.76227,0.02111
982.70210,0.02134
980.64193,0.02154
978.58176,0.02176
976.52158,0.02187
974.46141,0.02181
972.40124,0.02162
970.34107,0.02130
968.28089,0.02084
966.22072,0.02024
964.16055,0.01952
962.10038,0.01880
960.04021,0.01815
957.98003,0.01748
955.91986,0.01673
953.85969,0.01593
951.79952,0.01533
949.73935,0.01500
947.67917,0.01447
945.61900,0.01369
943.55883,0.01317
941.49866,0.01300
939.43849,0.01294
937.37831,0.01281
935.31814,0.01248
933.25797,0.01210
931.19780,0.01178
929.13762,0.01146
927.07745,0.01116
925.01728,0.01100
922.95711,0.01094
920.89694,0.01093
918.83676,0.01097
916.77659,0.01108
914.71642,0.01128
912.65625,0.01136
910.59608,0.01128
908.53590,0.01137
906.47573,0.01169
904.41556,0.01190
902.35539,0.01194
900.29522,0.01206
898.23504,0.01224
896.17487,0.01249
894.11470,0.01289
892.05453,0.01332
889.99435,0.01359
887.93418,0.01370
885.87401,0.01399
883.81384,0.01447
881.75367,0.01471
879.69349,0.01483
877.63332,0.01506
875.57315,0.01519
873.51298,0.01532
871.45281,0.01577
869.39263,0.01633
867.33246,0.01662
865.27229,0.01682
863.21212,0.01702
861.15194,0.01703
859.09177,0.01684
857.03160,0.01657
854.97143,0.01634
852.91126,0.01602
850.85108,0.01560
848.79091,0.01528
846.73074,0.01486
844.67057,0.01418
842.61040,0.01343
840.55022,0.01276
838.49005,0.01213
836.42988,0.01154
834.36971,0.01120
832.30954,0.01092
830.24936,0.01033
828.18919,0.00962
826.12902,0.00907
824.06885,0.00872
822.00867,0.00848
819.94850,0.00842
817.88833,0.00847
815.82816,0.00834
813.76799,0.00800
811.70781,0.00779
809.64764,0.00779
807.58747,0.00777
805.52730,0.00760
803.46713,0.00734
801.40695,0.00721
799.34678,0.00719
797.28661,0.00734
795.22644,0.00770
793.16627,0.00787
791.10609,0.00793
789.04592,0.00823
786.98575,0.00862
784.92558,0.00873
782.86540,0.00867
780.80523,0.00870
778.74506,0.00865
776.68489,0.00869
774.62472,0.00892
772.56454,0.00899
770.50437,0.00888
768.44420,0.00880
766.38403,0.00873
764.32386,0.00878
762.26368,0.00910
760.20351,0.00915
758.14334,0.00896
756.08317,0.00911
754.02299,0.00931
751.96282,0.00931
749.90265,0.00918
747.84248,0.00903
745.78231,0.00903
743.72213,0.00900
741.66196,0.00910
739.60179,0.00967
737.54162,0.00991
735.48145,0.00932
733.42127,0.00881
731.36110,0.00867
729.30093,0.00864
727.24076,0.00898
725.18059,0.00934
723.12041,0.00969
721.06024,0.00922
719.00007,0.00904
716.93990,0.00878
714.87972,0.00835
712.81955,0.00836
710.75938,0.00847
708.69921,0.00818
706.63904,0.00765
704.57886,0.00707
702.51869,0.00672
700.45852,0.00694
698.39835,0.00746
696.33818,0.00796
694.27800,0.00833
692.21783,0.00832
690.15766,0.00793
688.09749,0.00770
686.03731,0.00812
683.97714,0.00903
681.91697,0.00999
679.85680,0.01083
677.79663,0.01114
675.73645,0.01071
673.67628,0.01018
671.61611,0.00952
669.55594,0.00594
667.49577,0.00448
665.43559,0.01126
663.37542,0.01069
661.31525,0.00835
659.25508,0.00747
657.19491,0.00739
655.13473,0.00739
653.07456,0.00740
651.01439,0.00742
648.95422,0.00754
646.89404,0.00770
644.83387,0.00708
642.77370,0.00589
640.71353,0.00483
638.65336,0.00392
636.59318,0.00290
634.53301,0.00247
632.47284,0.00300
630.41267,0.00377
628.35250,0.00444
626.29232,0.00504
624.23215,0.00496
622.17198,0.00468
620.11181,0.00503
618.05164,0.00561
615.99146,0.00607
613.93129,0.00629
611.87112,0.00437
609.81095,0.00098
607.75077,0.00000
605.69060,0.00116
603.63043,0.00127
601.57026,0.00029
599.51009,0.00000
