3996.73391,-0.00084
3994.67373,-0.00084
3992.61356,-0.00088
3990.55339,-0.00096
3988.49322,-0.00096
3986.43305,-0.00086
3984.37287,-0.00071
3982.31270,-0.00046
3980.25253,-0.00030
3978.19236,-0.00032
3976.13219,-0.00018
3974.07201,0.00014
3972.01184,0.00030
3969.95167,0.00036
3967.89150,0.00063
3965.83133,0.00088
3963.77115,0.00066
3961.71098,0.00029
3959.65081,0.00033
3957.59064,0.00067
3955.53046,0.00103
3953.47029,0.00124
3951.41012,0.00105
3949.34995,0.00043
3947.28978,0.00000
3945.22960,0.00010
3943.16943,0.00041
3941.10926,0.00089
3939.04909,0.00136
3936.98892,0.00142
3934.92874,0.00106
3932.86857,0.00071
3930.80840,0.00088
3928.74823,0.00143
3926.68805,0.00188
3924.62788,0.00206
3922.56771,0.00198
3920.50754,0.00161
3918.44737,0.00117
3916.38719,0.00142
3914.32702,0.00233
3912.26685,0.00301
3910.20668,0.00330
3908.14651,0.00330
3906.08633,0.00259
3904.02616,0.00100
3901.96599,0.00000
3899.90582,0.00077
3897.84565,0.00210
3895.78547,0.00252
3893.72530,0.00222
3891.66513,0.00206
3889.60496,0.00219
3887.54478,0.00204
3885.48461,0.00172
3883.42444,0.00153
3881.36427,0.00153
3879.30410,0.00183
3877.24392,0.00210
3875.18375,0.00199
3873.12358,0.00166
3871.06341,0.00138
3869.00324,0.00141
3866.94306,0.00175
3864.88289,0.00202
3862.82272,0.00181
3860.76255,0.00130
3858.70237,0.00085
3856.64220,0.00072
3854.58203,0.00139
3852.52186,0.00234
3850.46169,0.00271
3848.40151,0.00254
3846.34134,0.00261
3844.28117,0.00299
3842.22100,0.00312
3840.16083,0.00290
3838.10065,0.00265
3836.04048,0.00264
3833.98031,0.00267
3831.92014,0.00263
3829.85997,0.00273
3827.79979,0.00290
3825.73962,0.00283
3823.67945,0.00263
3821.61928,0.00259
3819.55910,0.00250
3817.49893,0.00259
3815.43876,0.00299
3813.37859,0.00321
3811.31842,0.00309
3809.25824,0.00320
3807.19807,0.00369
3805.13790,0.00421
3803.07773,0.00467
3801.01756,0.00493
3798.95738,0.00488
3796.89721,0.00478
3794.83704,0.00480
3792.77687,0.00487
3790.71670,0.00477
3788.65652,0.00459
3786.59635,0.00465
3784.53618,0.00498
3782.47601,0.00521
3780.41583,0.00529
3778.35566,0.00526
3776.29549,0.00521
3774.23532,0.00526
3772.17515,0.00538
3770.11497,0.00524
3768.05480,0.00462
3765.99463,0.00403
3763.93446,0.00397
3761.87429,0.00416
3759.81411,0.00397
3757.75394,0.00327
3755.69377,0.00286
3753.63360,0.00308
3751.57342,0.00316
3749.51325,0.00212
3747.45308,0.00069
3745.39291,0.00000
3743.33274,0.00096
3741.27256,0.00203
3739.21239,0.00170
3737.15222,0.00092
3735.09205,0.00089
3733.03188,0.00187
3730.97170,0.00264
3728.91153,0.00256
3726.85136,0.00222
3724.79119,0.00223
3722.73102,0.00270
3720.67084,0.00324
3718.61067,0.00323
3716.55050,0.00281
3714.49033,0.00265
3712.43015,0.00318
3710.36998,0.00387
3708.30981,0.00410
3706.24964,0.00419
3704.18947,0.00459
3702.12929,0.00514
3700.06912,0.00536
3698.00895,0.00526
3695.94878,0.00515
3693.88861,0.00527
3691.82843,0.00563
3689.76826,0.00560
3687.70809,0.00519
3685.64792,0.00489
3683.58775,0.00445
3681.52757,0.00412
3679.46740,0.00434
3677.40723,0.00477
3675.34706,0.00475
3673.28688,0.00438
3671.22671,0.00423
3669.16654,0.00431
3667.10637,0.00439
3665.04620,0.00446
3662.98602,0.00454
3660.92585,0.00460
3658.86568,0.00444
3656.80551,0.00405
3654.74534,0.00395
3652.68516,0.00451
3650.62499,0.00515
3648.56482,0.00516
3646.50465,0.00530
3644.44447,0.00534
3642.38430,0.00515
3640.32413,0.00534
3638.26396,0.00600
3636.20379,0.00647
3634.14361,0.00619
3632.08344,0.00552
3630.02327,0.00525
3627.96310,0.00560
3625.90293,0.00610
3623.84275,0.00638
3621.78258,0.00650
3619.72241,0.00639
3617.66224,0.00599
3615.60207,0.00547
3613.54189,0.00489
3611.48172,0.00446
3609.42155,0.00496
3607.36138,0.00639
3605.30120,0.00781
3603.24103,0.00888
3601.18086,0.00951
3599.12069,0.00927
3597.06052,0.00842
3595.00034,0.00797
3592.94017,0.00821
3590.88000,0.00840
3588.81983,0.00800
3586.75966,0.00773
3584.69948,0.00815
3582.63931,0.00859
3580.57914,0.00894
3578.51897,0.00960
3576.45879,0.01041
3574.39862,0.01092
3572.33845,0.01093
3570.27828,0.01045
3568.21811,0.00981
3566.15793,0.00974
3564.09776,0.01037
3562.03759,0.01081
3559.97742,0.01098
3557.91725,0.01146
3555.85707,0.01218
3553.79690,0.01258
3551.73673,0.01253
3549.67656,0.01212
3547.61639,0.01146
3545.55621,0.01126
3543.49604,0.01202
3541.43587,0.01306
3539.37570,0.01359
3537.31552,0.01370
3535.25535,0.01394
3533.19518,0.01438
3531.13501,0.01463
3529.07484,0.01433
3527.01466,0.01362
3524.95449,0.01328
3522.89432,0.01370
3520.83415,0.01448
3518.77398,0.01524
3516.71380,0.01578
3514.65363,0.01596
3512.59346,0.01590
3510.53329,0.01587
3508.47312,0.01600
3506.41294,0.01608
3504.35277,0.01588
3502.29260,0.01577
3500.23243,0.01629
3498.17225,0.01702
3496.11208,0.01730
3494.05191,0.01725
3491.99174,0.01734
3489.93157,0.01761
3487.87139,0.01776
3485.81122,0.01796
3483.75105,0.01829
3481.69088,0.01831
3479.63071,0.01814
3477.57053,0.01833
3475.51036,0.01880
3473.45019,0.01929
3471.39002,0.01961
3469.32984,0.01959
3467.26967,0.01936
3465.20950,0.01919
3463.14933,0.01930
3461.08916,0.01968
3459.02898,0.02013
3456.96881,0.02043
3454.90864,0.02062
3452.84847,0.02079
3450.78830,0.02089
3448.72812,0.02086
3446.66795,0.02083
3444.60778,0.02107
3442.54761,0.02141
3440.48744,0.02156
3438.42726,0.02171
3436.36709,0.02189
3434.30692,0.02192
3432.24675,0.02181
3430.18657,0.02184
3428.12640,0.02206
3426.06623,0.02217
3424.00606,0.02211
3421.94589,0.02216
3419.88571,0.02244
3417.82554,0.02281
3415.76537,0.02290
3413.70520,0.02260
3411.64503,0.02232
3409.58485,0.02246
3407.52468,0.02304
3405.46451,0.02352
3403.40434,0.02341
3401.34416,0.02314
3399.28399,0.02240
3397.22382,0.02237
3395.16365,0.02238
3393.10348,0.02257
3391.04330,0.02295
3388.98313,0.02332
3386.92296,0.02348
3384.86279,0.02345
3382.80262,0.02346
3380.74244,0.02358
3378.68227,0.02376
3376.62210,0.02403
3374.56193,0.02434
3372.50176,0.02444
3370.44158,0.02431
3368.38141,0.02420
3366.32124,0.02423
3364.26107,0.02429
3362.20089,0.02435
3360.14072,0.02439
3358.08055,0.02429
3356.02038,0.02426
3353.96021,0.02452
3351.90003,0.02467
3349.83986,0.02464
3347.77969,0.02484
3345.71952,0.02509
3343.65935,0.02508
3341.59917,0.02500
3339.53900,0.02497
3337.47883,0.02487
3335.41866,0.02487
3333.35849,0.02500
3331.29831,0.02512
3329.23814,0.02528
3327.17797,0.02546
3325.11780,0.02549
3323.05762,0.02538
3320.99745,0.02537
3318.93728,0.02553
3316.87711,0.02563
3314.81694,0.02570
3312.75676,0.02569
3310.69659,0.02554
3308.63642,0.02551
3306.57625,0.02564
3304.51608,0.02578
3302.45590,0.02587
3300.39573,0.02584
3298.33556,0.02574
3296.27539,0.02582
3294.21521,0.02596
3292.15504,0.02584
3290.09487,0.02566
3288.03470,0.02575
3285.97453,0.02597
3283.91435,0.02623
3281.85418,0.02646
3279.79401,0.02638
3277.73384,0.02608
3275.67367,0.02595
3273.61349,0.02607
3271.55332,0.02626
3269.49315,0.02639
3267.43298,0.02640
3265.37281,0.02630
3263.31263,0.02620
3261.25246,0.02625
3259.19229,0.02633
3257.13212,0.02626
3255.07194,0.02618
3253.01177,0.02624
3250.95160,0.02632
3248.89143,0.02633
3246.83126,0.02622
3244.77108,0.02612
3242.71091,0.02619
3240.65074,0.02630
3238.59057,0.02631
3236.53040,0.02628
3234.47022,0.02627
3232.41005,0.02621
3230.34988,0.02604
3228.28971,0.02598
3226.22954,0.02611
3224.16936,0.02628
3222.10919,0.02640
3220.04902,0.02640
3217.98885,0.02627
3215.92867,0.02620
3213.86850,0.02614
3211.80833,0.02602
3209.74816,0.02596
3207.68799,0.02610
3205.62781,0.02647
3203.56764,0.02667
3201.50747,0.02643
3199.44730,0.02609
3197.38713,0.02599
3195.32695,0.02600
3193.26678,0.02597
3191.20661,0.02603
3189.14644,0.02620
3187.08626,0.02623
3185.02609,0.02607
3182.96592,0.02610
3180.90575,0.02624
3178.84558,0.02615
3176.78540,0.02603
3174.72523,0.02606
3172.66506,0.02606
3170.60489,0.02612
3168.54472,0.02608
3166.48454,0.02574
3164.42437,0.02549
3162.36420,0.02556
3160.30403,0.02555
3158.24386,0.02533
3156.18368,0.02522
3154.12351,0.02535
3152.06334,0.02566
3150.00317,0.02594
3147.94299,0.02588
3145.88282,0.02552
3143.82265,0.02529
3141.76248,0.02536
3139.70231,0.02547
3137.64213,0.02547
3135.58196,0.02534
3133.52179,0.02507
3131.46162,0.02481
3129.40145,0.02476
3127.34127,0.02484
3125.28110,0.02479
3123.22093,0.02458
3121.16076,0.02438
3119.10058,0.02428
3117.04041,0.02432
3114.98024,0.02450
3112.92007,0.02457
3110.85990,0.02444
3108.79972,0.02432
3106.73955,0.02429
3104.67938,0.02424
3102.61921,0.02416
3100.55904,0.02423
3098.49886,0.02432
3096.43869,0.02432
3094.37852,0.02439
3092.31835,0.02444
3090.25818,0.02427
3088.19800,0.02399
3086.13783,0.02386
3084.07766,0.02382
3082.01749,0.02356
3079.95731,0.02314
3077.89714,0.02292
3075.83697,0.02303
3073.77680,0.02334
3071.71663,0.02356
3069.65645,0.02342
3067.59628,0.02303
3065.53611,0.02285
3063.47594,0.02295
3061.41577,0.02303
3059.35559,0.02294
3057.29542,0.02274
3055.23525,0.02260
3053.17508,0.02265
3051.11491,0.02280
3049.05473,0.02277
3046.99456,0.02253
3044.93439,0.02237
3042.87422,0.02236
3040.81404,0.02230
3038.75387,0.02204
3036.69370,0.02164
3034.63353,0.02130
3032.57336,0.02120
3030.51318,0.02138
3028.45301,0.02161
3026.39284,0.02164
3024.33267,0.02150
3022.27250,0.02141
3020.21232,0.02147
3018.15215,0.02155
3016.09198,0.02131
3014.03181,0.02081
3011.97163,0.02051
3009.91146,0.02050
3007.85129,0.02050
3005.79112,0.02043
3003.73095,0.02046
3001.67077,0.02064
2999.61060,0.02100
2997.55043,0.02107
2995.49026,0.02082
2993.43009,0.02045
2991.36991,0.02032
2989.30974,0.02039
2987.24957,0.02031
2985.18940,0.02015
2983.12923,0.02024
2981.06905,0.02038
2979.00888,0.02028
2976.94871,0.02007
2974.88854,0.02003
2972.82836,0.02013
2970.76819,0.02009
2968.70802,0.02000
2966.64785,0.01995
2964.58768,0.01996
2962.52750,0.02005
2960.46733,0.02007
2958.40716,0.01992
2956.34699,0.01963
2954.28682,0.01936
2952.22664,0.01914
2950.16647,0.01909
2948.10630,0.01921
2946.04613,0.01932
2943.98596,0.01938
2941.92578,0.01937
2939.86561,0.01929
2937.80544,0.01921
2935.74527,0.01917
2933.68509,0.01910
2931.62492,0.01895
2929.56475,0.01884
2927.50458,0.01890
2925.44441,0.01903
2923.38423,0.01903
2921.32406,0.01884
2919.26389,0.01865
2917.20372,0.01869
2915.14355,0.01867
2913.08337,0.01840
2911.02320,0.01813
2908.96303,0.01806
2906.90286,0.01811
2904.84268,0.01812
2902.78251,0.01801
2900.72234,0.01781
2898.66217,0.01765
2896.60200,0.01764
2894.54182,0.01764
2892.48165,0.01751
2890.42148,0.01732
2888.36131,0.01720
2886.30114,0.01711
2884.24096,0.01700
2882.18079,0.01685
2880.12062,0.01672
2878.06045,0.01667
2876.00028,0.01672
2873.94010,0.01683
2871.87993,0.01691
2869.81976,0.01688
2867.75959,0.01683
2865.69941,0.01683
2863.63924,0.01682
2861.57907,0.01686
2859.51890,0.01684
2857.45873,0.01660
2855.39855,0.01638
2853.33838,0.01642
2851.27821,0.01655
2849.21804,0.01643
2847.15787,0.01610
2845.09769,0.01574
2843.03752,0.01553
2840.97735,0.01548
2838.91718,0.01551
2836.85700,0.01553
2834.79683,0.01548
2832.73666,0.01541
2830.67649,0.01536
2828.61632,0.01520
2826.55614,0.01493
2824.49597,0.01487
2822.43580,0.01501
2820.37563,0.01507
2818.31546,0.01494
2816.25528,0.01476
2814.19511,0.01478
2812.13494,0.01495
2810.07477,0.01491
2808.01460,0.01459
2805.95442,0.01438
2803.89425,0.01430
2801.83408,0.01413
2799.77391,0.01401
2797.71373,0.01403
2795.65356,0.01410
2793.59339,0.01415
2791.53322,0.01418
2789.47305,0.01420
2787.41287,0.01414
2785.35270,0.01404
2783.29253,0.01395
2781.23236,0.01379
2779.17219,0.01375
2777.11201,0.01385
2775.05184,0.01380
2772.99167,0.01358
2770.93150,0.01348
2768.87133,0.01353
2766.81115,0.01343
2764.75098,0.01314
2762.69081,0.01300
2760.63064,0.01309
2758.57046,0.01319
2756.51029,0.01323
2754.45012,0.01331
2752.38995,0.01334
2750.32978,0.01317
2748.26960,0.01292
2746.20943,0.01277
2744.14926,0.01270
2742.08909,0.01263
2740.02892,0.01261
2737.96874,0.01267
2735.90857,0.01270
2733.84840,0.01269
2731.78823,0.01272
2729.72805,0.01271
2727.66788,0.01267
2725.60771,0.01261
2723.54754,0.01247
2721.48737,0.01234
2719.42719,0.01234
2717.36702,0.01232
2715.30685,0.01222
2713.24668,0.01226
2711.18651,0.01226
2709.12633,0.01202
2707.06616,0.01177
2705.00599,0.01181
2702.94582,0.01208
2700.88565,0.01225
2698.82547,0.01212
2696.76530,0.01188
2694.70513,0.01179
2692.64496,0.01174
2690.58478,0.01154
2688.52461,0.01130
2686.46444,0.01123
2684.40427,0.01132
2682.34410,0.01140
2680.28392,0.01138
2678.22375,0.01131
2676.16358,0.01136
2674.10341,0.01140
2672.04324,0.01126
2669.98306,0.01103
2667.92289,0.01091
2665.86272,0.01100
2663.80255,0.01117
2661.74238,0.01123
2659.68220,0.01112
2657.62203,0.01092
2655.56186,0.01077
2653.50169,0.01066
2651.44151,0.01059
2649.38134,0.01067
2647.32117,0.01081
2645.26100,0.01083
2643.20083,0.01073
2641.14065,0.01063
2639.08048,0.01071
2637.02031,0.01085
2634.96014,0.01082
2632.89997,0.01072
2630.83979,0.01068
2628.77962,0.01060
2626.71945,0.01051
2624.65928,0.01044
2622.59910,0.01027
2620.53893,0.01017
2618.47876,0.01023
2616.41859,0.01019
2614.35842,0.01007
2612.29824,0.00996
2610.23807,0.00985
2608.17790,0.00981
2606.11773,0.00983
2604.05756,0.00991
2601.99738,0.00995
2599.93721,0.00970
2597.87704,0.00928
2595.81687,0.00910
2593.75670,0.00923
2591.69652,0.00936
2589.63635,0.00930
2587.57618,0.00916
2585.51601,0.00905
2583.45583,0.00905
2581.39566,0.00916
2579.33549,0.00903
2577.27532,0.00861
2575.21515,0.00849
2573.15497,0.00882
2571.09480,0.00915
2569.03463,0.00927
2566.97446,0.00928
2564.91429,0.00920
2562.85411,0.00888
2560.79394,0.00859
2558.73377,0.00861
2556.67360,0.00855
2554.61342,0.00844
2552.55325,0.00864
2550.49308,0.00887
2548.43291,0.00897
2546.37274,0.00921
2544.31256,0.00935
2542.25239,0.00907
2540.19222,0.00873
2538.13205,0.00866
2536.07188,0.00877
2534.01170,0.00891
2531.95153,0.00891
2529.89136,0.00877
2527.83119,0.00871
2525.77102,0.00873
2523.71084,0.00864
2521.65067,0.00849
2519.59050,0.00849
2517.53033,0.00860
2515.47015,0.00876
2513.40998,0.00890
2511.34981,0.00900
2509.28964,0.00924
2507.22947,0.00934
2505.16929,0.00896
2503.10912,0.00851
2501.04895,0.00840
2498.98878,0.00850
2496.92861,0.00855
2494.86843,0.00845
2492.80826,0.00838
2490.74809,0.00855
2488.68792,0.00877
2486.62775,0.00872
2484.56757,0.00854
2482.50740,0.00852
2480.44723,0.00858
2478.38706,0.00858
2476.32688,0.00870
2474.26671,0.00888
2472.20654,0.00888
2470.14637,0.00897
2468.08620,0.00924
2466.02602,0.00946
2463.96585,0.00947
2461.90568,0.00926
2459.84551,0.00915
2457.78534,0.00919
2455.72516,0.00916
2453.66499,0.00918
2451.60482,0.00920
2449.54465,0.00890
2447.48447,0.00851
2445.42430,0.00853
2443.36413,0.00882
2441.30396,0.00914
2439.24379,0.00929
2437.18361,0.00919
2435.12344,0.00910
2433.06327,0.00912
2431.00310,0.00909
2428.94293,0.00901
2426.88275,0.00896
2424.82258,0.00879
2422.76241,0.00857
2420.70224,0.00861
2418.64207,0.00886
2416.58189,0.00905
2414.52172,0.00907
2412.46155,0.00903
2410.40138,0.00899
2408.34120,0.00886
2406.28103,0.00883
2404.22086,0.00903
2402.16069,0.00922
2400.10052,0.00914
2398.04034,0.00859
2395.98017,0.00842
2393.92000,0.00866
2391.85983,0.00900
2389.79966,0.00903
2387.73948,0.00862
2385.67931,0.00804
2383.61914,0.00736
2381.55897,0.00640
2379.49880,0.00560
2377.43862,0.00559
2375.37845,0.00596
2373.31828,0.00668
2371.25811,0.00800
2369.19793,0.00925
2367.13776,0.01015
2365.07759,0.01102
2363.01742,0.01153
2360.95725,0.01331
2358.89707,0.01480
2356.83690,0.01517
2354.77673,0.01402
2352.71656,0.01211
2350.65639,0.01184
2348.59621,0.01203
2346.53604,0.01034
2344.47587,0.01140
2342.41570,0.01304
2340.35552,0.01366
2338.29535,0.01404
2336.23518,0.01400
2334.17501,0.01343
2332.11484,0.01226
2330.05466,0.01133
2327.99449,0.01061
2325.93432,0.01022
2323.87415,0.00895
2321.81398,0.00766
2319.75380,0.00688
2317.69363,0.00720
2315.63346,0.00716
2313.57329,0.00649
2311.51312,0.00579
2309.45294,0.00541
2307.39277,0.00553
2305.33260,0.00600
2303.27243,0.00663
2301.21225,0.00715
2299.15208,0.00755
2297.09191,0.00776
2295.03174,0.00791
2292.97157,0.00828
2290.91139,0.00865
2288.85122,0.00875
2286.79105,0.00875
2284.73088,0.00890
2282.67071,0.00910
2280.61053,0.00909
2278.55036,0.00890
2276.49019,0.00885
2274.43002,0.00880
2272.36984,0.00852
2270.30967,0.00841
2268.24950,0.00862
2266.18933,0.00887
2264.12916,0.00919
2262.06898,0.00940
2260.00881,0.00898
2257.94864,0.00815
2255.88847,0.00765
2253.82830,0.00777
2251.76812,0.00791
2249.70795,0.00753
2247.64778,0.00744
2245.58761,0.00795
2243.52744,0.00817
2241.46726,0.00780
2239.40709,0.00728
2237.34692,0.00680
2235.28675,0.00660
2233.22657,0.00650
2231.16640,0.00640
2229.10623,0.00669
2227.04606,0.00713
2224.98589,0.00750
2222.92571,0.00791
2220.86554,0.00791
2218.80537,0.00721
2216.74520,0.00642
2214.68503,0.00597
2212.62485,0.00600
2210.56468,0.00646
2208.50451,0.00655
2206.44434,0.00639
2204.38417,0.00666
2202.32399,0.00717
2200.26382,0.00745
2198.20365,0.00709
2196.14348,0.00661
2194.08330,0.00672
2192.02313,0.00700
2189.96296,0.00715
2187.90279,0.00729
2185.84262,0.00716
2183.78244,0.00653
2181.72227,0.00554
2179.66210,0.00483
2177.60193,0.00470
2175.54176,0.00449
2173.48158,0.00435
2171.42141,0.00511
2169.36124,0.00635
2167.30107,0.00697
2165.24089,0.00736
2163.18072,0.00807
2161.12055,0.00748
2159.06038,0.00515
2157.00021,0.00358
2154.94003,0.00358
2152.87986,0.00374
2150.81969,0.00342
2148.75952,0.00351
2146.69935,0.00437
2144.63917,0.00452
2142.57900,0.00367
2140.51883,0.00343
2138.45866,0.00366
2136.39849,0.00353
2134.33831,0.00373
2132.27814,0.00415
2130.21797,0.00395
2128.15780,0.00343
2126.09762,0.00345
2124.03745,0.00421
2121.97728,0.00489
2119.91711,0.00508
2117.85694,0.00509
2115.79676,0.00473
2113.73659,0.00433
2111.67642,0.00450
2109.61625,0.00485
2107.55608,0.00511
2105.49590,0.00539
2103.43573,0.00565
2101.37556,0.00589
2099.31539,0.00625
2097.25521,0.00593
2095.19504,0.00539
2093.13487,0.00500
2091.07470,0.00487
2089.01453,0.00510
2086.95435,0.00559
2084.89418,0.00582
2082.83401,0.00547
2080.77384,0.00533
2078.71367,0.00573
2076.65349,0.00619
2074.59332,0.00636
2072.53315,0.00612
2070.47298,0.00610
2068.41281,0.00666
2066.35263,0.00676
2064.29246,0.00597
2062.23229,0.00519
2060.17212,0.00495
2058.11194,0.00525
2056.05177,0.00584
2053.99160,0.00664
2051.93143,0.00775
2049.87126,0.00827
2047.81108,0.00761
2045.75091,0.00694
2043.69074,0.00674
2041.63057,0.00632
2039.57040,0.00575
2037.51022,0.00530
2035.45005,0.00523
2033.38988,0.00571
2031.32971,0.00599
2029.26954,0.00608
2027.20936,0.00644
2025.14919,0.00657
2023.08902,0.00585
2021.02885,0.00469
2018.96867,0.00407
2016.90850,0.00399
2014.84833,0.00401
2012.78816,0.00450
2010.72799,0.00535
2008.66781,0.00532
2006.60764,0.00447
2004.54747,0.00408
2002.48730,0.00372
2000.42713,0.00314
1998.36695,0.00351
1996.30678,0.00446
1994.24661,0.00460
1992.18644,0.00389
1990.12626,0.00366
1988.06609,0.00419
1986.00592,0.00462
1983.94575,0.00549
1981.88558,0.00742
1979.82540,0.00917
1977.76523,0.00934
1975.70506,0.00837
1973.64489,0.00727
1971.58472,0.00604
1969.52454,0.00467
1967.46437,0.00373
1965.40420,0.00346
1963.34403,0.00338
1961.28386,0.00288
1959.22368,0.00211
1957.16351,0.00217
1955.10334,0.00323
1953.04317,0.00414
1950.98299,0.00403
1948.92282,0.00348
1946.86265,0.00328
1944.80248,0.00318
1942.74231,0.00316
1940.68213,0.00338
1938.62196,0.00357
1936.56179,0.00346
1934.50162,0.00332
1932.44145,0.00346
1930.38127,0.00373
1928.32110,0.00371
1926.26093,0.00341
1924.20076,0.00305
1922.14059,0.00305
1920.08041,0.00365
1918.02024,0.00443
1915.96007,0.00471
1913.89990,0.00449
1911.83972,0.00421
1909.77955,0.00417
1907.71938,0.00428
1905.65921,0.00432
1903.59904,0.00424
1901.53886,0.00419
1899.47869,0.00423
1897.41852,0.00417
1895.35835,0.00405
1893.29818,0.00402
1891.23800,0.00411
1889.17783,0.00425
1887.11766,0.00426
1885.05749,0.00413
1882.99731,0.00399
1880.93714,0.00386
1878.87697,0.00374
1876.81680,0.00367
1874.75663,0.00361
1872.69645,0.00369
1870.63628,0.00403
1868.57611,0.00442
1866.51594,0.00435
1864.45577,0.00391
1862.39559,0.00358
1860.33542,0.00352
1858.27525,0.00370
1856.21508,0.00409
1854.15491,0.00438
1852.09473,0.00440
1850.03456,0.00424
1847.97439,0.00390
1845.91422,0.00343
1843.85404,0.00312
1841.79387,0.00318
1839.73370,0.00341
1837.67353,0.00347
1835.61336,0.00324
1833.55318,0.00314
1831.49301,0.00355
1829.43284,0.00397
1827.37267,0.00397
1825.31250,0.00406
1823.25232,0.00438
1821.19215,0.00442
1819.13198,0.00394
1817.07181,0.00336
1815.01163,0.00315
1812.95146,0.00315
1810.89129,0.00308
1808.83112,0.00299
1806.77095,0.00289
1804.71077,0.00258
1802.65060,0.00214
1800.59043,0.00214
1798.53026,0.00251
1796.47009,0.00287
1794.40991,0.00325
1792.34974,0.00336
1790.28957,0.00298
1788.22940,0.00255
1786.16923,0.00229
1784.10905,0.00240
1782.04888,0.00292
1779.98871,0.00327
1777.92854,0.00332
1775.86836,0.00368
1773.80819,0.00453
1771.74802,0.00468
1769.68785,0.00352
1767.62768,0.00254
1765.56750,0.00255
1763.50733,0.00294
1761.44716,0.00313
1759.38699,0.00304
1757.32682,0.00286
1755.26664,0.00266
1753.20647,0.00230
1751.14630,0.00205
1749.08613,0.00228
1747.02596,0.00260
1744.96578,0.00279
1742.90561,0.00318
1740.84544,0.00358
1738.78527,0.00358
1736.72509,0.00335
1734.66492,0.00306
1732.60475,0.00281
1730.54458,0.00293
1728.48441,0.00326
1726.42423,0.00348
1724.36406,0.00347
1722.30389,0.00353
1720.24372,0.00412
1718.18355,0.00470
1716.12337,0.00414
1714.06320,0.00339
1712.00303,0.00319
1709.94286,0.00346
1707.88268,0.00389
1705.82251,0.00392
1703.76234,0.00367
1701.70217,0.00404
1699.64200,0.00477
1697.58182,0.00491
1695.52165,0.00468
1693.46148,0.00447
1691.40131,0.00433
1689.34114,0.00462
1687.28096,0.00560
1685.22079,0.00696
1683.16062,0.00715
1681.10045,0.00641
1679.04028,0.00625
1676.98010,0.00700
1674.91993,0.00818
1672.85976,0.00928
1670.79959,0.00996
1668.73941,0.00988
1666.67924,0.00954
1664.61907,0.00979
1662.55890,0.01021
1660.49873,0.00988
1658.43855,0.00945
1656.37838,0.00997
1654.31821,0.01117
1652.25804,0.01160
1650.19787,0.01158
1648.13769,0.01175
1646.07752,0.01155
1644.01735,0.01065
1641.95718,0.01003
1639.89701,0.01034
1637.83683,0.01142
1635.77666,0.01212
1633.71649,0.01158
1631.65632,0.01085
1629.59614,0.01081
1627.53597,0.01118
1625.47580,0.01146
1623.41563,0.01140
1621.35546,0.01111
1619.29528,0.01140
1617.23511,0.01206
1615.17494,0.01180
1613.11477,0.01095
1611.05460,0.01059
1608.99442,0.01071
1606.93425,0.01075
1604.87408,0.01067
1602.81391,0.01065
1600.75373,0.01068
1598.69356,0.01077
1596.63339,0.01089
1594.57322,0.01085
1592.51305,0.01060
1590.45287,0.01032
1588.39270,0.01006
1586.33253,0.00976
1584.27236,0.00939
1582.21219,0.00907
1580.15201,0.00920
1578.09184,0.00975
1576.03167,0.00977
1573.97150,0.00881
1571.91133,0.00819
1569.85115,0.00821
1567.79098,0.00784
1565.73081,0.00710
1563.67064,0.00686
1561.61046,0.00772
1559.55029,0.00865
1557.49012,0.00728
1555.42995,0.00512
1553.36978,0.00384
1551.30960,0.00343
1549.24943,0.00329
1547.18926,0.00314
1545.12909,0.00341
1543.06892,0.00468
1541.00874,0.00622
1538.94857,0.00582
1536.88840,0.00426
1534.82823,0.00348
1532.76805,0.00339
1530.70788,0.00308
1528.64771,0.00274
1526.58754,0.00260
1524.52737,0.00281
1522.46719,0.00311
1520.40702,0.00265
1518.34685,0.00181
1516.28668,0.00109
1514.22651,0.00047
1512.16633,0.00000
1510.10616,-0.00002
1508.04599,0.00094
1505.98582,0.00234
1503.92565,0.00263
1501.86547,0.00226
1499.80530,0.00250
1497.74513,0.00311
1495.68496,0.00333
1493.62478,0.00334
1491.56461,0.00336
1489.50444,0.00322
1487.44427,0.00310
1485.38410,0.00321
1483.32392,0.00340
1481.26375,0.00354
1479.20358,0.00358
1477.14341,0.00362
1475.08324,0.00371
1473.02306,0.00378
1470.96289,0.00367
1468.90272,0.00351
1466.84255,0.00366
1464.78238,0.00392
1462.72220,0.00393
1460.66203,0.00408
1458.60186,0.00417
1456.54169,0.00355
1454.48151,0.00295
1452.42134,0.00281
1450.36117,0.00316
1448.30100,0.00374
1446.24083,0.00415
1444.18065,0.00427
1442.12048,0.00420
1440.06031,0.00403
1438.00014,0.00380
1435.93997,0.00357
1433.87979,0.00355
1431.81962,0.00369
1429.75945,0.00388
1427.69928,0.00395
1425.63910,0.00397
1423.57893,0.00391
1421.51876,0.00354
1419.45859,0.00290
1417.39842,0.00266
1415.33824,0.00318
1413.27807,0.00378
1411.21790,0.00399
1409.15773,0.00399
1407.09756,0.00404
1405.03738,0.00406
1402.97721,0.00400
1400.91704,0.00369
1398.85687,0.00304
1396.79670,0.00257
1394.73652,0.00270
1392.67635,0.00292
1390.61618,0.00285
1388.55601,0.00271
1386.49583,0.00288
1384.43566,0.00332
1382.37549,0.00350
1380.31532,0.00326
1378.25515,0.00301
1376.19497,0.00304
1374.13480,0.00303
1372.07463,0.00288
1370.01446,0.00287
1367.95429,0.00297
1365.89411,0.00291
1363.83394,0.00245
1361.77377,0.00196
1359.71360,0.00214
1357.65343,0.00265
1355.59325,0.00294
1353.53308,0.00298
1351.47291,0.00304
1349.41274,0.00314
1347.35256,0.00314
1345.29239,0.00296
1343.23222,0.00244
1341.17205,0.00151
1339.11188,0.00077
1337.05170,0.00104
1334.99153,0.00192
1332.93136,0.00249
1330.87119,0.00260
1328.81102,0.00260
1326.75084,0.00264
1324.69067,0.00266
1322.63050,0.00262
1320.57033,0.00242
1318.51015,0.00209
1316.44998,0.00192
1314.38981,0.00203
1312.32964,0.00222
1310.26947,0.00245
1308.20929,0.00271
1306.14912,0.00289
1304.08895,0.00300
1302.02878,0.00304
1299.96861,0.00294
1297.90843,0.00267
1295.84826,0.00250
1293.78809,0.00255
1291.72792,0.00258
1289.66775,0.00245
1287.60757,0.00235
1285.54740,0.00240
1283.48723,0.00240
1281.42706,0.00231
1279.36688,0.00233
1277.30671,0.00248
1275.24654,0.00256
1273.18637,0.00251
1271.12620,0.00243
1269.06602,0.00234
1267.00585,0.00234
1264.94568,0.00247
1262.88551,0.00260
1260.82534,0.00258
1258.76516,0.00251
1256.70499,0.00252
1254.64482,0.00253
1252.58465,0.00247
1250.52447,0.00241
1248.46430,0.00243
1246.40413,0.00234
1244.34396,0.00211
1242.28379,0.00205
1240.22361,0.00211
1238.16344,0.00203
1236.10327,0.00195
1234.04310,0.00197
1231.98293,0.00195
1229.92275,0.00181
1227.86258,0.00157
1225.80241,0.00126
1223.74224,0.00108
1221.68207,0.00113
1219.62189,0.00116
1217.56172,0.00113
1215.50155,0.00102
1213.44138,0.00085
1211.38120,0.00076
1209.32103,0.00074
1207.26086,0.00076
1205.20069,0.00086
1203.14052,0.00091
1201.08034,0.00080
1199.02017,0.00061
1196.96000,0.00068
1194.89983,0.00078
1192.83966,0.00079
1190.77948,0.00078
1188.71931,0.00065
1186.65914,0.00058
1184.59897,0.00080
1182.53880,0.00112
1180.47862,0.00134
1178.41845,0.00140
1176.35828,0.00135
1174.29811,0.00140
1172.23793,0.00167
1170.17776,0.00198
1168.11759,0.00221
1166.05742,0.00236
1163.99725,0.00248
1161.93707,0.00266
1159.87690,0.00294
1157.81673,0.00329
1155.75656,0.00372
1153.69639,0.00413
1151.63621,0.00447
1149.57604,0.00488
1147.51587,0.00542
1145.45570,0.00597
1143.39552,0.00657
1141.33535,0.00732
1139.27518,0.00810
1137.21501,0.00874
1135.15484,0.00929
1133.09466,0.00997
1131.03449,0.01078
1128.97432,0.01156
1126.91415,0.01225
1124.85398,0.01292
1122.79380,0.01365
1120.73363,0.01445
1118.67346,0.01527
1116.61329,0.01613
1114.55312,0.01702
1112.49294,0.01794
1110.43277,0.01898
1108.37260,0.01988
1106.31243,0.02046
1104.25225,0.02097
1102.19208,0.02167
1100.13191,0.02250
1098.07174,0.02324
1096.01157,0.02380
1093.95139,0.02439
1091.89122,0.02509
1089.83105,0.02571
1087.77088,0.02620
1085.71071,0.02667
1083.65053,0.02719
1081.59036,0.02785
1079.53019,0.02854
1077.47002,0.02912
1075.40985,0.02961
1073.34967,0.02999
1071.28950,0.03016
1069.22933,0.03017
1067.16916,0.03013
1065.10898,0.03012
1063.04881,0.03018
1060.98864,0.03014
1058.92847,0.02979
1056.86830,0.02912
1054.80812,0.02834
1052.74795,0.02764
1050.68778,0.02689
1048.62761,0.02600
1046.56744,0.02496
1044.50726,0.02383
1042.44709,0.02279
1040.38692,0.02178
1038.32675,0.02065
1036.26657,0.01945
1034.20640,0.01827
1032.14623,0.01716
1030.08606,0.01614
1028.02589,0.01522
1025.96571,0.01461
1023.90554,0.01422
1021.84537,0.01369
1019.78520,0.01310
1017.72503,0.01280
1015.66485,0.01266
1013.60468,0.01251
1011.54451,0.01258
1009.48434,0.01290
1007.42417,0.01329
1005.36399,0.01370
1003.30382,0.01410
1001.24365,0.01461
999.18348,0.01536
997.12330,0.01623
995.06313,0.01708
993.00296,0.01790
990.94279,0.01867
988.88262,0.01932
986.82244,0.01980
984.76227,0.02029
982.70210,0.02085
980.64193,0.02123
978.58176,0.02136
976.52158,0.02125
974.46141,0.02100
972.40124,0.02085
970.34107,0.02074
968.28089,0.02037
966.22072,0.01973
964.16055,0.01903
962.10038,0.01841
960.04021,0.01793
957.98003,0.01747
955.91986,0.01680
953.85969,0.01603
951.79952,0.01545
949.73935,0.01500
947.67917,0.01448
945.61900,0.01401
943.55883,0.01383
941.49866,0.01368
939.43849,0.01342
937.37831,0.01331
935.31814,0.01327
933.25797,0.01313
931.19780,0.01287
929.13762,0.01251
927.07745,0.01219
925.01728,0.01210
922.95711,0.01216
920.89694,0.01219
918.83676,0.01216
916.77659,0.01221
914.71642,0.01244
912.65625,0.01258
910.59608,0.01245
908.53590,0.01240
906.47573,0.01277
904.41556,0.01328
902.35539,0.01347
900.29522,0.01344
898.23504,0.01346
896.17487,0.01375
894.11470,0.01438
892.05453,0.01499
889.99435,0.01525
887.93418,0.01525
885.87401,0.01535
883.81384,0.01583
881.75367,0.01652
879.69349,0.01705
877.63332,0.01732
875.57315,0.01738
873.51298,0.01742
871.45281,0.01762
869.39263,0.01780
867.33246,0.01778
865.27229,0.01795
863.21212,0.01828
861.15194,0.01819
859.09177,0.01785
857.03160,0.01763
854.97143,0.01740
852.91126,0.01715
850.85108,0.01692
848.79091,0.01653
846.73074,0.01580
844.67057,0.01510
842.61040,0.01475
840.55022,0.01418
838.49005,0.01307
836.42988,0.01201
834.36971,0.01140
832.30954,0.01101
830.24936,0.01062
828.18919,0.01020
826.12902,0.00968
824.06885,0.00912
822.00867,0.00873
819.94850,0.00853
817.88833,0.00853
815.82816,0.00857
813.76799,0.00857
811.70781,0.00851
809.64764,0.00825
807.58747,0.00802
805.52730,0.00795
803.46713,0.00779
801.40695,0.00766
799.34678,0.00783
797.28661,0.00827
795.22644,0.00861
793.16627,0.00859
791.10609,0.00865
789.04592,0.00914
786.98575,0.00978
784.92558,0.01022
782.86540,0.01042
780.80523,0.01039
778.74506,0.01012
776.68489,0.00994
774.62472,0.00998
772.56454,0.01005
770.50437,0.01010
768.44420,0.01013
766.38403,0.01025
764.32386,0.01063
762.26368,0.01131
760.20351,0.01163
758.14334,0.01158
756.08317,0.01180
754.02299,0.01197
751.96282,0.01190
749.90265,0.01175
747.84248,0.01130
745.78231,0.01062
743.72213,0.01026
741.66196,0.01046
739.60179,0.01110
737.54162,0.01152
735.48145,0.01125
733.42127,0.01091
731.36110,0.01109
729.30093,0.01133
727.24076,0.01110
725.18059,0.01057
723.12041,0.01036
721.06024,0.00979
719.00007,0.00994
716.93990,0.01001
714.87972,0.00961
712.81955,0.00948
710.75938,0.00960
708.69921,0.00962
706.63904,0.00948
704.57886,0.00926
702.51869,0.00916
700.45852,0.00904
698.39835,0.00878
696.33818,0.00892
694.27800,0.00929
692.21783,0.00910
690.15766,0.00867
688.09749,0.00886
686.03731,0.00974
683.97714,0.01059
681.91697,0.01099
679.85680,0.01117
677.79663,0.01143
675.73645,0.01169
673.67628,0.01202
671.61611,0.01230
669.55594,0.00931
667.49577,0.00668
665.43559,0.01227
663.37542,0.01158
661.31525,0.00961
659.25508,0.00887
657.19491,0.00909
655.13473,0.00912
653.07456,0.00804
651.01439,0.00683
648.95422,0.00687
646.89404,0.00772
644.83387,0.00779
642.77370,0.00751
640.71353,0.00737
638.65336,0.00643
636.59318,0.00440
634.53301,0.00333
632.47284,0.00425
630.41267,0.00556
628.35250,0.00578
626.29232,0.00476
624.23215,0.00407
622.17198,0.00514
620.11181,0.00635
618.05164,0.00627
615.99146,0.00596
613.93129,0.00646
611.87112,0.00649
609.81095,0.00532
607.75077,0.00383
605.69060,0.00262
603.63043,0.00163
601.57026,0.00054
599.51009,0.00000
