3996.73391,0.00018
3994.67373,0.00021
3992.61356,0.00036
3990.55339,0.00040
3988.49322,0.00019
3986.43305,0.00000
3984.37287,0.00000
3982.31270,0.00013
3980.25253,0.00032
3978.19236,0.00037
3976.13219,0.00022
3974.07201,0.00013
3972.01184,0.00034
3969.95167,0.00071
3967.89150,0.00092
3965.83133,0.00092
3963.77115,0.00086
3961.71098,0.00073
3959.65081,0.00059
3957.59064,0.00056
3955.53046,0.00052
3953.47029,0.00044
3951.41012,0.00049
3949.34995,0.00073
3947.28978,0.00091
3945.22960,0.00088
3943.16943,0.00085
3941.10926,0.00073
3939.04909,0.00054
3936.98892,0.00063
3934.92874,0.00092
3932.86857,0.00122
3930.80840,0.00161
3928.74823,0.00186
3926.68805,0.00182
3924.62788,0.00161
3922.56771,0.00133
3920.50754,0.00100
3918.44737,0.00094
3916.38719,0.00113
3914.32702,0.00124
3912.26685,0.00129
3910.20668,0.00137
3908.14651,0.00133
3906.08633,0.00128
3904.02616,0.00152
3901.96599,0.00183
3899.90582,0.00176
3897.84565,0.00146
3895.78547,0.00102
3893.72530,0.00069
3891.66513,0.00066
3889.60496,0.00062
3887.54478,0.00078
3885.48461,0.00162
3883.42444,0.00240
3881.36427,0.00242
3879.30410,0.00192
3877.24392,0.00117
3875.18375,0.00061
3873.12358,0.00073
3871.06341,0.00136
3869.00324,0.00184
3866.94306,0.00176
3864.88289,0.00137
3862.82272,0.00126
3860.76255,0.00148
3858.70237,0.00164
3856.64220,0.00157
3854.58203,0.00138
3852.52186,0.00140
3850.46169,0.00147
3848.40151,0.00143
3846.34134,0.00130
3844.28117,0.00119
3842.22100,0.00117
3840.16083,0.00125
3838.10065,0.00149
3836.04048,0.00178
3833.98031,0.00181
3831.92014,0.00160
3829.85997,0.00151
3827.79979,0.00173
3825.73962,0.00200
3823.67945,0.00196
3821.61928,0.00171
3819.55910,0.00140
3817.49893,0.00098
3815.43876,0.00077
3813.37859,0.00076
3811.31842,0.00061
3809.25824,0.00034
3807.19807,0.00040
3805.13790,0.00087
3803.07773,0.00142
3801.01756,0.00180
3798.95738,0.00177
3796.89721,0.00159
3794.83704,0.00159
3792.77687,0.00161
3790.71670,0.00147
3788.65652,0.00118
3786.59635,0.00098
3784.53618,0.00112
3782.47601,0.00138
3780.41583,0.00147
3778.35566,0.00148
3776.29549,0.00155
3774.23532,0.00160
3772.17515,0.00147
3770.11497,0.00128
3768.05480,0.00139
3765.99463,0.00160
3763.93446,0.00144
3761.87429,0.00106
3759.81411,0.00092
3757.75394,0.00109
3755.69377,0.00142
3753.63360,0.00178
3751.57342,0.00216
3749.51325,0.00259
3747.45308,0.00287
3745.39291,0.00291
3743.33274,0.00274
3741.27256,0.00254
3739.21239,0.00276
3737.15222,0.00345
3735.09205,0.00392
3733.03188,0.00344
3730.97170,0.00280
3728.91153,0.00285
3726.85136,0.00325
3724.79119,0.00318
3722.73102,0.00262
3720.67084,0.00228
3718.61067,0.00237
3716.55050,0.00244
3714.49033,0.00209
3712.43015,0.00172
3710.36998,0.00184
3708.30981,0.00206
3706.24964,0.00217
3704.18947,0.00231
3702.12929,0.00226
3700.06912,0.00191
3698.00895,0.00169
3695.94878,0.00188
3693.88861,0.00202
3691.82843,0.00182
3689.76826,0.00167
3687.70809,0.00180
3685.64792,0.00194
3683.58775,0.00183
3681.52757,0.00162
3679.46740,0.00152
3677.40723,0.00159
3675.34706,0.00188
3673.28688,0.00225
3671.22671,0.00278
3669.16654,0.00351
3667.10637,0.00369
3665.04620,0.00324
3662.98602,0.00274
3660.92585,0.00231
3658.86568,0.00207
3656.80551,0.00250
3654.74534,0.00334
3652.68516,0.00369
3650.62499,0.00378
3648.56482,0.00432
3646.50465,0.00470
3644.44447,0.00446
3642.38430,0.00390
3640.32413,0.00349
3638.26396,0.00358
3636.20379,0.00399
3634.14361,0.00418
3632.08344,0.00419
3630.02327,0.00459
3627.96310,0.00523
3625.90293,0.00525
3623.84275,0.00476
3621.78258,0.00443
3619.72241,0.00455
3617.66224,0.00498
3615.60207,0.00558
3613.54189,0.00629
3611.48172,0.00689
3609.42155,0.00721
3607.36138,0.00737
3605.30120,0.00746
3603.24103,0.00747
3601.18086,0.00726
3599.12069,0.00697
3597.06052,0.00696
3595.00034,0.00719
3592.94017,0.00734
3590.88000,0.00747
3588.81983,0.00798
3586.75966,0.00859
3584.69948,0.00865
3582.63931,0.00848
3580.57914,0.00839
3578.51897,0.00826
3576.45879,0.00805
3574.39862,0.00781
3572.33845,0.00771
3570.27828,0.00804
3568.21811,0.00886
3566.15793,0.00958
3564.09776,0.00973
3562.03759,0.00963
3559.97742,0.00961
3557.91725,0.00968
3555.85707,0.00979
3553.79690,0.00994
3551.73673,0.01012
3549.67656,0.01043
3547.61639,0.01100
3545.55621,0.01154
3543.49604,0.01150
3541.43587,0.01102
3539.37570,0.01083
3537.31552,0.01107
3535.25535,0.01125
3533.19518,0.01117
3531.13501,0.01123
3529.07484,0.01170
3527.01466,0.01239
3524.95449,0.01276
3522.89432,0.01243
3520.83415,0.01181
3518.77398,0.01147
3516.71380,0.01145
3514.65363,0.01157
3512.59346,0.01187
3510.53329,0.01233
3508.47312,0.01270
3506.41294,0.01282
3504.35277,0.01299
3502.29260,0.01348
3500.23243,0.01370
3498.17225,0.01331
3496.11208,0.01316
3494.05191,0.01357
3491.99174,0.01379
3489.93157,0.01373
3487.87139,0.01387
3485.81122,0.01398
3483.75105,0.01395
3481.69088,0.01429
3479.63071,0.01490
3477.57053,0.01518
3475.51036,0.01501
3473.45019,0.01464
3471.39002,0.01452
3469.32984,0.01480
3467.26967,0.01516
3465.20950,0.01555
3463.14933,0.01604
3461.08916,0.01620
3459.02898,0.01604
3456.96881,0.01600
3454.90864,0.01604
3452.84847,0.01594
3450.78830,0.01573
3448.72812,0.01560
3446.66795,0.01565
3444.60778,0.01566
3442.54761,0.01562
3440.48744,0.01584
3438.42726,0.01633
3436.36709,0.01677
3434.30692,0.01700
3432.24675,0.01730
3430.18657,0.01775
3428.12640,0.01789
3426.06623,0.01767
3424.00606,0.01755
3421.94589,0.01780
3419.88571,0.01817
3417.82554,0.01831
3415.76537,0.01813
3413.70520,0.01774
3411.64503,0.01746
3409.58485,0.01761
3407.52468,0.01798
3405.46451,0.01837
3403.40434,0.01865
3401.34416,0.01838
3399.28399,0.01806
3397.22382,0.01792
3395.16365,0.01803
3393.10348,0.01828
3391.04330,0.01848
3388.98313,0.01837
3386.92296,0.01821
3384.86279,0.01847
3382.80262,0.01874
3380.74244,0.01887
3378.68227,0.01919
3376.62210,0.01953
3374.56193,0.01950
3372.50176,0.01917
3370.44158,0.01886
3368.38141,0.01881
3366.32124,0.01908
3364.26107,0.01939
3362.20089,0.01954
3360.14072,0.01950
3358.08055,0.01931
3356.02038,0.01921
3353.96021,0.01928
3351.90003,0.01948
3349.83986,0.01982
3347.77969,0.02007
3345.71952,0.02009
3343.65935,0.02008
3341.59917,0.02005
3339.53900,0.01987
3337.47883,0.01958
3335.41866,0.01928
3333.35849,0.01916
3331.29831,0.01931
3329.23814,0.01955
3327.17797,0.01979
3325.11780,0.02010
3323.05762,0.02025
3320.99745,0.02002
3318.93728,0.01982
3316.87711,0.01999
3314.81694,0.02029
3312.75676,0.02044
3310.69659,0.02036
3308.63642,0.02019
3306.57625,0.02019
3304.51608,0.02040
3302.45590,0.02063
3300.39573,0.02072
3298.33556,0.02050
3296.27539,0.02014
3294.21521,0.02012
3292.15504,0.02033
3290.09487,0.02045
3288.03470,0.02058
3285.97453,0.02058
3283.91435,0.02031
3281.85418,0.02017
3279.79401,0.02026
3277.73384,0.02024
3275.67367,0.02007
3273.61349,0.01996
3271.55332,0.02008
3269.49315,0.02028
3267.43298,0.02018
3265.37281,0.02005
3263.31263,0.02024
3261.25246,0.02033
3259.19229,0.02019
3257.13212,0.02035
3255.07194,0.02059
3253.01177,0.02035
3250.95160,0.02002
3248.89143,0.01995
3246.83126,0.01991
3244.77108,0.01998
3242.71091,0.02027
3240.65074,0.02049
3238.59057,0.02051
3236.53040,0.02052
3234.47022,0.02052
3232.41005,0.02040
3230.34988,0.02030
3228.28971,0.02035
3226.22954,0.02041
3224.16936,0.02035
3222.10919,0.02017
3220.04902,0.02009
3217.98885,0.02024
3215.92867,0.02056
3213.86850,0.02069
3211.80833,0.02037
3209.74816,0.02011
3207.68799,0.02013
3205.62781,0.02002
3203.56764,0.01990
3201.50747,0.02001
3199.44730,0.02004
3197.38713,0.01972
3195.32695,0.01942
3193.26678,0.01949
3191.20661,0.01963
3189.14644,0.01955
3187.08626,0.01936
3185.02609,0.01934
3182.96592,0.01938
3180.90575,0.01939
3178.84558,0.01949
3176.78540,0.01949
3174.72523,0.01933
3172.66506,0.01936
3170.60489,0.01964
3168.54472,0.01981
3166.48454,0.01988
3164.42437,0.01984
3162.36420,0.01952
3160.30403,0.01926
3158.24386,0.01925
3156.18368,0.01911
3154.12351,0.01874
3152.06334,0.01858
3150.00317,0.01872
3147.94299,0.01877
3145.88282,0.01865
3143.82265,0.01855
3141.76248,0.01845
3139.70231,0.01824
3137.64213,0.01801
3135.58196,0.01804
3133.52179,0.01842
3131.46162,0.01864
3129.40145,0.01833
3127.34127,0.01793
3125.28110,0.01800
3123.22093,0.01827
3121.16076,0.01824
3119.10058,0.01812
3117.04041,0.01816
3114.98024,0.01806
3112.92007,0.01772
3110.85990,0.01753
3108.79972,0.01762
3106.73955,0.01769
3104.67938,0.01743
3102.61921,0.01716
3100.55904,0.01733
3098.49886,0.01765
3096.43869,0.01762
3094.37852,0.01731
3092.31835,0.01713
3090.25818,0.01711
3088.19800,0.01707
3086.13783,0.01708
3084.07766,0.01723
3082.01749,0.01735
3079.95731,0.01729
3077.89714,0.01707
3075.83697,0.01679
3073.77680,0.01652
3071.71663,0.01632
3069.65645,0.01622
3067.59628,0.01630
3065.53611,0.01649
3063.47594,0.01634
3061.41577,0.01602
3059.35559,0.01608
3057.29542,0.01632
3055.23525,0.01635
3053.17508,0.01638
3051.11491,0.01641
3049.05473,0.01633
3046.99456,0.01627
3044.93439,0.01605
3042.87422,0.01546
3040.81404,0.01504
3038.75387,0.01528
3036.69370,0.01568
3034.63353,0.01570
3032.57336,0.01556
3030.51318,0.01556
3028.45301,0.01546
3026.39284,0.01514
3024.33267,0.01493
3022.27250,0.01496
3020.21232,0.01493
3018.15215,0.01478
3016.09198,0.01495
3014.03181,0.01530
3011.97163,0.01550
3009.91146,0.01558
3007.85129,0.01551
3005.79112,0.01523
3003.73095,0.01489
3001.67077,0.01470
2999.61060,0.01478
2997.55043,0.01508
2995.49026,0.01539
2993.43009,0.01553
2991.36991,0.01549
2989.30974,0.01532
2987.24957,0.01524
2985.18940,0.01531
2983.12923,0.01529
2981.06905,0.01528
2979.00888,0.01536
2976.94871,0.01532
2974.88854,0.01530
2972.82836,0.01534
2970.76819,0.01512
2968.70802,0.01493
2966.64785,0.01514
2964.58768,0.01539
2962.52750,0.01535
2960.46733,0.01523
2958.40716,0.01527
2956.34699,0.01532
2954.28682,0.01529
2952.22664,0.01534
2950.16647,0.01535
2948.10630,0.01510
2946.04613,0.01486
2943.98596,0.01478
2941.92578,0.01473
2939.86561,0.01476
2937.80544,0.01492
2935.74527,0.01495
2933.68509,0.01482
2931.62492,0.01485
2929.56475,0.01504
2927.50458,0.01503
2925.44441,0.01491
2923.38423,0.01483
2921.32406,0.01461
2919.26389,0.01444
2917.20372,0.01468
2915.14355,0.01496
2913.08337,0.01488
2911.02320,0.01466
2908.96303,0.01450
2906.90286,0.01432
2904.84268,0.01421
2902.78251,0.01421
2900.72234,0.01399
2898.66217,0.01360
2896.60200,0.01351
2894.54182,0.01355
2892.48165,0.01339
2890.42148,0.01325
2888.36131,0.01332
2886.30114,0.01353
2884.24096,0.01366
2882.18079,0.01356
2880.12062,0.01332
2878.06045,0.01309
2876.00028,0.01294
2873.94010,0.01287
2871.87993,0.01288
2869.81976,0.01284
2867.75959,0.01266
2865.69941,0.01252
2863.63924,0.01247
2861.57907,0.01242
2859.51890,0.01239
2857.45873,0.01227
2855.39855,0.01202
2853.33838,0.01179
2851.27821,0.01168
2849.21804,0.01153
2847.15787,0.01131
2845.09769,0.01115
2843.03752,0.01111
2840.97735,0.01117
2838.91718,0.01114
2836.85700,0.01105
2834.79683,0.01097
2832.73666,0.01071
2830.67649,0.01034
2828.61632,0.01018
2826.55614,0.01029
2824.49597,0.01041
2822.43580,0.01037
2820.37563,0.01022
2818.31546,0.01012
2816.25528,0.01019
2814.19511,0.01027
2812.13494,0.01027
2810.07477,0.01026
2808.01460,0.01020
2805.95442,0.01007
2803.89425,0.00996
2801.83408,0.00997
2799.77391,0.00998
2797.71373,0.00984
2795.65356,0.00956
2793.59339,0.00929
2791.53322,0.00922
2789.47305,0.00932
2787.41287,0.00939
2785.35270,0.00938
2783.29253,0.00944
2781.23236,0.00953
2779.17219,0.00951
2777.11201,0.00950
2775.05184,0.00946
2772.99167,0.00931
2770.93150,0.00910
2768.87133,0.00901
2766.81115,0.00906
2764.75098,0.00914
2762.69081,0.00923
2760.63064,0.00928
2758.57046,0.00932
2756.51029,0.00935
2754.45012,0.00920
2752.38995,0.00899
2750.32978,0.00901
2748.26960,0.00917
2746.20943,0.00927
2744.14926,0.00928
2742.08909,0.00910
2740.02892,0.00874
2737.96874,0.00853
2735.90857,0.00847
2733.84840,0.00823
2731.78823,0.00805
2729.72805,0.00822
2727.66788,0.00856
2725.60771,0.00866
2723.54754,0.00850
2721.48737,0.00828
2719.42719,0.00816
2717.36702,0.00808
2715.30685,0.00800
2713.24668,0.00816
2711.18651,0.00856
2709.12633,0.00883
2707.06616,0.00872
2705.00599,0.00856
2702.94582,0.00839
2700.88565,0.00810
2698.82547,0.00794
2696.76530,0.00794
2694.70513,0.00793
2692.64496,0.00795
2690.58478,0.00795
2688.52461,0.00789
2686.46444,0.00785
2684.40427,0.00769
2682.34410,0.00748
2680.28392,0.00754
2678.22375,0.00792
2676.16358,0.00821
2674.10341,0.00815
2672.04324,0.00783
2669.98306,0.00750
2667.92289,0.00741
2665.86272,0.00754
2663.80255,0.00763
2661.74238,0.00762
2659.68220,0.00751
2657.62203,0.00738
2655.56186,0.00738
2653.50169,0.00739
2651.44151,0.00733
2649.38134,0.00734
2647.32117,0.00734
2645.26100,0.00731
2643.20083,0.00741
2641.14065,0.00738
2639.08048,0.00715
2637.02031,0.00710
2634.96014,0.00734
2632.89997,0.00757
2630.83979,0.00745
2628.77962,0.00709
2626.71945,0.00677
2624.65928,0.00658
2622.59910,0.00664
2620.53893,0.00681
2618.47876,0.00674
2616.41859,0.00653
2614.35842,0.00652
2612.29824,0.00673
2610.23807,0.00703
2608.17790,0.00711
2606.11773,0.00693
2604.05756,0.00680
2601.99738,0.00681
2599.93721,0.00693
2597.87704,0.00690
2595.81687,0.00672
2593.75670,0.00674
2591.69652,0.00695
2589.63635,0.00704
2587.57618,0.00704
2585.51601,0.00699
2583.45583,0.00680
2581.39566,0.00661
2579.33549,0.00653
2577.27532,0.00648
2575.21515,0.00632
2573.15497,0.00616
2571.09480,0.00616
2569.03463,0.00611
2566.97446,0.00590
2564.91429,0.00571
2562.85411,0.00589
2560.79394,0.00632
2558.73377,0.00636
2556.67360,0.00624
2554.61342,0.00644
2552.55325,0.00662
2550.49308,0.00633
2548.43291,0.00592
2546.37274,0.00594
2544.31256,0.00620
2542.25239,0.00650
2540.19222,0.00688
2538.13205,0.00711
2536.07188,0.00699
2534.01170,0.00684
2531.95153,0.00685
2529.89136,0.00669
2527.83119,0.00626
2525.77102,0.00599
2523.71084,0.00611
2521.65067,0.00621
2519.59050,0.00612
2517.53033,0.00601
2515.47015,0.00578
2513.40998,0.00570
2511.34981,0.00611
2509.28964,0.00664
2507.22947,0.00705
2505.16929,0.00726
2503.10912,0.00697
2501.04895,0.00661
2498.98878,0.00678
2496.92861,0.00693
2494.86843,0.00659
2492.80826,0.00625
2490.74809,0.00640
2488.68792,0.00673
2486.62775,0.00678
2484.56757,0.00686
2482.50740,0.00717
2480.44723,0.00744
2478.38706,0.00749
2476.32688,0.00731
2474.26671,0.00698
2472.20654,0.00677
2470.14637,0.00659
2468.08620,0.00637
2466.02602,0.00656
2463.96585,0.00712
2461.90568,0.00750
2459.84551,0.00740
2457.78534,0.00692
2455.72516,0.00644
2453.66499,0.00629
2451.60482,0.00643
2449.54465,0.00673
2447.48447,0.00702
2445.42430,0.00719
2443.36413,0.00725
2441.30396,0.00745
2439.24379,0.00777
2437.18361,0.00778
2435.12344,0.00733
2433.06327,0.00684
2431.00310,0.00680
2428.94293,0.00711
2426.88275,0.00722
2424.82258,0.00708
2422.76241,0.00707
2420.70224,0.00699
2418.64207,0.00668
2416.58189,0.00679
2414.52172,0.00743
2412.46155,0.00803
2410.40138,0.00805
2408.34120,0.00735
2406.28103,0.00665
2404.22086,0.00652
2402.16069,0.00667
2400.10052,0.00692
2398.04034,0.00632
2395.98017,0.00623
2393.92000,0.00646
2391.85983,0.00679
2389.79966,0.00732
2387.73948,0.00803
2385.67931,0.00872
2383.61914,0.00923
2381.55897,0.00960
2379.49880,0.01019
2377.43862,0.01106
2375.37845,0.01178
2373.31828,0.01175
2371.25811,0.01102
2369.19793,0.00971
2367.13776,0.00802
2365.07759,0.00647
2363.01742,0.00507
2360.95725,0.00344
2358.89707,0.00400
2356.83690,0.00721
2354.77673,0.01090
2352.71656,0.01266
2350.65639,0.01231
2348.59621,0.01195
2346.53604,0.01291
2344.47587,0.01228
2342.41570,0.01154
2340.35552,0.01160
2338.29535,0.01149
2336.23518,0.01111
2334.17501,0.01108
2332.11484,0.01150
2330.05466,0.01185
2327.99449,0.01234
2325.93432,0.01268
2323.87415,0.01271
2321.81398,0.01191
2319.75380,0.01135
2317.69363,0.01098
2315.63346,0.01071
2313.57329,0.01048
2311.51312,0.01050
2309.45294,0.01074
2307.39277,0.01080
2305.33260,0.01058
2303.27243,0.00997
2301.21225,0.00923
2299.15208,0.00893
2297.09191,0.00921
2295.03174,0.00953
2292.97157,0.00957
2290.91139,0.00967
2288.85122,0.00976
2286.79105,0.00951
2284.73088,0.00885
2282.67071,0.00789
2280.61053,0.00703
2278.55036,0.00669
2276.49019,0.00691
2274.43002,0.00744
2272.36984,0.00793
2270.30967,0.00799
2268.24950,0.00762
2266.18933,0.00722
2264.12916,0.00725
2262.06898,0.00761
2260.00881,0.00779
2257.94864,0.00772
2255.88847,0.00762
2253.82830,0.00739
2251.76812,0.00696
2249.70795,0.00659
2247.64778,0.00649
2245.58761,0.00602
2243.52744,0.00553
2241.46726,0.00561
2239.40709,0.00627
2237.34692,0.00687
2235.28675,0.00714
2233.22657,0.00724
2231.16640,0.00708
2229.10623,0.00677
2227.04606,0.00641
2224.98589,0.00566
2222.92571,0.00472
2220.86554,0.00456
2218.80537,0.00527
2216.74520,0.00587
2214.68503,0.00609
2212.62485,0.00612
2210.56468,0.00556
2208.50451,0.00524
2206.44434,0.00603
2204.38417,0.00688
2202.32399,0.00661
2200.26382,0.00585
2198.20365,0.00570
2196.14348,0.00631
2194.08330,0.00708
2192.02313,0.00713
2189.96296,0.00685
2187.90279,0.00686
2185.84262,0.00688
2183.78244,0.00706
2181.72227,0.00709
2179.66210,0.00633
2177.60193,0.00538
2175.54176,0.00488
2173.48158,0.00504
2171.42141,0.00587
2169.36124,0.00658
2167.30107,0.00670
2165.24089,0.00670
2163.18072,0.00592
2161.12055,0.00356
2159.06038,0.00113
2157.00021,0.00000
2154.94003,0.00066
2152.87986,0.00255
2150.81969,0.00371
2148.75952,0.00414
2146.69935,0.00452
2144.63917,0.00464
2142.57900,0.00436
2140.51883,0.00437
2138.45866,0.00515
2136.39849,0.00541
2134.33831,0.00492
2132.27814,0.00502
2130.21797,0.00569
2128.15780,0.00631
2126.09762,0.00645
2124.03745,0.00596
2121.97728,0.00563
2119.91711,0.00585
2117.85694,0.00585
2115.79676,0.00558
2113.73659,0.00589
2111.67642,0.00660
2109.61625,0.00687
2107.55608,0.00633
2105.49590,0.00565
2103.43573,0.00554
2101.37556,0.00585
2099.31539,0.00589
2097.25521,0.00543
2095.19504,0.00523
2093.13487,0.00583
2091.07470,0.00640
2089.01453,0.00654
2086.95435,0.00615
2084.89418,0.00551
2082.83401,0.00530
2080.77384,0.00520
2078.71367,0.00494
2076.65349,0.00498
2074.59332,0.00480
2072.53315,0.00415
2070.47298,0.00386
2068.41281,0.00390
2066.35263,0.00418
2064.29246,0.00481
2062.23229,0.00519
2060.17212,0.00566
2058.11194,0.00646
2056.05177,0.00667
2053.99160,0.00608
2051.93143,0.00518
2049.87126,0.00440
2047.81108,0.00438
2045.75091,0.00474
2043.69074,0.00434
2041.63057,0.00367
2039.57040,0.00415
2037.51022,0.00498
2035.45005,0.00491
2033.38988,0.00471
2031.32971,0.00404
2029.26954,0.00316
2027.20936,0.00389
2025.14919,0.00523
2023.08902,0.00518
2021.02885,0.00364
2018.96867,0.00200
2016.90850,0.00136
2014.84833,0.00090
2012.78816,0.00000
2010.72799,0.00030
2008.66781,0.00249
2006.60764,0.00401
2004.54747,0.00360
2002.48730,0.00342
2000.42713,0.00441
1998.36695,0.00544
1996.30678,0.00560
1994.24661,0.00457
1992.18644,0.00380
1990.12626,0.00489
1988.06609,0.00659
1986.00592,0.00684
1983.94575,0.00552
1981.88558,0.00380
1979.82540,0.00306
1977.76523,0.00403
1975.70506,0.00457
1973.64489,0.00308
1971.58472,0.00217
1969.52454,0.00359
1967.46437,0.00490
1965.40420,0.00460
1963.34403,0.00431
1961.28386,0.00464
1959.22368,0.00504
1957.16351,0.00498
1955.10334,0.00444
1953.04317,0.00397
1950.98299,0.00377
1948.92282,0.00432
1946.86265,0.00519
1944.80248,0.00509
1942.74231,0.00447
1940.68213,0.00443
1938.62196,0.00465
1936.56179,0.00464
1934.50162,0.00458
1932.44145,0.00445
1930.38127,0.00430
1928.32110,0.00458
1926.26093,0.00479
1924.20076,0.00438
1922.14059,0.00376
1920.08041,0.00350
1918.02024,0.00401
1915.96007,0.00498
1913.89990,0.00510
1911.83972,0.00418
1909.77955,0.00330
1907.71938,0.00307
1905.65921,0.00352
1903.59904,0.00435
1901.53886,0.00487
1899.47869,0.00498
1897.41852,0.00499
1895.35835,0.00487
1893.29818,0.00463
1891.23800,0.00447
1889.17783,0.00461
1887.11766,0.00486
1885.05749,0.00489
1882.99731,0.00463
1880.93714,0.00417
1878.87697,0.00375
1876.81680,0.00362
1874.75663,0.00373
1872.69645,0.00378
1870.63628,0.00388
1868.57611,0.00429
1866.51594,0.00459
1864.45577,0.00447
1862.39559,0.00418
1860.33542,0.00398
1858.27525,0.00407
1856.21508,0.00432
1854.15491,0.00426
1852.09473,0.00382
1850.03456,0.00341
1847.97439,0.00325
1845.91422,0.00336
1843.85404,0.00369
1841.79387,0.00397
1839.73370,0.00415
1837.67353,0.00432
1835.61336,0.00444
1833.55318,0.00444
1831.49301,0.00434
1829.43284,0.00409
1827.37267,0.00381
1825.31250,0.00377
1823.25232,0.00383
1821.19215,0.00371
1819.13198,0.00359
1817.07181,0.00355
1815.01163,0.00352
1812.95146,0.00360
1810.89129,0.00374
1808.83112,0.00382
1806.77095,0.00394
1804.71077,0.00420
1802.65060,0.00457
1800.59043,0.00492
1798.53026,0.00513
1796.47009,0.00506
1794.40991,0.00484
1792.34974,0.00487
1790.28957,0.00504
1788.22940,0.00492
1786.16923,0.00464
1784.10905,0.00452
1782.04888,0.00461
1779.98871,0.00474
1777.92854,0.00472
1775.86836,0.00452
1773.80819,0.00438
1771.74802,0.00455
1769.68785,0.00494
1767.62768,0.00512
1765.56750,0.00497
1763.50733,0.00484
1761.44716,0.00499
1759.38699,0.00530
1757.32682,0.00558
1755.26664,0.00584
1753.20647,0.00609
1751.14630,0.00630
1749.08613,0.00656
1747.02596,0.00690
1744.96578,0.00704
1742.90561,0.00672
1740.84544,0.00613
1738.78527,0.00578
1736.72509,0.00587
1734.66492,0.00653
1732.60475,0.00730
1730.54458,0.00728
1728.48441,0.00675
1726.42423,0.00637
1724.36406,0.00631
1722.30389,0.00635
1720.24372,0.00623
1718.18355,0.00609
1716.12337,0.00630
1714.06320,0.00665
1712.00303,0.00688
1709.94286,0.00684
1707.88268,0.00673
1705.82251,0.00698
1703.76234,0.00737
1701.70217,0.00740
1699.64200,0.00748
1697.58182,0.00797
1695.52165,0.00842
1693.46148,0.00872
1691.40131,0.00911
1689.34114,0.00951
1687.28096,0.00952
1685.22079,0.00944
1683.16062,0.01011
1681.10045,0.01090
1679.04028,0.01114
1676.98010,0.01124
1674.91993,0.01167
1672.85976,0.01214
1670.79959,0.01244
1668.73941,0.01272
1666.67924,0.01291
1664.61907,0.01302
1662.55890,0.01341
1660.49873,0.01405
1658.43855,0.01448
1656.37838,0.01449
1654.31821,0.01431
1652.25804,0.01433
1650.19787,0.01442
1648.13769,0.01464
1646.07752,0.01493
1644.01735,0.01483
1641.95718,0.01442
1639.89701,0.01405
1637.83683,0.01375
1635.77666,0.01352
1633.71649,0.01335
1631.65632,0.01320
1629.59614,0.01299
1627.53597,0.01271
1625.47580,0.01233
1623.41563,0.01182
1621.35546,0.01137
1619.29528,0.01090
1617.23511,0.01037
1615.17494,0.01026
1613.11477,0.01057
1611.05460,0.01075
1608.99442,0.01060
1606.93425,0.01033
1604.87408,0.01006
1602.81391,0.00982
1600.75373,0.00967
1598.69356,0.00963
1596.63339,0.00963
1594.57322,0.00951
1592.51305,0.00929
1590.45287,0.00904
1588.39270,0.00878
1586.33253,0.00853
1584.27236,0.00842
1582.21219,0.00837
1580.15201,0.00826
1578.09184,0.00811
1576.03167,0.00807
1573.97150,0.00806
1571.91133,0.00786
1569.85115,0.00764
1567.79098,0.00778
1565.73081,0.00798
1563.67064,0.00777
1561.61046,0.00715
1559.55029,0.00700
1557.49012,0.00800
1555.42995,0.00879
1553.36978,0.00888
1551.30960,0.00866
1549.24943,0.00837
1547.18926,0.00821
1545.12909,0.00837
1543.06892,0.00856
1541.00874,0.00830
1538.94857,0.00778
1536.88840,0.00750
1534.82823,0.00741
1532.76805,0.00745
1530.70788,0.00755
1528.64771,0.00755
1526.58754,0.00752
1524.52737,0.00748
1522.46719,0.00736
1520.40702,0.00723
1518.34685,0.00713
1516.28668,0.00702
1514.22651,0.00686
1512.16633,0.00689
1510.10616,0.00717
1508.04599,0.00712
1505.98582,0.00629
1503.92565,0.00557
1501.86547,0.00534
1499.80530,0.00512
1497.74513,0.00477
1495.68496,0.00445
1493.62478,0.00427
1491.56461,0.00438
1489.50444,0.00467
1487.44427,0.00464
1485.38410,0.00432
1483.32392,0.00414
1481.26375,0.00416
1479.20358,0.00420
1477.14341,0.00434
1475.08324,0.00464
1473.02306,0.00489
1470.96289,0.00490
1468.90272,0.00475
1466.84255,0.00463
1464.78238,0.00470
1462.72220,0.00496
1460.66203,0.00519
1458.60186,0.00536
1456.54169,0.00536
1454.48151,0.00507
1452.42134,0.00485
1450.36117,0.00468
1448.30100,0.00455
1446.24083,0.00455
1444.18065,0.00460
1442.12048,0.00456
1440.06031,0.00453
1438.00014,0.00466
1435.93997,0.00489
1433.87979,0.00496
1431.81962,0.00502
1429.75945,0.00516
1427.69928,0.00524
1425.63910,0.00533
1423.57893,0.00557
1421.51876,0.00593
1419.45859,0.00628
1417.39842,0.00625
1415.33824,0.00574
1413.27807,0.00538
1411.21790,0.00544
1409.15773,0.00560
1407.09756,0.00573
1405.03738,0.00576
1402.97721,0.00562
1400.91704,0.00557
1398.85687,0.00581
1396.79670,0.00596
1394.73652,0.00571
1392.67635,0.00533
1390.61618,0.00522
1388.55601,0.00533
1386.49583,0.00522
1384.43566,0.00486
1382.37549,0.00459
1380.31532,0.00450
1378.25515,0.00449
1376.19497,0.00450
1374.13480,0.00446
1372.07463,0.00432
1370.01446,0.00421
1367.95429,0.00424
1365.89411,0.00437
1363.83394,0.00445
1361.77377,0.00427
1359.71360,0.00389
1357.65343,0.00359
1355.59325,0.00343
1353.53308,0.00326
1351.47291,0.00297
1349.41274,0.00274
1347.35256,0.00273
1345.29239,0.00278
1343.23222,0.00288
1341.17205,0.00323
1339.11188,0.00367
1337.05170,0.00361
1334.99153,0.00308
1332.93136,0.00266
1330.87119,0.00265
1328.81102,0.00281
1326.75084,0.00290
1324.69067,0.00294
1322.63050,0.00305
1320.57033,0.00318
1318.51015,0.00321
1316.44998,0.00314
1314.38981,0.00295
1312.32964,0.00273
1310.26947,0.00267
1308.20929,0.00277
1306.14912,0.00284
1304.08895,0.00280
1302.02878,0.00274
1299.96861,0.00269
1297.90843,0.00268
1295.84826,0.00273
1293.78809,0.00291
1291.72792,0.00321
1289.66775,0.00336
1287.60757,0.00329
1285.54740,0.00315
1283.48723,0.00304
1281.42706,0.00299
1279.36688,0.00299
1277.30671,0.00295
1275.24654,0.00292
1273.18637,0.00300
1271.12620,0.00317
1269.06602,0.00326
1267.00585,0.00316
1264.94568,0.00308
1262.88551,0.00318
1260.82534,0.00335
1258.76516,0.00334
1256.70499,0.00316
1254.64482,0.00308
1252.58465,0.00320
1250.52447,0.00328
1248.46430,0.00324
1246.40413,0.00323
1244.34396,0.00329
1242.28379,0.00325
1240.22361,0.00301
1238.16344,0.00269
1236.10327,0.00256
1234.04310,0.00257
1231.98293,0.00256
1229.92275,0.00254
1227.86258,0.00235
1225.80241,0.00191
1223.74224,0.00155
1221.68207,0.00152
1219.62189,0.00162
1217.56172,0.00155
1215.50155,0.00133
1213.44138,0.00111
1211.38120,0.00095
1209.32103,0.00083
1207.26086,0.00072
1205.20069,0.00060
1203.14052,0.00034
1201.08034,0.00004
1199.02017,0.00000
1196.96000,0.00012
1194.89983,0.00014
1192.83966,0.00012
1190.77948,0.00019
1188.71931,0.00019
1186.65914,0.00008
1184.59897,0.00010
1182.53880,0.00036
1180.47862,0.00073
1178.41845,0.00099
1176.35828,0.00110
1174.29811,0.00103
1172.23793,0.00092
1170.17776,0.00106
1168.11759,0.00145
1166.05742,0.00181
1163.99725,0.00204
1161.93707,0.00221
1159.87690,0.00235
1157.81673,0.00266
1155.75656,0.00318
1153.69639,0.00372
1151.63621,0.00415
1149.57604,0.00451
1147.51587,0.00488
1145.45570,0.00526
1143.39552,0.00560
1141.33535,0.00603
1139.27518,0.00664
1137.21501,0.00725
1135.15484,0.00775
1133.09466,0.00830
1131.03449,0.00891
1128.97432,0.00948
1126.91415,0.00995
1124.85398,0.01042
1122.79380,0.01097
1120.73363,0.01172
1118.67346,0.01275
1116.61329,0.01361
1114.55312,0.01405
1112.49294,0.01453
1110.43277,0.01529
1108.37260,0.01612
1106.31243,0.01677
1104.25225,0.01722
1102.19208,0.01763
1100.13191,0.01801
1098.07174,0.01842
1096.01157,0.01903
1093.95139,0.01963
1091.89122,0.02012
1089.83105,0.02072
1087.77088,0.02120
1085.71071,0.02152
1083.65053,0.02195
1081.59036,0.02246
1079.53019,0.02295
1077.47002,0.02342
1075.40985,0.02368
1073.34967,0.02356
1071.28950,0.02346
1069.22933,0.02376
1067.16916,0.02406
1065.10898,0.02395
1063.04881,0.02349
1060.98864,0.02312
1058.92847,0.02318
1056.86830,0.02325
1054.80812,0.02285
1052.74795,0.02230
1050.68778,0.02181
1048.62761,0.02119
1046.56744,0.02048
1044.50726,0.01979
1042.44709,0.01902
1040.38692,0.01817
1038.32675,0.01733
1036.26657,0.01663
1034.20640,0.01594
1032.14623,0.01500
1030.08606,0.01403
1028.02589,0.01346
1025.96571,0.01305
1023.90554,0.01237
1021.84537,0.01165
1019.78520,0.01120
1017.72503,0.01101
1015.66485,0.01097
1013.60468,0.01083
1011.54451,0.01046
1009.48434,0.01005
1007.42417,0.00992
1005.36399,0.01017
1003.30382,0.01051
1001.24365,0.01073
999.18348,0.01084
997.12330,0.01094
995.06313,0.01129
993.00296,0.01205
990.94279,0.01275
988.88262,0.01300
986.82244,0.01301
984.76227,0.01298
982.70210,0.01301
980.64193,0.01318
978.58176,0.01308
976.52158,0.01254
974.46141,0.01193
972.40124,0.01167
970.34107,0.01173
968.28089,0.01146
966.22072,0.01066
964.16055,0.00995
962.10038,0.00952
960.04021,0.00905
957.98003,0.00844
955.91986,0.00783
953.85969,0.00715
951.79952,0.00627
949.73935,0.00556
947.67917,0.00523
945.61900,0.00499
943.55883,0.00452
941.49866,0.00376
939.43849,0.00313
937.37831,0.00279
935.31814,0.00250
933.25797,0.00227
931.19780,0.00197
929.13762,0.00149
927.07745,0.00103
925.01728,0.00094
922.95711,0.00123
920.89694,0.00135
918.83676,0.00109
916.77659,0.00067
914.71642,0.00049
912.65625,0.00059
910.59608,0.00058
908.53590,0.00036
906.47573,0.00035
904.41556,0.00061
902.35539,0.00082
900.29522,0.00087
898.23504,0.00076
896.17487,0.00067
894.11470,0.00087
892.05453,0.00124
889.99435,0.00172
887.93418,0.00225
885.87401,0.00254
883.81384,0.00267
881.75367,0.00290
879.69349,0.00313
877.63332,0.00315
875.57315,0.00310
873.51298,0.00318
871.45281,0.00350
869.39263,0.00410
867.33246,0.00429
865.27229,0.00393
863.21212,0.00395
861.15194,0.00448
859.09177,0.00499
857.03160,0.00532
854.97143,0.00534
852.91126,0.00511
850.85108,0.00476
848.79091,0.00425
846.73074,0.00396
844.67057,0.00383
842.61040,0.00358
840.55022,0.00360
838.49005,0.00382
836.42988,0.00383
834.36971,0.00346
832.30954,0.00318
830.24936,0.00352
828.18919,0.00347
826.12902,0.00282
824.06885,0.00266
822.00867,0.00271
819.94850,0.00237
817.88833,0.00207
815.82816,0.00191
813.76799,0.00177
811.70781,0.00197
809.64764,0.00226
807.58747,0.00201
805.52730,0.00185
803.46713,0.00208
801.40695,0.00202
799.34678,0.00158
797.28661,0.00107
795.22644,0.00069
793.16627,0.00043
791.10609,0.00045
789.04592,0.00087
786.98575,0.00133
784.92558,0.00132
782.86540,0.00095
780.80523,0.00064
778.74506,0.00046
776.68489,0.00035
774.62472,0.00016
772.56454,0.00022
770.50437,0.00066
768.44420,0.00098
766.38403,0.00122
764.32386,0.00135
762.26368,0.00112
760.20351,0.00070
758.14334,0.00056
756.08317,0.00054
754.02299,0.00022
751.96282,0.00000
749.90265,-0.00002
747.84248,0.00014
745.78231,0.00072
743.72213,0.00141
741.66196,0.00173
739.60179,0.00155
737.54162,0.00101
735.48145,0.00038
733.42127,-0.00004
731.36110,0.00010
729.30093,0.00080
727.24076,0.00148
725.18059,0.00178
723.12041,0.00204
721.06024,0.00178
719.00007,0.00146
716.93990,0.00109
714.87972,0.00065
712.81955,0.00074
710.75938,0.00131
708.69921,0.00189
706.63904,0.00224
704.57886,0.00238
702.51869,0.00229
700.45852,0.00211
698.39835,0.00227
696.33818,0.00273
694.27800,0.00293
692.21783,0.00240
690.15766,0.00143
688.09749,0.00069
686.03731,0.00020
683.97714,0.00000
681.91697,-0.00001
679.85680,-0.00008
677.79663,0.00016
675.73645,0.00084
673.67628,0.00084
671.61611,-0.00027
669.55594,0.00106
667.49577,0.00375
665.43559,0.00092
663.37542,0.00166
661.31525,0.00256
659.25508,0.00201
657.19491,0.00119
655.13473,0.00090
653.07456,0.00075
651.01439,0.00029
648.95422,0.00000
646.89404,0.00039
644.83387,0.00155
642.77370,0.00265
640.71353,0.00260
638.65336,0.00144
636.59318,0.00088
634.53301,0.00163
632.47284,0.00205
630.41267,0.00127
628.35250,0.00073
626.29232,0.00082
624.23215,0.00006
622.17198,-0.00081
620.11181,-0.00050
618.05164,-0.00006
615.99146,-0.00108
613.93129,-0.00101
611.87112,0.00167
609.81095,0.00319
607.75077,0.00147
605.69060,-0.00104
603.63043,-0.00201
601.57026,-0.00192
599.51009,0.00000
