3996.73391,0.00000
3994.67373,0.00018
3992.61356,0.00076
3990.55339,0.00097
3988.49322,0.00064
3986.43305,0.00047
3984.37287,0.00067
3982.31270,0.00082
3980.25253,0.00091
3978.19236,0.00109
3976.13219,0.00121
3974.07201,0.00111
3972.01184,0.00089
3969.95167,0.00078
3967.89150,0.00089
3965.83133,0.00100
3963.77115,0.00107
3961.71098,0.00115
3959.65081,0.00108
3957.59064,0.00079
3955.53046,0.00059
3953.47029,0.00078
3951.41012,0.00116
3949.34995,0.00123
3947.28978,0.00096
3945.22960,0.00081
3943.16943,0.00096
3941.10926,0.00116
3939.04909,0.00123
3936.98892,0.00136
3934.92874,0.00164
3932.86857,0.00174
3930.80840,0.00140
3928.74823,0.00090
3926.68805,0.00067
3924.62788,0.00089
3922.56771,0.00127
3920.50754,0.00129
3918.44737,0.00101
3916.38719,0.00091
3914.32702,0.00112
3912.26685,0.00140
3910.20668,0.00147
3908.14651,0.00119
3906.08633,0.00090
3904.02616,0.00097
3901.96599,0.00109
3899.90582,0.00073
3897.84565,0.00033
3895.78547,0.00044
3893.72530,0.00072
3891.66513,0.00088
3889.60496,0.00104
3887.54478,0.00113
3885.48461,0.00110
3883.42444,0.00122
3881.36427,0.00144
3879.30410,0.00144
3877.24392,0.00125
3875.18375,0.00112
3873.12358,0.00106
3871.06341,0.00103
3869.00324,0.00118
3866.94306,0.00142
3864.88289,0.00169
3862.82272,0.00194
3860.76255,0.00191
3858.70237,0.00157
3856.64220,0.00147
3854.58203,0.00193
3852.52186,0.00213
3850.46169,0.00138
3848.40151,0.00072
3846.34134,0.00065
3844.28117,0.00089
3842.22100,0.00112
3840.16083,0.00135
3838.10065,0.00153
3836.04048,0.00152
3833.98031,0.00148
3831.92014,0.00158
3829.85997,0.00168
3827.79979,0.00161
3825.73962,0.00145
3823.67945,0.00132
3821.61928,0.00114
3819.55910,0.00109
3817.49893,0.00131
3815.43876,0.00150
3813.37859,0.00153
3811.31842,0.00149
3809.25824,0.00125
3807.19807,0.00093
3805.13790,0.00075
3803.07773,0.00049
3801.01756,0.00008
3798.95738,0.00007
3796.89721,0.00052
3794.83704,0.00093
3792.77687,0.00105
3790.71670,0.00110
3788.65652,0.00131
3786.59635,0.00161
3784.53618,0.00174
3782.47601,0.00171
3780.41583,0.00158
3778.35566,0.00139
3776.29549,0.00145
3774.23532,0.00183
3772.17515,0.00206
3770.11497,0.00200
3768.05480,0.00183
3765.99463,0.00155
3763.93446,0.00125
3761.87429,0.00095
3759.81411,0.00091
3757.75394,0.00139
3755.69377,0.00192
3753.63360,0.00213
3751.57342,0.00235
3749.51325,0.00255
3747.45308,0.00243
3745.39291,0.00215
3743.33274,0.00179
3741.27256,0.00162
3739.21239,0.00156
3737.15222,0.00123
3735.09205,0.00082
3733.03188,0.00108
3730.97170,0.00185
3728.91153,0.00240
3726.85136,0.00259
3724.79119,0.00263
3722.73102,0.00243
3720.67084,0.00188
3718.61067,0.00153
3716.55050,0.00167
3714.49033,0.00211
3712.43015,0.00246
3710.36998,0.00232
3708.30981,0.00218
3706.24964,0.00232
3704.18947,0.00227
3702.12929,0.00190
3700.06912,0.00181
3698.00895,0.00228
3695.94878,0.00286
3693.88861,0.00305
3691.82843,0.00281
3689.76826,0.00266
3687.70809,0.00268
3685.64792,0.00269
3683.58775,0.00284
3681.52757,0.00296
3679.46740,0.00258
3677.40723,0.00203
3675.34706,0.00214
3673.28688,0.00283
3671.22671,0.00327
3669.16654,0.00330
3667.10637,0.00330
3665.04620,0.00353
3662.98602,0.00399
3660.92585,0.00456
3658.86568,0.00500
3656.80551,0.00522
3654.74534,0.00528
3652.68516,0.00515
3650.62499,0.00487
3648.56482,0.00489
3646.50465,0.00537
3644.44447,0.00574
3642.38430,0.00596
3640.32413,0.00639
3638.26396,0.00702
3636.20379,0.00765
3634.14361,0.00827
3632.08344,0.00884
3630.02327,0.00900
3627.96310,0.00887
3625.90293,0.00909
3623.84275,0.00957
3621.78258,0.01004
3619.72241,0.01033
3617.66224,0.01036
3615.60207,0.01055
3613.54189,0.01121
3611.48172,0.01211
3609.42155,0.01248
3607.36138,0.01228
3605.30120,0.01237
3603.24103,0.01277
3601.18086,0.01300
3599.12069,0.01316
3597.06052,0.01353
3595.00034,0.01380
3592.94017,0.01396
3590.88000,0.01427
3588.81983,0.01479
3586.75966,0.01528
3584.69948,0.01577
3582.63931,0.01626
3580.57914,0.01656
3578.51897,0.01663
3576.45879,0.01673
3574.39862,0.01712
3572.33845,0.01759
3570.27828,0.01767
3568.21811,0.01726
3566.15793,0.01705
3564.09776,0.01786
3562.03759,0.01913
3559.97742,0.01983
3557.91725,0.01999
3555.85707,0.02017
3553.79690,0.02034
3551.73673,0.02043
3549.67656,0.02075
3547.61639,0.02135
3545.55621,0.02188
3543.49604,0.02217
3541.43587,0.02246
3539.37570,0.02286
3537.31552,0.02320
3535.25535,0.02338
3533.19518,0.02360
3531.13501,0.02412
3529.07484,0.02478
3527.01466,0.02516
3524.95449,0.02517
3522.89432,0.02509
3520.83415,0.02512
3518.77398,0.02536
3516.71380,0.02597
3514.65363,0.02667
3512.59346,0.02697
3510.53329,0.02702
3508.47312,0.02730
3506.41294,0.02772
3504.35277,0.02789
3502.29260,0.02796
3500.23243,0.02827
3498.17225,0.02868
3496.11208,0.02881
3494.05191,0.02869
3491.99174,0.02883
3489.93157,0.02944
3487.87139,0.03005
3485.81122,0.03040
3483.75105,0.03054
3481.69088,0.03058
3479.63071,0.03096
3477.57053,0.03173
3475.51036,0.03231
3473.45019,0.03255
3471.39002,0.03270
3469.32984,0.03285
3467.26967,0.03300
3465.20950,0.03301
3463.14933,0.03315
3461.08916,0.03361
3459.02898,0.03389
3456.96881,0.03379
3454.90864,0.03379
3452.84847,0.03412
3450.78830,0.03450
3448.72812,0.03468
3446.66795,0.03468
3444.60778,0.03464
3442.54761,0.03462
3440.48744,0.03472
3438.42726,0.03505
3436.36709,0.03538
3434.30692,0.03548
3432.24675,0.03556
3430.18657,0.03600
3428.12640,0.03675
3426.06623,0.03736
3424.00606,0.03781
3421.94589,0.03808
3419.88571,0.03802
3417.82554,0.03780
3415.76537,0.03767
3413.70520,0.03770
3411.64503,0.03776
3409.58485,0.03790
3407.52468,0.03819
3405.46451,0.03851
3403.40434,0.03861
3401.34416,0.03843
3399.28399,0.03854
3397.22382,0.03895
3395.16365,0.03923
3393.10348,0.03900
3391.04330,0.03860
3388.98313,0.03861
3386.92296,0.03893
3384.86279,0.03934
3382.80262,0.03967
3380.74244,0.03974
3378.68227,0.03964
3376.62210,0.03947
3374.56193,0.03948
3372.50176,0.03978
3370.44158,0.03988
3368.38141,0.03956
3366.32124,0.03930
3364.26107,0.03955
3362.20089,0.04000
3360.14072,0.04009
3358.08055,0.04002
3356.02038,0.04012
3353.96021,0.04026
3351.90003,0.04020
3349.83986,0.04010
3347.77969,0.04004
3345.71952,0.03997
3343.65935,0.04006
3341.59917,0.04022
3339.53900,0.04031
3337.47883,0.04046
3335.41866,0.04057
3333.35849,0.04056
3331.29831,0.04066
3329.23814,0.04082
3327.17797,0.04085
3325.11780,0.04073
3323.05762,0.04047
3320.99745,0.04022
3318.93728,0.04029
3316.87711,0.04054
3314.81694,0.04056
3312.75676,0.04036
3310.69659,0.04022
3308.63642,0.04028
3306.57625,0.04018
3304.51608,0.04007
3302.45590,0.04025
3300.39573,0.04020
3298.33556,0.03978
3296.27539,0.03964
3294.21521,0.03989
3292.15504,0.04006
3290.09487,0.04002
3288.03470,0.04003
3285.97453,0.04023
3283.91435,0.04037
3281.85418,0.04027
3279.79401,0.04028
3277.73384,0.04057
3275.67367,0.04085
3273.61349,0.04088
3271.55332,0.04078
3269.49315,0.04070
3267.43298,0.04063
3265.37281,0.04045
3263.31263,0.04021
3261.25246,0.04019
3259.19229,0.04043
3257.13212,0.04066
3255.07194,0.04078
3253.01177,0.04079
3250.95160,0.04056
3248.89143,0.04013
3246.83126,0.03977
3244.77108,0.03956
3242.71091,0.03948
3240.65074,0.03955
3238.59057,0.03971
3236.53040,0.03982
3234.47022,0.03984
3232.41005,0.03967
3230.34988,0.03941
3228.28971,0.03922
3226.22954,0.03920
3224.16936,0.03934
3222.10919,0.03936
3220.04902,0.03927
3217.98885,0.03947
3215.92867,0.03969
3213.86850,0.03949
3211.80833,0.03919
3209.74816,0.03906
3207.68799,0.03887
3205.62781,0.03877
3203.56764,0.03886
3201.50747,0.03886
3199.44730,0.03884
3197.38713,0.03890
3195.32695,0.03887
3193.26678,0.03884
3191.20661,0.03874
3189.14644,0.03849
3187.08626,0.03830
3185.02609,0.03823
3182.96592,0.03808
3180.90575,0.03783
3178.84558,0.03766
3176.78540,0.03760
3174.72523,0.03758
3172.66506,0.03744
3170.60489,0.03715
3168.54472,0.03695
3166.48454,0.03697
3164.42437,0.03699
3162.36420,0.03686
3160.30403,0.03671
3158.24386,0.03655
3156.18368,0.03633
3154.12351,0.03618
3152.06334,0.03596
3150.00317,0.03568
3147.94299,0.03576
3145.88282,0.03603
3143.82265,0.03595
3141.76248,0.03562
3139.70231,0.03551
3137.64213,0.03556
3135.58196,0.03528
3133.52179,0.03471
3131.46162,0.03449
3129.40145,0.03467
3127.34127,0.03469
3125.28110,0.03448
3123.22093,0.03427
3121.16076,0.03410
3119.10058,0.03400
3117.04041,0.03406
3114.98024,0.03418
3112.92007,0.03430
3110.85990,0.03421
3108.79972,0.03380
3106.73955,0.03339
3104.67938,0.03326
3102.61921,0.03314
3100.55904,0.03287
3098.49886,0.03279
3096.43869,0.03281
3094.37852,0.03265
3092.31835,0.03248
3090.25818,0.03235
3088.19800,0.03222
3086.13783,0.03214
3084.07766,0.03206
3082.01749,0.03188
3079.95731,0.03160
3077.89714,0.03132
3075.83697,0.03120
3073.77680,0.03111
3071.71663,0.03084
3069.65645,0.03050
3067.59628,0.03028
3065.53611,0.03019
3063.47594,0.03022
3061.41577,0.03024
3059.35559,0.03006
3057.29542,0.02976
3055.23525,0.02950
3053.17508,0.02926
3051.11491,0.02906
3049.05473,0.02886
3046.99456,0.02876
3044.93439,0.02883
3042.87422,0.02891
3040.81404,0.02887
3038.75387,0.02880
3036.69370,0.02866
3034.63353,0.02837
3032.57336,0.02813
3030.51318,0.02795
3028.45301,0.02767
3026.39284,0.02735
3024.33267,0.02721
3022.27250,0.02720
3020.21232,0.02707
3018.15215,0.02688
3016.09198,0.02679
3014.03181,0.02666
3011.97163,0.02644
3009.91146,0.02625
3007.85129,0.02605
3005.79112,0.02581
3003.73095,0.02561
3001.67077,0.02548
2999.61060,0.02532
2997.55043,0.02518
2995.49026,0.02518
2993.43009,0.02520
2991.36991,0.02514
2989.30974,0.02511
2987.24957,0.02510
2985.18940,0.02498
2983.12923,0.02492
2981.06905,0.02498
2979.00888,0.02496
2976.94871,0.02478
2974.88854,0.02452
2972.82836,0.02433
2970.76819,0.02430
2968.70802,0.02432
2966.64785,0.02419
2964.58768,0.02400
2962.52750,0.02406
2960.46733,0.02416
2958.40716,0.02405
2956.34699,0.02376
2954.28682,0.02343
2952.22664,0.02338
2950.16647,0.02350
2948.10630,0.02352
2946.04613,0.02360
2943.98596,0.02367
2941.92578,0.02352
2939.86561,0.02319
2937.80544,0.02298
2935.74527,0.02296
2933.68509,0.02287
2931.62492,0.02273
2929.56475,0.02272
2927.50458,0.02264
2925.44441,0.02240
2923.38423,0.02233
2921.32406,0.02234
2919.26389,0.02217
2917.20372,0.02199
2915.14355,0.02184
2913.08337,0.02162
2911.02320,0.02145
2908.96303,0.02135
2906.90286,0.02120
2904.84268,0.02101
2902.78251,0.02077
2900.72234,0.02057
2898.66217,0.02042
2896.60200,0.02027
2894.54182,0.02012
2892.48165,0.02005
2890.42148,0.02001
2888.36131,0.01999
2886.30114,0.02000
2884.24096,0.01988
2882.18079,0.01979
2880.12062,0.01979
2878.06045,0.01961
2876.00028,0.01929
2873.94010,0.01910
2871.87993,0.01910
2869.81976,0.01904
2867.75959,0.01871
2865.69941,0.01842
2863.63924,0.01840
2861.57907,0.01834
2859.51890,0.01817
2857.45873,0.01804
2855.39855,0.01782
2853.33838,0.01749
2851.27821,0.01721
2849.21804,0.01704
2847.15787,0.01696
2845.09769,0.01693
2843.03752,0.01686
2840.97735,0.01670
2838.91718,0.01653
2836.85700,0.01638
2834.79683,0.01630
2832.73666,0.01631
2830.67649,0.01623
2828.61632,0.01610
2826.55614,0.01596
2824.49597,0.01570
2822.43580,0.01549
2820.37563,0.01544
2818.31546,0.01539
2816.25528,0.01526
2814.19511,0.01520
2812.13494,0.01523
2810.07477,0.01514
2808.01460,0.01499
2805.95442,0.01486
2803.89425,0.01469
2801.83408,0.01465
2799.77391,0.01462
2797.71373,0.01450
2795.65356,0.01435
2793.59339,0.01420
2791.53322,0.01414
2789.47305,0.01406
2787.41287,0.01389
2785.35270,0.01368
2783.29253,0.01344
2781.23236,0.01336
2779.17219,0.01337
2777.11201,0.01337
2775.05184,0.01339
2772.99167,0.01328
2770.93150,0.01292
2768.87133,0.01269
2766.81115,0.01274
2764.75098,0.01265
2762.69081,0.01244
2760.63064,0.01247
2758.57046,0.01269
2756.51029,0.01274
2754.45012,0.01264
2752.38995,0.01256
2750.32978,0.01247
2748.26960,0.01244
2746.20943,0.01244
2744.14926,0.01236
2742.08909,0.01221
2740.02892,0.01207
2737.96874,0.01205
2735.90857,0.01201
2733.84840,0.01184
2731.78823,0.01175
2729.72805,0.01181
2727.66788,0.01176
2725.60771,0.01149
2723.54754,0.01115
2721.48737,0.01099
2719.42719,0.01108
2717.36702,0.01121
2715.30685,0.01114
2713.24668,0.01096
2711.18651,0.01073
2709.12633,0.01054
2707.06616,0.01061
2705.00599,0.01071
2702.94582,0.01057
2700.88565,0.01038
2698.82547,0.01039
2696.76530,0.01044
2694.70513,0.01042
2692.64496,0.01043
2690.58478,0.01034
2688.52461,0.01013
2686.46444,0.00998
2684.40427,0.00994
2682.34410,0.00990
2680.28392,0.00991
2678.22375,0.00994
2676.16358,0.00983
2674.10341,0.00960
2672.04324,0.00946
2669.98306,0.00955
2667.92289,0.00974
2665.86272,0.00977
2663.80255,0.00968
2661.74238,0.00955
2659.68220,0.00946
2657.62203,0.00950
2655.56186,0.00952
2653.50169,0.00942
2651.44151,0.00930
2649.38134,0.00908
2647.32117,0.00884
2645.26100,0.00874
2643.20083,0.00877
2641.14065,0.00881
2639.08048,0.00892
2637.02031,0.00898
2634.96014,0.00874
2632.89997,0.00840
2630.83979,0.00828
2628.77962,0.00828
2626.71945,0.00814
2624.65928,0.00793
2622.59910,0.00794
2620.53893,0.00805
2618.47876,0.00800
2616.41859,0.00796
2614.35842,0.00811
2612.29824,0.00839
2610.23807,0.00846
2608.17790,0.00822
2606.11773,0.00791
2604.05756,0.00775
2601.99738,0.00765
2599.93721,0.00747
2597.87704,0.00731
2595.81687,0.00729
2593.75670,0.00741
2591.69652,0.00755
2589.63635,0.00755
2587.57618,0.00745
2585.51601,0.00727
2583.45583,0.00713
2581.39566,0.00716
2579.33549,0.00714
2577.27532,0.00694
2575.21515,0.00679
2573.15497,0.00696
2571.09480,0.00733
2569.03463,0.00741
2566.97446,0.00722
2564.91429,0.00705
2562.85411,0.00687
2560.79394,0.00694
2558.73377,0.00703
2556.67360,0.00666
2554.61342,0.00622
2552.55325,0.00627
2550.49308,0.00654
2548.43291,0.00673
2546.37274,0.00687
2544.31256,0.00679
2542.25239,0.00649
2540.19222,0.00628
2538.13205,0.00625
2536.07188,0.00630
2534.01170,0.00644
2531.95153,0.00667
2529.89136,0.00672
2527.83119,0.00645
2525.77102,0.00624
2523.71084,0.00637
2521.65067,0.00647
2519.59050,0.00625
2517.53033,0.00602
2515.47015,0.00608
2513.40998,0.00628
2511.34981,0.00641
2509.28964,0.00646
2507.22947,0.00652
2505.16929,0.00658
2503.10912,0.00661
2501.04895,0.00655
2498.98878,0.00647
2496.92861,0.00667
2494.86843,0.00693
2492.80826,0.00678
2490.74809,0.00667
2488.68792,0.00710
2486.62775,0.00750
2484.56757,0.00747
2482.50740,0.00730
2480.44723,0.00705
2478.38706,0.00667
2476.32688,0.00651
2474.26671,0.00674
2472.20654,0.00698
2470.14637,0.00719
2468.08620,0.00740
2466.02602,0.00731
2463.96585,0.00718
2461.90568,0.00733
2459.84551,0.00762
2457.78534,0.00798
2455.72516,0.00819
2453.66499,0.00798
2451.60482,0.00764
2449.54465,0.00743
2447.48447,0.00726
2445.42430,0.00710
2443.36413,0.00695
2441.30396,0.00691
2439.24379,0.00701
2437.18361,0.00689
2435.12344,0.00657
2433.06327,0.00639
2431.00310,0.00644
2428.94293,0.00660
2426.88275,0.00667
2424.82258,0.00677
2422.76241,0.00711
2420.70224,0.00733
2418.64207,0.00728
2416.58189,0.00715
2414.52172,0.00698
2412.46155,0.00693
2410.40138,0.00698
2408.34120,0.00692
2406.28103,0.00699
2404.22086,0.00719
2402.16069,0.00711
2400.10052,0.00684
2398.04034,0.00651
2395.98017,0.00674
2393.92000,0.00704
2391.85983,0.00712
2389.79966,0.00714
2387.73948,0.00721
2385.67931,0.00730
2383.61914,0.00738
2381.55897,0.00734
2379.49880,0.00710
2377.43862,0.00677
2375.37845,0.00693
2373.31828,0.00725
2371.25811,0.00722
2369.19793,0.00715
2367.13776,0.00752
2365.07759,0.00852
2363.01742,0.00997
2360.95725,0.00917
2358.89707,0.00887
2356.83690,0.00946
2354.77673,0.01069
2352.71656,0.01090
2350.65639,0.00822
2348.59621,0.00650
2346.53604,0.00975
2344.47587,0.00999
2342.41570,0.00870
2340.35552,0.00812
2338.29535,0.00823
2336.23518,0.00893
2334.17501,0.00944
2332.11484,0.00975
2330.05466,0.00986
2327.99449,0.01040
2325.93432,0.01009
2323.87415,0.01012
2321.81398,0.00994
2319.75380,0.00990
2317.69363,0.00883
2315.63346,0.00843
2313.57329,0.00874
2311.51312,0.00869
2309.45294,0.00854
2307.39277,0.00848
2305.33260,0.00845
2303.27243,0.00839
2301.21225,0.00853
2299.15208,0.00855
2297.09191,0.00846
2295.03174,0.00831
2292.97157,0.00805
2290.91139,0.00803
2288.85122,0.00829
2286.79105,0.00830
2284.73088,0.00777
2282.67071,0.00709
2280.61053,0.00684
2278.55036,0.00700
2276.49019,0.00706
2274.43002,0.00693
2272.36984,0.00680
2270.30967,0.00634
2268.24950,0.00562
2266.18933,0.00527
2264.12916,0.00562
2262.06898,0.00603
2260.00881,0.00596
2257.94864,0.00583
2255.88847,0.00622
2253.82830,0.00644
2251.76812,0.00580
2249.70795,0.00537
2247.64778,0.00617
2245.58761,0.00664
2243.52744,0.00641
2241.46726,0.00636
2239.40709,0.00653
2237.34692,0.00687
2235.28675,0.00744
2233.22657,0.00738
2231.16640,0.00633
2229.10623,0.00497
2227.04606,0.00433
2224.98589,0.00495
2222.92571,0.00572
2220.86554,0.00563
2218.80537,0.00531
2216.74520,0.00511
2214.68503,0.00482
2212.62485,0.00462
2210.56468,0.00433
2208.50451,0.00375
2206.44434,0.00379
2204.38417,0.00448
2202.32399,0.00481
2200.26382,0.00537
2198.20365,0.00649
2196.14348,0.00630
2194.08330,0.00425
2192.02313,0.00262
2189.96296,0.00246
2187.90279,0.00315
2185.84262,0.00419
2183.78244,0.00456
2181.72227,0.00408
2179.66210,0.00373
2177.60193,0.00411
2175.54176,0.00497
2173.48158,0.00532
2171.42141,0.00478
2169.36124,0.00438
2167.30107,0.00449
2165.24089,0.00464
2163.18072,0.00422
2161.12055,0.00207
2159.06038,0.00000
2157.00021,0.00010
2154.94003,0.00072
2152.87986,0.00125
2150.81969,0.00161
2148.75952,0.00139
2146.69935,0.00181
2144.63917,0.00333
2142.57900,0.00381
2140.51883,0.00251
2138.45866,0.00109
2136.39849,0.00087
2134.33831,0.00208
2132.27814,0.00323
2130.21797,0.00328
2128.15780,0.00325
2126.09762,0.00362
2124.03745,0.00392
2121.97728,0.00396
2119.91711,0.00393
2117.85694,0.00403
2115.79676,0.00394
2113.73659,0.00370
2111.67642,0.00410
2109.61625,0.00505
2107.55608,0.00543
2105.49590,0.00479
2103.43573,0.00403
2101.37556,0.00387
2099.31539,0.00389
2097.25521,0.00364
2095.19504,0.00334
2093.13487,0.00361
2091.07470,0.00437
2089.01453,0.00515
2086.95435,0.00540
2084.89418,0.00504
2082.83401,0.00455
2080.77384,0.00402
2078.71367,0.00342
2076.65349,0.00276
2074.59332,0.00240
2072.53315,0.00291
2070.47298,0.00381
2068.41281,0.00394
2066.35263,0.00303
2064.29246,0.00221
2062.23229,0.00218
2060.17212,0.00248
2058.11194,0.00282
2056.05177,0.00297
2053.99160,0.00331
2051.93143,0.00414
2049.87126,0.00441
2047.81108,0.00410
2045.75091,0.00418
2043.69074,0.00406
2041.63057,0.00312
2039.57040,0.00230
2037.51022,0.00204
2035.45005,0.00184
2033.38988,0.00219
2031.32971,0.00298
2029.26954,0.00310
2027.20936,0.00283
2025.14919,0.00318
2023.08902,0.00424
2021.02885,0.00418
2018.96867,0.00246
2016.90850,0.00149
2014.84833,0.00180
2012.78816,0.00244
2010.72799,0.00314
2008.66781,0.00289
2006.60764,0.00174
2004.54747,0.00105
2002.48730,0.00136
2000.42713,0.00234
1998.36695,0.00299
1996.30678,0.00291
1994.24661,0.00301
1992.18644,0.00329
1990.12626,0.00269
1988.06609,0.00163
1986.00592,0.00146
1983.94575,0.00242
1981.88558,0.00304
1979.82540,0.00224
1977.76523,0.00135
1975.70506,0.00136
1973.64489,0.00144
1971.58472,0.00136
1969.52454,0.00167
1967.46437,0.00191
1965.40420,0.00144
1963.34403,0.00101
1961.28386,0.00089
1959.22368,0.00082
1957.16351,0.00106
1955.10334,0.00126
1953.04317,0.00065
1950.98299,0.00000
1948.92282,0.00068
1946.86265,0.00190
1944.80248,0.00216
1942.74231,0.00199
1940.68213,0.00230
1938.62196,0.00246
1936.56179,0.00187
1934.50162,0.00116
1932.44145,0.00096
1930.38127,0.00127
1928.32110,0.00159
1926.26093,0.00144
1924.20076,0.00103
1922.14059,0.00105
1920.08041,0.00131
1918.02024,0.00137
1915.96007,0.00164
1913.89990,0.00207
1911.83972,0.00206
1909.77955,0.00174
1907.71938,0.00176
1905.65921,0.00207
1903.59904,0.00231
1901.53886,0.00255
1899.47869,0.00281
1897.41852,0.00277
1895.35835,0.00223
1893.29818,0.00174
1891.23800,0.00157
1889.17783,0.00142
1887.11766,0.00136
1885.05749,0.00153
1882.99731,0.00179
1880.93714,0.00204
1878.87697,0.00228
1876.81680,0.00255
1874.75663,0.00273
1872.69645,0.00274
1870.63628,0.00257
1868.57611,0.00210
1866.51594,0.00156
1864.45577,0.00145
1862.39559,0.00169
1860.33542,0.00198
1858.27525,0.00216
1856.21508,0.00214
1854.15491,0.00199
1852.09473,0.00188
1850.03456,0.00181
1847.97439,0.00177
1845.91422,0.00181
1843.85404,0.00191
1841.79387,0.00194
1839.73370,0.00192
1837.67353,0.00200
1835.61336,0.00213
1833.55318,0.00214
1831.49301,0.00199
1829.43284,0.00191
1827.37267,0.00211
1825.31250,0.00226
1823.25232,0.00211
1821.19215,0.00189
1819.13198,0.00193
1817.07181,0.00210
1815.01163,0.00207
1812.95146,0.00188
1810.89129,0.00187
1808.83112,0.00207
1806.77095,0.00216
1804.71077,0.00205
1802.65060,0.00195
1800.59043,0.00199
1798.53026,0.00210
1796.47009,0.00227
1794.40991,0.00237
1792.34974,0.00224
1790.28957,0.00212
1788.22940,0.00233
1786.16923,0.00272
1784.10905,0.00292
1782.04888,0.00278
1779.98871,0.00253
1777.92854,0.00245
1775.86836,0.00248
1773.80819,0.00244
1771.74802,0.00240
1769.68785,0.00264
1767.62768,0.00305
1765.56750,0.00338
1763.50733,0.00349
1761.44716,0.00349
1759.38699,0.00369
1757.32682,0.00406
1755.26664,0.00428
1753.20647,0.00430
1751.14630,0.00435
1749.08613,0.00448
1747.02596,0.00461
1744.96578,0.00475
1742.90561,0.00492
1740.84544,0.00502
1738.78527,0.00507
1736.72509,0.00519
1734.66492,0.00529
1732.60475,0.00530
1730.54458,0.00545
1728.48441,0.00578
1726.42423,0.00605
1724.36406,0.00623
1722.30389,0.00632
1720.24372,0.00621
1718.18355,0.00594
1716.12337,0.00587
1714.06320,0.00624
1712.00303,0.00683
1709.94286,0.00741
1707.88268,0.00781
1705.82251,0.00800
1703.76234,0.00801
1701.70217,0.00803
1699.64200,0.00839
1697.58182,0.00912
1695.52165,0.00991
1693.46148,0.01062
1691.40131,0.01126
1689.34114,0.01180
1687.28096,0.01226
1685.22079,0.01272
1683.16062,0.01327
1681.10045,0.01403
1679.04028,0.01492
1676.98010,0.01570
1674.91993,0.01636
1672.85976,0.01702
1670.79959,0.01767
1668.73941,0.01823
1666.67924,0.01877
1664.61907,0.01933
1662.55890,0.01998
1660.49873,0.02079
1658.43855,0.02152
1656.37838,0.02191
1654.31821,0.02190
1652.25804,0.02186
1650.19787,0.02208
1648.13769,0.02213
1646.07752,0.02187
1644.01735,0.02178
1641.95718,0.02191
1639.89701,0.02201
1637.83683,0.02177
1635.77666,0.02108
1633.71649,0.02058
1631.65632,0.02055
1629.59614,0.02048
1627.53597,0.02016
1625.47580,0.01976
1623.41563,0.01927
1621.35546,0.01884
1619.29528,0.01857
1617.23511,0.01803
1615.17494,0.01728
1613.11477,0.01687
1611.05460,0.01672
1608.99442,0.01652
1606.93425,0.01622
1604.87408,0.01596
1602.81391,0.01571
1600.75373,0.01543
1598.69356,0.01515
1596.63339,0.01480
1594.57322,0.01440
1592.51305,0.01408
1590.45287,0.01387
1588.39270,0.01368
1586.33253,0.01345
1584.27236,0.01320
1582.21219,0.01300
1580.15201,0.01291
1578.09184,0.01279
1576.03167,0.01246
1573.97150,0.01211
1571.91133,0.01179
1569.85115,0.01135
1567.79098,0.01100
1565.73081,0.01097
1563.67064,0.01112
1561.61046,0.01120
1559.55029,0.01086
1557.49012,0.01030
1555.42995,0.01024
1553.36978,0.01043
1551.30960,0.01042
1549.24943,0.01016
1547.18926,0.00983
1545.12909,0.00960
1543.06892,0.00950
1541.00874,0.00929
1538.94857,0.00891
1536.88840,0.00865
1534.82823,0.00840
1532.76805,0.00808
1530.70788,0.00791
1528.64771,0.00778
1526.58754,0.00751
1524.52737,0.00723
1522.46719,0.00710
1520.40702,0.00706
1518.34685,0.00697
1516.28668,0.00681
1514.22651,0.00671
1512.16633,0.00663
1510.10616,0.00646
1508.04599,0.00608
1505.98582,0.00556
1503.92565,0.00535
1501.86547,0.00542
1499.80530,0.00546
1497.74513,0.00525
1495.68496,0.00485
1493.62478,0.00456
1491.56461,0.00448
1489.50444,0.00440
1487.44427,0.00427
1485.38410,0.00426
1483.32392,0.00430
1481.26375,0.00434
1479.20358,0.00433
1477.14341,0.00422
1475.08324,0.00414
1473.02306,0.00430
1470.96289,0.00462
1468.90272,0.00485
1466.84255,0.00502
1464.78238,0.00526
1462.72220,0.00550
1460.66203,0.00549
1458.60186,0.00512
1456.54169,0.00483
1454.48151,0.00510
1452.42134,0.00548
1450.36117,0.00559
1448.30100,0.00550
1446.24083,0.00547
1444.18065,0.00557
1442.12048,0.00573
1440.06031,0.00587
1438.00014,0.00591
1435.93997,0.00580
1433.87979,0.00570
1431.81962,0.00571
1429.75945,0.00585
1427.69928,0.00618
1425.63910,0.00657
1423.57893,0.00685
1421.51876,0.00696
1419.45859,0.00695
1417.39842,0.00703
1415.33824,0.00734
1413.27807,0.00765
1411.21790,0.00769
1409.15773,0.00749
1407.09756,0.00727
1405.03738,0.00714
1402.97721,0.00704
1400.91704,0.00686
1398.85687,0.00651
1396.79670,0.00604
1394.73652,0.00568
1392.67635,0.00560
1390.61618,0.00561
1388.55601,0.00556
1386.49583,0.00550
1384.43566,0.00545
1382.37549,0.00542
1380.31532,0.00545
1378.25515,0.00547
1376.19497,0.00537
1374.13480,0.00520
1372.07463,0.00506
1370.01446,0.00499
1367.95429,0.00502
1365.89411,0.00499
1363.83394,0.00470
1361.77377,0.00432
1359.71360,0.00415
1357.65343,0.00417
1355.59325,0.00422
1353.53308,0.00417
1351.47291,0.00400
1349.41274,0.00382
1347.35256,0.00370
1345.29239,0.00357
1343.23222,0.00345
1341.17205,0.00339
1339.11188,0.00338
1337.05170,0.00347
1334.99153,0.00364
1332.93136,0.00371
1330.87119,0.00362
1328.81102,0.00345
1326.75084,0.00333
1324.69067,0.00333
1322.63050,0.00340
1320.57033,0.00341
1318.51015,0.00336
1316.44998,0.00330
1314.38981,0.00321
1312.32964,0.00314
1310.26947,0.00320
1308.20929,0.00334
1306.14912,0.00337
1304.08895,0.00332
1302.02878,0.00336
1299.96861,0.00354
1297.90843,0.00370
1295.84826,0.00368
1293.78809,0.00366
1291.72792,0.00373
1289.66775,0.00374
1287.60757,0.00366
1285.54740,0.00368
1283.48723,0.00377
1281.42706,0.00382
1279.36688,0.00390
1277.30671,0.00392
1275.24654,0.00389
1273.18637,0.00391
1271.12620,0.00398
1269.06602,0.00402
1267.00585,0.00402
1264.94568,0.00400
1262.88551,0.00400
1260.82534,0.00403
1258.76516,0.00409
1256.70499,0.00407
1254.64482,0.00412
1252.58465,0.00428
1250.52447,0.00436
1248.46430,0.00434
1246.40413,0.00438
1244.34396,0.00433
1242.28379,0.00411
1240.22361,0.00392
1238.16344,0.00387
1236.10327,0.00378
1234.04310,0.00365
1231.98293,0.00351
1229.92275,0.00325
1227.86258,0.00295
1225.80241,0.00269
1223.74224,0.00239
1221.68207,0.00215
1219.62189,0.00205
1217.56172,0.00189
1215.50155,0.00156
1213.44138,0.00122
1211.38120,0.00098
1209.32103,0.00072
1207.26086,0.00048
1205.20069,0.00050
1203.14052,0.00067
1201.08034,0.00063
1199.02017,0.00041
1196.96000,0.00032
1194.89983,0.00029
1192.83966,0.00024
1190.77948,0.00027
1188.71931,0.00029
1186.65914,0.00011
1184.59897,0.00000
1182.53880,0.00029
1180.47862,0.00065
1178.41845,0.00083
1176.35828,0.00104
1174.29811,0.00140
1172.23793,0.00182
1170.17776,0.00220
1168.11759,0.00251
1166.05742,0.00287
1163.99725,0.00317
1161.93707,0.00348
1159.87690,0.00397
1157.81673,0.00443
1155.75656,0.00480
1153.69639,0.00527
1151.63621,0.00589
1149.57604,0.00653
1147.51587,0.00698
1145.45570,0.00732
1143.39552,0.00784
1141.33535,0.00858
1139.27518,0.00934
1137.21501,0.00987
1135.15484,0.01029
1133.09466,0.01096
1131.03449,0.01196
1128.97432,0.01306
1126.91415,0.01416
1124.85398,0.01535
1122.79380,0.01658
1120.73363,0.01770
1118.67346,0.01889
1116.61329,0.02033
1114.55312,0.02175
1112.49294,0.02292
1110.43277,0.02400
1108.37260,0.02522
1106.31243,0.02657
1104.25225,0.02789
1102.19208,0.02910
1100.13191,0.03028
1098.07174,0.03145
1096.01157,0.03251
1093.95139,0.03346
1091.89122,0.03430
1089.83105,0.03497
1087.77088,0.03556
1085.71071,0.03621
1083.65053,0.03712
1081.59036,0.03815
1079.53019,0.03896
1077.47002,0.03936
1075.40985,0.03955
1073.34967,0.03977
1071.28950,0.04020
1069.22933,0.04058
1067.16916,0.04048
1065.10898,0.04003
1063.04881,0.03962
1060.98864,0.03935
1058.92847,0.03894
1056.86830,0.03822
1054.80812,0.03734
1052.74795,0.03652
1050.68778,0.03559
1048.62761,0.03427
1046.56744,0.03279
1044.50726,0.03148
1042.44709,0.03033
1040.38692,0.02906
1038.32675,0.02749
1036.26657,0.02583
1034.20640,0.02429
1032.14623,0.02298
1030.08606,0.02187
1028.02589,0.02079
1025.96571,0.01970
1023.90554,0.01875
1021.84537,0.01798
1019.78520,0.01727
1017.72503,0.01668
1015.66485,0.01617
1013.60468,0.01574
1011.54451,0.01547
1009.48434,0.01541
1007.42417,0.01551
1005.36399,0.01566
1003.30382,0.01608
1001.24365,0.01696
999.18348,0.01793
997.12330,0.01866
995.06313,0.01934
993.00296,0.02002
990.94279,0.02064
988.88262,0.02144
986.82244,0.02229
984.76227,0.02268
982.70210,0.02262
980.64193,0.02238
978.58176,0.02191
976.52158,0.02137
974.46141,0.02073
972.40124,0.01962
970.34107,0.01819
968.28089,0.01688
966.22072,0.01582
964.16055,0.01483
962.10038,0.01380
960.04021,0.01266
957.98003,0.01142
955.91986,0.01017
953.85969,0.00902
951.79952,0.00805
949.73935,0.00718
947.67917,0.00638
945.61900,0.00569
943.55883,0.00486
941.49866,0.00392
939.43849,0.00334
937.37831,0.00310
935.31814,0.00281
933.25797,0.00248
931.19780,0.00201
929.13762,0.00144
927.07745,0.00119
925.01728,0.00122
922.95711,0.00112
920.89694,0.00098
918.83676,0.00092
916.77659,0.00067
914.71642,0.00029
912.65625,0.00013
910.59608,0.00009
908.53590,0.00000
906.47573,0.00002
904.41556,0.00010
902.35539,0.00012
900.29522,0.00031
898.23504,0.00062
896.17487,0.00081
894.11470,0.00109
892.05453,0.00156
889.99435,0.00174
887.93418,0.00166
885.87401,0.00197
883.81384,0.00271
881.75367,0.00332
879.69349,0.00358
877.63332,0.00391
875.57315,0.00454
873.51298,0.00503
871.45281,0.00514
869.39263,0.00519
867.33246,0.00543
865.27229,0.00583
863.21212,0.00620
861.15194,0.00643
859.09177,0.00650
857.03160,0.00658
854.97143,0.00663
852.91126,0.00639
850.85108,0.00614
848.79091,0.00619
846.73074,0.00613
844.67057,0.00573
842.61040,0.00534
840.55022,0.00538
838.49005,0.00547
836.42988,0.00514
834.36971,0.00471
832.30954,0.00424
830.24936,0.00371
828.18919,0.00345
826.12902,0.00336
824.06885,0.00326
822.00867,0.00326
819.94850,0.00317
817.88833,0.00266
815.82816,0.00215
813.76799,0.00196
811.70781,0.00171
809.64764,0.00168
807.58747,0.00203
805.52730,0.00203
803.46713,0.00162
801.40695,0.00151
799.34678,0.00167
797.28661,0.00143
795.22644,0.00097
793.16627,0.00085
791.10609,0.00096
789.04592,0.00119
786.98575,0.00150
784.92558,0.00166
782.86540,0.00160
780.80523,0.00148
778.74506,0.00117
776.68489,0.00083
774.62472,0.00071
772.56454,0.00061
770.50437,0.00091
768.44420,0.00169
766.38403,0.00190
764.32386,0.00125
762.26368,0.00061
760.20351,0.00079
758.14334,0.00153
756.08317,0.00196
754.02299,0.00204
751.96282,0.00194
749.90265,0.00161
747.84248,0.00167
745.78231,0.00222
743.72213,0.00230
741.66196,0.00187
739.60179,0.00156
737.54162,0.00157
735.48145,0.00177
733.42127,0.00166
731.36110,0.00142
729.30093,0.00126
727.24076,0.00104
725.18059,0.00078
723.12041,0.00064
721.06024,0.00085
719.00007,0.00080
716.93990,0.00128
714.87972,0.00194
712.81955,0.00205
710.75938,0.00176
708.69921,0.00154
706.63904,0.00138
704.57886,0.00111
702.51869,0.00109
700.45852,0.00138
698.39835,0.00166
696.33818,0.00224
694.27800,0.00307
692.21783,0.00336
690.15766,0.00297
688.09749,0.00261
686.03731,0.00268
683.97714,0.00276
681.91697,0.00270
679.85680,0.00263
677.79663,0.00271
675.73645,0.00320
673.67628,0.00284
671.61611,0.00050
669.55594,0.00273
667.49577,0.00742
665.43559,0.00000
663.37542,0.00119
661.31525,0.00372
659.25508,0.00472
657.19491,0.00449
655.13473,0.00344
653.07456,0.00276
651.01439,0.00312
648.95422,0.00423
646.89404,0.00484
644.83387,0.00454
642.77370,0.00373
640.71353,0.00335
638.65336,0.00258
636.59318,0.00096
634.53301,0.00000
632.47284,0.00007
630.41267,0.00045
628.35250,0.00107
626.29232,0.00141
624.23215,0.00108
622.17198,0.00088
620.11181,0.00045
618.05164,0.00065
615.99146,0.00121
613.93129,0.00018
611.87112,-0.00169
609.81095,-0.00271
607.75077,-0.00284
605.69060,-0.00340
603.63043,-0.00325
601.57026,-0.00092
599.51009,0.00000
