3996.73391,0.00022
3994.67373,0.00007
3992.61356,0.00037
3990.55339,0.00065
3988.49322,0.00042
3986.43305,0.00005
3984.37287,0.00000
3982.31270,0.00022
3980.25253,0.00058
3978.19236,0.00087
3976.13219,0.00089
3974.07201,0.00063
3972.01184,0.00031
3969.95167,0.00026
3967.89150,0.00055
3965.83133,0.00083
3963.77115,0.00097
3961.71098,0.00107
3959.65081,0.00095
3957.59064,0.00061
3955.53046,0.00050
3953.47029,0.00084
3951.41012,0.00137
3949.34995,0.00154
3947.28978,0.00107
3945.22960,0.00053
3943.16943,0.00062
3941.10926,0.00113
3939.04909,0.00143
3936.98892,0.00148
3934.92874,0.00157
3932.86857,0.00153
3930.80840,0.00107
3928.74823,0.00038
3926.68805,0.00000
3924.62788,0.00010
3922.56771,0.00044
3920.50754,0.00071
3918.44737,0.00068
3916.38719,0.00046
3914.32702,0.00048
3912.26685,0.00081
3910.20668,0.00111
3908.14651,0.00107
3906.08633,0.00092
3904.02616,0.00099
3901.96599,0.00104
3899.90582,0.00079
3897.84565,0.00059
3895.78547,0.00077
3893.72530,0.00100
3891.66513,0.00105
3889.60496,0.00106
3887.54478,0.00100
3885.48461,0.00089
3883.42444,0.00102
3881.36427,0.00142
3879.30410,0.00170
3877.24392,0.00167
3875.18375,0.00142
3873.12358,0.00102
3871.06341,0.00081
3869.00324,0.00108
3866.94306,0.00147
3864.88289,0.00160
3862.82272,0.00154
3860.76255,0.00141
3858.70237,0.00136
3856.64220,0.00172
3854.58203,0.00250
3852.52186,0.00271
3850.46169,0.00187
3848.40151,0.00113
3846.34134,0.00106
3844.28117,0.00135
3842.22100,0.00149
3840.16083,0.00147
3838.10065,0.00157
3836.04048,0.00184
3833.98031,0.00204
3831.92014,0.00197
3829.85997,0.00169
3827.79979,0.00148
3825.73962,0.00157
3823.67945,0.00176
3821.61928,0.00169
3819.55910,0.00148
3817.49893,0.00126
3815.43876,0.00096
3813.37859,0.00092
3811.31842,0.00109
3809.25824,0.00096
3807.19807,0.00075
3805.13790,0.00082
3803.07773,0.00079
3801.01756,0.00054
3798.95738,0.00057
3796.89721,0.00093
3794.83704,0.00115
3792.77687,0.00104
3790.71670,0.00088
3788.65652,0.00096
3786.59635,0.00118
3784.53618,0.00115
3782.47601,0.00080
3780.41583,0.00055
3778.35566,0.00073
3776.29549,0.00118
3774.23532,0.00153
3772.17515,0.00155
3770.11497,0.00140
3768.05480,0.00140
3765.99463,0.00162
3763.93446,0.00173
3761.87429,0.00161
3759.81411,0.00157
3757.75394,0.00175
3755.69377,0.00192
3753.63360,0.00207
3751.57342,0.00218
3749.51325,0.00217
3747.45308,0.00224
3745.39291,0.00233
3743.33274,0.00203
3741.27256,0.00148
3739.21239,0.00106
3737.15222,0.00103
3735.09205,0.00133
3733.03188,0.00164
3730.97170,0.00180
3728.91153,0.00186
3726.85136,0.00213
3724.79119,0.00260
3722.73102,0.00263
3720.67084,0.00214
3718.61067,0.00162
3716.55050,0.00139
3714.49033,0.00164
3712.43015,0.00217
3710.36998,0.00261
3708.30981,0.00309
3706.24964,0.00348
3704.18947,0.00322
3702.12929,0.00241
3700.06912,0.00191
3698.00895,0.00224
3695.94878,0.00294
3693.88861,0.00324
3691.82843,0.00291
3689.76826,0.00249
3687.70809,0.00227
3685.64792,0.00227
3683.58775,0.00253
3681.52757,0.00274
3679.46740,0.00260
3677.40723,0.00233
3675.34706,0.00235
3673.28688,0.00277
3671.22671,0.00337
3669.16654,0.00367
3667.10637,0.00339
3665.04620,0.00302
3662.98602,0.00306
3660.92585,0.00347
3658.86568,0.00390
3656.80551,0.00427
3654.74534,0.00466
3652.68516,0.00505
3650.62499,0.00548
3648.56482,0.00574
3646.50465,0.00535
3644.44447,0.00490
3642.38430,0.00502
3640.32413,0.00569
3638.26396,0.00656
3636.20379,0.00733
3634.14361,0.00792
3632.08344,0.00830
3630.02327,0.00851
3627.96310,0.00869
3625.90293,0.00896
3623.84275,0.00924
3621.78258,0.00968
3619.72241,0.01025
3617.66224,0.01048
3615.60207,0.01053
3613.54189,0.01091
3611.48172,0.01136
3609.42155,0.01137
3607.36138,0.01119
3605.30120,0.01141
3603.24103,0.01198
3601.18086,0.01252
3599.12069,0.01286
3597.06052,0.01350
3595.00034,0.01449
3592.94017,0.01491
3590.88000,0.01465
3588.81983,0.01450
3586.75966,0.01470
3584.69948,0.01509
3582.63931,0.01552
3580.57914,0.01579
3578.51897,0.01587
3576.45879,0.01594
3574.39862,0.01630
3572.33845,0.01688
3570.27828,0.01711
3568.21811,0.01685
3566.15793,0.01676
3564.09776,0.01738
3562.03759,0.01833
3559.97742,0.01898
3557.91725,0.01918
3555.85707,0.01924
3553.79690,0.01924
3551.73673,0.01934
3549.67656,0.01974
3547.61639,0.02017
3545.55621,0.02040
3543.49604,0.02070
3541.43587,0.02128
3539.37570,0.02199
3537.31552,0.02248
3535.25535,0.02258
3533.19518,0.02249
3531.13501,0.02261
3529.07484,0.02317
3527.01466,0.02386
3524.95449,0.02422
3522.89432,0.02429
3520.83415,0.02438
3518.77398,0.02471
3516.71380,0.02529
3514.65363,0.02583
3512.59346,0.02611
3510.53329,0.02621
3508.47312,0.02624
3506.41294,0.02627
3504.35277,0.02642
3502.29260,0.02660
3500.23243,0.02683
3498.17225,0.02718
3496.11208,0.02752
3494.05191,0.02770
3491.99174,0.02790
3489.93157,0.02831
3487.87139,0.02879
3485.81122,0.02914
3483.75105,0.02931
3481.69088,0.02930
3479.63071,0.02932
3477.57053,0.02968
3475.51036,0.03021
3473.45019,0.03065
3471.39002,0.03103
3469.32984,0.03131
3467.26967,0.03139
3465.20950,0.03113
3463.14933,0.03079
3461.08916,0.03090
3459.02898,0.03141
3456.96881,0.03192
3454.90864,0.03222
3452.84847,0.03232
3450.78830,0.03236
3448.72812,0.03249
3446.66795,0.03280
3444.60778,0.03313
3442.54761,0.03331
3440.48744,0.03351
3438.42726,0.03388
3436.36709,0.03406
3434.30692,0.03407
3432.24675,0.03431
3430.18657,0.03470
3428.12640,0.03492
3426.06623,0.03494
3424.00606,0.03502
3421.94589,0.03527
3419.88571,0.03549
3417.82554,0.03548
3415.76537,0.03565
3413.70520,0.03607
3411.64503,0.03609
3409.58485,0.03582
3407.52468,0.03586
3405.46451,0.03619
3403.40434,0.03651
3401.34416,0.03676
3399.28399,0.03714
3397.22382,0.03735
3395.16365,0.03722
3393.10348,0.03696
3391.04330,0.03703
3388.98313,0.03740
3386.92296,0.03761
3384.86279,0.03776
3382.80262,0.03810
3380.74244,0.03828
3378.68227,0.03813
3376.62210,0.03776
3374.56193,0.03746
3372.50176,0.03754
3370.44158,0.03778
3368.38141,0.03786
3366.32124,0.03791
3364.26107,0.03833
3362.20089,0.03882
3360.14072,0.03878
3358.08055,0.03842
3356.02038,0.03823
3353.96021,0.03820
3351.90003,0.03808
3349.83986,0.03798
3347.77969,0.03811
3345.71952,0.03833
3343.65935,0.03846
3341.59917,0.03834
3339.53900,0.03817
3337.47883,0.03833
3335.41866,0.03866
3333.35849,0.03876
3331.29831,0.03866
3329.23814,0.03864
3327.17797,0.03878
3325.11780,0.03902
3323.05762,0.03914
3320.99745,0.03888
3318.93728,0.03858
3316.87711,0.03863
3314.81694,0.03887
3312.75676,0.03883
3310.69659,0.03871
3308.63642,0.03888
3306.57625,0.03886
3304.51608,0.03860
3302.45590,0.03860
3300.39573,0.03864
3298.33556,0.03848
3296.27539,0.03835
3294.21521,0.03834
3292.15504,0.03827
3290.09487,0.03811
3288.03470,0.03813
3285.97453,0.03849
3283.91435,0.03893
3281.85418,0.03903
3279.79401,0.03889
3277.73384,0.03886
3275.67367,0.03890
3273.61349,0.03896
3271.55332,0.03915
3269.49315,0.03921
3267.43298,0.03900
3265.37281,0.03876
3263.31263,0.03868
3261.25246,0.03878
3259.19229,0.03884
3257.13212,0.03876
3255.07194,0.03877
3253.01177,0.03882
3250.95160,0.03879
3248.89143,0.03883
3246.83126,0.03886
3244.77108,0.03856
3242.71091,0.03805
3240.65074,0.03781
3238.59057,0.03796
3236.53040,0.03816
3234.47022,0.03805
3232.41005,0.03767
3230.34988,0.03735
3228.28971,0.03732
3226.22954,0.03760
3224.16936,0.03800
3222.10919,0.03810
3220.04902,0.03786
3217.98885,0.03762
3215.92867,0.03742
3213.86850,0.03723
3211.80833,0.03719
3209.74816,0.03712
3207.68799,0.03701
3205.62781,0.03705
3203.56764,0.03719
3201.50747,0.03726
3199.44730,0.03718
3197.38713,0.03703
3195.32695,0.03699
3193.26678,0.03701
3191.20661,0.03702
3189.14644,0.03696
3187.08626,0.03678
3185.02609,0.03657
3182.96592,0.03636
3180.90575,0.03607
3178.84558,0.03566
3176.78540,0.03547
3174.72523,0.03576
3172.66506,0.03607
3170.60489,0.03598
3168.54472,0.03567
3166.48454,0.03546
3164.42437,0.03534
3162.36420,0.03520
3160.30403,0.03508
3158.24386,0.03498
3156.18368,0.03486
3154.12351,0.03482
3152.06334,0.03473
3150.00317,0.03446
3147.94299,0.03429
3145.88282,0.03425
3143.82265,0.03419
3141.76248,0.03411
3139.70231,0.03402
3137.64213,0.03393
3135.58196,0.03366
3133.52179,0.03322
3131.46162,0.03304
3129.40145,0.03310
3127.34127,0.03319
3125.28110,0.03311
3123.22093,0.03283
3121.16076,0.03252
3119.10058,0.03231
3117.04041,0.03221
3114.98024,0.03225
3112.92007,0.03246
3110.85990,0.03254
3108.79972,0.03221
3106.73955,0.03171
3104.67938,0.03139
3102.61921,0.03118
3100.55904,0.03096
3098.49886,0.03108
3096.43869,0.03143
3094.37852,0.03141
3092.31835,0.03115
3090.25818,0.03107
3088.19800,0.03107
3086.13783,0.03096
3084.07766,0.03072
3082.01749,0.03033
3079.95731,0.02993
3077.89714,0.02972
3075.83697,0.02977
3073.77680,0.02983
3071.71663,0.02967
3069.65645,0.02936
3067.59628,0.02924
3065.53611,0.02934
3063.47594,0.02939
3061.41577,0.02927
3059.35559,0.02909
3057.29542,0.02888
3055.23525,0.02852
3053.17508,0.02807
3051.11491,0.02774
3049.05473,0.02760
3046.99456,0.02759
3044.93439,0.02766
3042.87422,0.02765
3040.81404,0.02739
3038.75387,0.02714
3036.69370,0.02703
3034.63353,0.02691
3032.57336,0.02678
3030.51318,0.02676
3028.45301,0.02678
3026.39284,0.02666
3024.33267,0.02639
3022.27250,0.02619
3020.21232,0.02594
3018.15215,0.02564
3016.09198,0.02551
3014.03181,0.02542
3011.97163,0.02518
3009.91146,0.02502
3007.85129,0.02515
3005.79112,0.02525
3003.73095,0.02497
3001.67077,0.02457
2999.61060,0.02438
2997.55043,0.02434
2995.49026,0.02434
2993.43009,0.02433
2991.36991,0.02426
2989.30974,0.02410
2987.24957,0.02393
2985.18940,0.02382
2983.12923,0.02374
2981.06905,0.02371
2979.00888,0.02372
2976.94871,0.02362
2974.88854,0.02356
2972.82836,0.02360
2970.76819,0.02354
2968.70802,0.02340
2966.64785,0.02331
2964.58768,0.02333
2962.52750,0.02347
2960.46733,0.02356
2958.40716,0.02349
2956.34699,0.02325
2954.28682,0.02293
2952.22664,0.02276
2950.16647,0.02277
2948.10630,0.02264
2946.04613,0.02242
2943.98596,0.02246
2941.92578,0.02262
2939.86561,0.02262
2937.80544,0.02250
2935.74527,0.02231
2933.68509,0.02212
2931.62492,0.02201
2929.56475,0.02202
2927.50458,0.02211
2925.44441,0.02222
2923.38423,0.02236
2921.32406,0.02236
2919.26389,0.02213
2917.20372,0.02182
2915.14355,0.02159
2913.08337,0.02139
2911.02320,0.02111
2908.96303,0.02081
2906.90286,0.02056
2904.84268,0.02034
2902.78251,0.02011
2900.72234,0.01994
2898.66217,0.01984
2896.60200,0.01982
2894.54182,0.01984
2892.48165,0.01980
2890.42148,0.01974
2888.36131,0.01975
2886.30114,0.01975
2884.24096,0.01956
2882.18079,0.01932
2880.12062,0.01922
2878.06045,0.01905
2876.00028,0.01882
2873.94010,0.01885
2871.87993,0.01902
2869.81976,0.01896
2867.75959,0.01860
2865.69941,0.01822
2863.63924,0.01806
2861.57907,0.01796
2859.51890,0.01790
2857.45873,0.01799
2855.39855,0.01796
2853.33838,0.01773
2851.27821,0.01740
2849.21804,0.01701
2847.15787,0.01680
2845.09769,0.01671
2843.03752,0.01658
2840.97735,0.01651
2838.91718,0.01655
2836.85700,0.01646
2834.79683,0.01621
2832.73666,0.01603
2830.67649,0.01586
2828.61632,0.01568
2826.55614,0.01559
2824.49597,0.01548
2822.43580,0.01532
2820.37563,0.01524
2818.31546,0.01522
2816.25528,0.01508
2814.19511,0.01493
2812.13494,0.01492
2810.07477,0.01486
2808.01460,0.01475
2805.95442,0.01485
2803.89425,0.01495
2801.83408,0.01481
2799.77391,0.01477
2797.71373,0.01492
2795.65356,0.01485
2793.59339,0.01459
2791.53322,0.01441
2789.47305,0.01420
2787.41287,0.01395
2785.35270,0.01381
2783.29253,0.01377
2781.23236,0.01381
2779.17219,0.01381
2777.11201,0.01365
2775.05184,0.01345
2772.99167,0.01325
2770.93150,0.01319
2768.87133,0.01331
2766.81115,0.01326
2764.75098,0.01299
2762.69081,0.01285
2760.63064,0.01296
2758.57046,0.01309
2756.51029,0.01309
2754.45012,0.01309
2752.38995,0.01308
2750.32978,0.01285
2748.26960,0.01252
2746.20943,0.01237
2744.14926,0.01237
2742.08909,0.01231
2740.02892,0.01222
2737.96874,0.01234
2735.90857,0.01244
2733.84840,0.01226
2731.78823,0.01217
2729.72805,0.01227
2727.66788,0.01222
2725.60771,0.01189
2723.54754,0.01145
2721.48737,0.01124
2719.42719,0.01132
2717.36702,0.01140
2715.30685,0.01141
2713.24668,0.01145
2711.18651,0.01137
2709.12633,0.01119
2707.06616,0.01110
2705.00599,0.01105
2702.94582,0.01098
2700.88565,0.01100
2698.82547,0.01106
2696.76530,0.01100
2694.70513,0.01091
2692.64496,0.01082
2690.58478,0.01066
2688.52461,0.01050
2686.46444,0.01050
2684.40427,0.01057
2682.34410,0.01054
2680.28392,0.01047
2678.22375,0.01035
2676.16358,0.01018
2674.10341,0.01006
2672.04324,0.01003
2669.98306,0.01008
2667.92289,0.01025
2665.86272,0.01040
2663.80255,0.01039
2661.74238,0.01025
2659.68220,0.01011
2657.62203,0.01013
2655.56186,0.01014
2653.50169,0.00992
2651.44151,0.00976
2649.38134,0.00965
2647.32117,0.00944
2645.26100,0.00927
2643.20083,0.00927
2641.14065,0.00941
2639.08048,0.00958
2637.02031,0.00964
2634.96014,0.00933
2632.89997,0.00889
2630.83979,0.00877
2628.77962,0.00882
2626.71945,0.00875
2624.65928,0.00861
2622.59910,0.00847
2620.53893,0.00829
2618.47876,0.00830
2616.41859,0.00855
2614.35842,0.00880
2612.29824,0.00897
2610.23807,0.00883
2608.17790,0.00849
2606.11773,0.00838
2604.05756,0.00839
2601.99738,0.00821
2599.93721,0.00796
2597.87704,0.00790
2595.81687,0.00795
2593.75670,0.00791
2591.69652,0.00779
2589.63635,0.00768
2587.57618,0.00775
2585.51601,0.00790
2583.45583,0.00811
2581.39566,0.00842
2579.33549,0.00839
2577.27532,0.00812
2575.21515,0.00797
2573.15497,0.00793
2571.09480,0.00783
2569.03463,0.00764
2566.97446,0.00753
2564.91429,0.00770
2562.85411,0.00805
2560.79394,0.00831
2558.73377,0.00817
2556.67360,0.00767
2554.61342,0.00722
2552.55325,0.00705
2550.49308,0.00716
2548.43291,0.00738
2546.37274,0.00761
2544.31256,0.00767
2542.25239,0.00745
2540.19222,0.00732
2538.13205,0.00738
2536.07188,0.00746
2534.01170,0.00751
2531.95153,0.00745
2529.89136,0.00721
2527.83119,0.00690
2525.77102,0.00698
2523.71084,0.00748
2521.65067,0.00774
2519.59050,0.00748
2517.53033,0.00718
2515.47015,0.00725
2513.40998,0.00746
2511.34981,0.00744
2509.28964,0.00726
2507.22947,0.00721
2505.16929,0.00738
2503.10912,0.00763
2501.04895,0.00765
2498.98878,0.00751
2496.92861,0.00763
2494.86843,0.00793
2492.80826,0.00794
2490.74809,0.00782
2488.68792,0.00790
2486.62775,0.00791
2484.56757,0.00775
2482.50740,0.00759
2480.44723,0.00737
2478.38706,0.00722
2476.32688,0.00747
2474.26671,0.00791
2472.20654,0.00798
2470.14637,0.00781
2468.08620,0.00775
2466.02602,0.00774
2463.96585,0.00789
2461.90568,0.00816
2459.84551,0.00829
2457.78534,0.00831
2455.72516,0.00808
2453.66499,0.00749
2451.60482,0.00724
2449.54465,0.00759
2447.48447,0.00788
2445.42430,0.00782
2443.36413,0.00762
2441.30396,0.00761
2439.24379,0.00786
2437.18361,0.00779
2435.12344,0.00743
2433.06327,0.00735
2431.00310,0.00747
2428.94293,0.00752
2426.88275,0.00749
2424.82258,0.00764
2422.76241,0.00800
2420.70224,0.00814
2418.64207,0.00802
2416.58189,0.00782
2414.52172,0.00762
2412.46155,0.00761
2410.40138,0.00787
2408.34120,0.00803
2406.28103,0.00797
2404.22086,0.00782
2402.16069,0.00745
2400.10052,0.00710
2398.04034,0.00673
2395.98017,0.00694
2393.92000,0.00728
2391.85983,0.00748
2389.79966,0.00776
2387.73948,0.00818
2385.67931,0.00846
2383.61914,0.00852
2381.55897,0.00852
2379.49880,0.00847
2377.43862,0.00824
2375.37845,0.00812
2373.31828,0.00830
2371.25811,0.00882
2369.19793,0.00956
2367.13776,0.01008
2365.07759,0.01045
2363.01742,0.01092
2360.95725,0.01008
2358.89707,0.00857
2356.83690,0.00761
2354.77673,0.00792
2352.71656,0.00867
2350.65639,0.00863
2348.59621,0.00882
2346.53604,0.01031
2344.47587,0.01039
2342.41570,0.00964
2340.35552,0.00893
2338.29535,0.00836
2336.23518,0.00851
2334.17501,0.00936
2332.11484,0.01031
2330.05466,0.01083
2327.99449,0.01097
2325.93432,0.01056
2323.87415,0.01024
2321.81398,0.00998
2319.75380,0.00995
2317.69363,0.00936
2315.63346,0.00856
2313.57329,0.00811
2311.51312,0.00817
2309.45294,0.00861
2307.39277,0.00895
2305.33260,0.00900
2303.27243,0.00882
2301.21225,0.00872
2299.15208,0.00894
2297.09191,0.00935
2295.03174,0.00951
2292.97157,0.00918
2290.91139,0.00884
2288.85122,0.00882
2286.79105,0.00876
2284.73088,0.00822
2282.67071,0.00739
2280.61053,0.00665
2278.55036,0.00620
2276.49019,0.00637
2274.43002,0.00715
2272.36984,0.00775
2270.30967,0.00756
2268.24950,0.00680
2266.18933,0.00624
2264.12916,0.00658
2262.06898,0.00736
2260.00881,0.00746
2257.94864,0.00706
2255.88847,0.00711
2253.82830,0.00727
2251.76812,0.00684
2249.70795,0.00631
2247.64778,0.00656
2245.58761,0.00713
2243.52744,0.00723
2241.46726,0.00699
2239.40709,0.00697
2237.34692,0.00710
2235.28675,0.00717
2233.22657,0.00684
2231.16640,0.00618
2229.10623,0.00573
2227.04606,0.00595
2224.98589,0.00658
2222.92571,0.00679
2220.86554,0.00656
2218.80537,0.00600
2216.74520,0.00561
2214.68503,0.00620
2212.62485,0.00659
2210.56468,0.00569
2208.50451,0.00488
2206.44434,0.00533
2204.38417,0.00613
2202.32399,0.00642
2200.26382,0.00664
2198.20365,0.00685
2196.14348,0.00632
2194.08330,0.00509
2192.02313,0.00426
2189.96296,0.00445
2187.90279,0.00531
2185.84262,0.00595
2183.78244,0.00492
2181.72227,0.00311
2179.66210,0.00294
2177.60193,0.00404
2175.54176,0.00498
2173.48158,0.00548
2171.42141,0.00577
2169.36124,0.00568
2167.30107,0.00502
2165.24089,0.00520
2163.18072,0.00536
2161.12055,0.00273
2159.06038,0.00000
2157.00021,0.00036
2154.94003,0.00137
2152.87986,0.00172
2150.81969,0.00235
2148.75952,0.00319
2146.69935,0.00437
2144.63917,0.00561
2142.57900,0.00544
2140.51883,0.00413
2138.45866,0.00300
2136.39849,0.00261
2134.33831,0.00317
2132.27814,0.00389
2130.21797,0.00396
2128.15780,0.00390
2126.09762,0.00438
2124.03745,0.00472
2121.97728,0.00408
2119.91711,0.00326
2117.85694,0.00345
2115.79676,0.00415
2113.73659,0.00453
2111.67642,0.00481
2109.61625,0.00537
2107.55608,0.00575
2105.49590,0.00526
2103.43573,0.00424
2101.37556,0.00371
2099.31539,0.00395
2097.25521,0.00389
2095.19504,0.00324
2093.13487,0.00338
2091.07470,0.00433
2089.01453,0.00484
2086.95435,0.00447
2084.89418,0.00423
2082.83401,0.00423
2080.77384,0.00384
2078.71367,0.00364
2076.65349,0.00364
2074.59332,0.00361
2072.53315,0.00389
2070.47298,0.00418
2068.41281,0.00427
2066.35263,0.00402
2064.29246,0.00331
2062.23229,0.00304
2060.17212,0.00365
2058.11194,0.00440
2056.05177,0.00453
2053.99160,0.00411
2051.93143,0.00391
2049.87126,0.00395
2047.81108,0.00389
2045.75091,0.00399
2043.69074,0.00448
2041.63057,0.00492
2039.57040,0.00499
2037.51022,0.00410
2035.45005,0.00216
2033.38988,0.00161
2031.32971,0.00276
2029.26954,0.00274
2027.20936,0.00227
2025.14919,0.00359
2023.08902,0.00521
2021.02885,0.00510
2018.96867,0.00367
2016.90850,0.00250
2014.84833,0.00231
2012.78816,0.00248
2010.72799,0.00261
2008.66781,0.00250
2006.60764,0.00217
2004.54747,0.00231
2002.48730,0.00310
2000.42713,0.00359
1998.36695,0.00297
1996.30678,0.00187
1994.24661,0.00203
1992.18644,0.00348
1990.12626,0.00381
1988.06609,0.00241
1986.00592,0.00139
1983.94575,0.00177
1981.88558,0.00230
1979.82540,0.00207
1977.76523,0.00181
1975.70506,0.00148
1973.64489,0.00053
1971.58472,0.00000
1969.52454,0.00037
1967.46437,0.00058
1965.40420,0.00028
1963.34403,0.00005
1961.28386,-0.00005
1959.22368,0.00020
1957.16351,0.00056
1955.10334,0.00047
1953.04317,0.00026
1950.98299,0.00050
1948.92282,0.00140
1946.86265,0.00227
1944.80248,0.00222
1942.74231,0.00155
1940.68213,0.00130
1938.62196,0.00168
1936.56179,0.00181
1934.50162,0.00132
1932.44145,0.00092
1930.38127,0.00096
1928.32110,0.00107
1926.26093,0.00124
1924.20076,0.00166
1922.14059,0.00183
1920.08041,0.00147
1918.02024,0.00114
1915.96007,0.00140
1913.89990,0.00202
1911.83972,0.00241
1909.77955,0.00228
1907.71938,0.00189
1905.65921,0.00152
1903.59904,0.00151
1901.53886,0.00185
1899.47869,0.00198
1897.41852,0.00172
1895.35835,0.00134
1893.29818,0.00116
1891.23800,0.00126
1889.17783,0.00139
1887.11766,0.00154
1885.05749,0.00181
1882.99731,0.00194
1880.93714,0.00175
1878.87697,0.00165
1876.81680,0.00213
1874.75663,0.00290
1872.69645,0.00324
1870.63628,0.00293
1868.57611,0.00239
1866.51594,0.00213
1864.45577,0.00206
1862.39559,0.00194
1860.33542,0.00182
1858.27525,0.00192
1856.21508,0.00221
1854.15491,0.00236
1852.09473,0.00225
1850.03456,0.00203
1847.97439,0.00186
1845.91422,0.00192
1843.85404,0.00212
1841.79387,0.00216
1839.73370,0.00210
1837.67353,0.00209
1835.61336,0.00204
1833.55318,0.00193
1831.49301,0.00192
1829.43284,0.00210
1827.37267,0.00221
1825.31250,0.00212
1823.25232,0.00194
1821.19215,0.00180
1819.13198,0.00177
1817.07181,0.00179
1815.01163,0.00163
1812.95146,0.00138
1810.89129,0.00141
1808.83112,0.00177
1806.77095,0.00203
1804.71077,0.00198
1802.65060,0.00188
1800.59043,0.00191
1798.53026,0.00192
1796.47009,0.00192
1794.40991,0.00195
1792.34974,0.00201
1790.28957,0.00204
1788.22940,0.00212
1786.16923,0.00231
1784.10905,0.00249
1782.04888,0.00260
1779.98871,0.00267
1777.92854,0.00266
1775.86836,0.00263
1773.80819,0.00270
1771.74802,0.00285
1769.68785,0.00290
1767.62768,0.00286
1765.56750,0.00294
1763.50733,0.00321
1761.44716,0.00359
1759.38699,0.00401
1757.32682,0.00432
1755.26664,0.00447
1753.20647,0.00461
1751.14630,0.00478
1749.08613,0.00487
1747.02596,0.00487
1744.96578,0.00491
1742.90561,0.00505
1740.84544,0.00513
1738.78527,0.00507
1736.72509,0.00506
1734.66492,0.00515
1732.60475,0.00530
1730.54458,0.00551
1728.48441,0.00576
1726.42423,0.00590
1724.36406,0.00591
1722.30389,0.00582
1720.24372,0.00572
1718.18355,0.00582
1716.12337,0.00615
1714.06320,0.00646
1712.00303,0.00674
1709.94286,0.00708
1707.88268,0.00742
1705.82251,0.00762
1703.76234,0.00767
1701.70217,0.00781
1699.64200,0.00836
1697.58182,0.00908
1695.52165,0.00960
1693.46148,0.01006
1691.40131,0.01062
1689.34114,0.01123
1687.28096,0.01170
1685.22079,0.01211
1683.16062,0.01287
1681.10045,0.01388
1679.04028,0.01468
1676.98010,0.01521
1674.91993,0.01573
1672.85976,0.01637
1670.79959,0.01701
1668.73941,0.01762
1666.67924,0.01825
1664.61907,0.01892
1662.55890,0.01952
1660.49873,0.01995
1658.43855,0.02036
1656.37838,0.02089
1654.31821,0.02132
1652.25804,0.02137
1650.19787,0.02138
1648.13769,0.02140
1646.07752,0.02124
1644.01735,0.02110
1641.95718,0.02113
1639.89701,0.02123
1637.83683,0.02119
1635.77666,0.02069
1633.71649,0.01995
1631.65632,0.01963
1629.59614,0.01955
1627.53597,0.01931
1625.47580,0.01894
1623.41563,0.01850
1621.35546,0.01813
1619.29528,0.01791
1617.23511,0.01749
1615.17494,0.01683
1613.11477,0.01639
1611.05460,0.01624
1608.99442,0.01612
1606.93425,0.01587
1604.87408,0.01555
1602.81391,0.01523
1600.75373,0.01491
1598.69356,0.01466
1596.63339,0.01437
1594.57322,0.01399
1592.51305,0.01368
1590.45287,0.01345
1588.39270,0.01317
1586.33253,0.01285
1584.27236,0.01254
1582.21219,0.01237
1580.15201,0.01241
1578.09184,0.01247
1576.03167,0.01232
1573.97150,0.01203
1571.91133,0.01175
1569.85115,0.01144
1567.79098,0.01119
1565.73081,0.01116
1563.67064,0.01131
1561.61046,0.01144
1559.55029,0.01117
1557.49012,0.01061
1555.42995,0.01058
1553.36978,0.01085
1551.30960,0.01088
1549.24943,0.01054
1547.18926,0.01009
1545.12909,0.00983
1543.06892,0.00975
1541.00874,0.00950
1538.94857,0.00901
1536.88840,0.00881
1534.82823,0.00875
1532.76805,0.00845
1530.70788,0.00812
1528.64771,0.00798
1526.58754,0.00801
1524.52737,0.00818
1522.46719,0.00830
1520.40702,0.00818
1518.34685,0.00790
1516.28668,0.00750
1514.22651,0.00708
1512.16633,0.00691
1510.10616,0.00699
1508.04599,0.00691
1505.98582,0.00626
1503.92565,0.00571
1501.86547,0.00555
1499.80530,0.00539
1497.74513,0.00505
1495.68496,0.00466
1493.62478,0.00449
1491.56461,0.00453
1489.50444,0.00454
1487.44427,0.00445
1485.38410,0.00439
1483.32392,0.00439
1481.26375,0.00432
1479.20358,0.00423
1477.14341,0.00425
1475.08324,0.00441
1473.02306,0.00462
1470.96289,0.00478
1468.90272,0.00489
1466.84255,0.00504
1464.78238,0.00524
1462.72220,0.00545
1460.66203,0.00558
1458.60186,0.00555
1456.54169,0.00545
1454.48151,0.00548
1452.42134,0.00562
1450.36117,0.00571
1448.30100,0.00576
1446.24083,0.00576
1444.18065,0.00577
1442.12048,0.00581
1440.06031,0.00588
1438.00014,0.00595
1435.93997,0.00591
1433.87979,0.00585
1431.81962,0.00589
1429.75945,0.00600
1427.69928,0.00615
1425.63910,0.00632
1423.57893,0.00652
1421.51876,0.00677
1419.45859,0.00699
1417.39842,0.00712
1415.33824,0.00723
1413.27807,0.00741
1411.21790,0.00755
1409.15773,0.00757
1407.09756,0.00746
1405.03738,0.00725
1402.97721,0.00700
1400.91704,0.00683
1398.85687,0.00673
1396.79670,0.00654
1394.73652,0.00623
1392.67635,0.00601
1390.61618,0.00600
1388.55601,0.00602
1386.49583,0.00592
1384.43566,0.00572
1382.37549,0.00556
1380.31532,0.00547
1378.25515,0.00539
1376.19497,0.00531
1374.13480,0.00522
1372.07463,0.00512
1370.01446,0.00501
1367.95429,0.00496
1365.89411,0.00497
1363.83394,0.00490
1361.77377,0.00469
1359.71360,0.00446
1357.65343,0.00433
1355.59325,0.00428
1353.53308,0.00420
1351.47291,0.00401
1349.41274,0.00382
1347.35256,0.00369
1345.29239,0.00356
1343.23222,0.00347
1341.17205,0.00345
1339.11188,0.00344
1337.05170,0.00343
1334.99153,0.00343
1332.93136,0.00341
1330.87119,0.00339
1328.81102,0.00347
1326.75084,0.00364
1324.69067,0.00380
1322.63050,0.00385
1320.57033,0.00383
1318.51015,0.00376
1316.44998,0.00367
1314.38981,0.00355
1312.32964,0.00341
1310.26947,0.00338
1308.20929,0.00335
1306.14912,0.00320
1304.08895,0.00310
1302.02878,0.00321
1299.96861,0.00336
1297.90843,0.00347
1295.84826,0.00360
1293.78809,0.00376
1291.72792,0.00388
1289.66775,0.00390
1287.60757,0.00382
1285.54740,0.00377
1283.48723,0.00379
1281.42706,0.00386
1279.36688,0.00396
1277.30671,0.00393
1275.24654,0.00386
1273.18637,0.00398
1271.12620,0.00419
1269.06602,0.00426
1267.00585,0.00416
1264.94568,0.00404
1262.88551,0.00404
1260.82534,0.00418
1258.76516,0.00436
1256.70499,0.00443
1254.64482,0.00439
1252.58465,0.00428
1250.52447,0.00414
1248.46430,0.00408
1246.40413,0.00413
1244.34396,0.00426
1242.28379,0.00433
1240.22361,0.00422
1238.16344,0.00393
1236.10327,0.00355
1234.04310,0.00325
1231.98293,0.00308
1229.92275,0.00300
1227.86258,0.00293
1225.80241,0.00281
1223.74224,0.00254
1221.68207,0.00223
1219.62189,0.00202
1217.56172,0.00186
1215.50155,0.00154
1213.44138,0.00122
1211.38120,0.00100
1209.32103,0.00075
1207.26086,0.00047
1205.20069,0.00026
1203.14052,0.00017
1201.08034,0.00013
1199.02017,0.00012
1196.96000,0.00017
1194.89983,0.00016
1192.83966,0.00003
1190.77948,0.00000
1188.71931,0.00011
1186.65914,0.00011
1184.59897,0.00008
1182.53880,0.00027
1180.47862,0.00060
1178.41845,0.00090
1176.35828,0.00118
1174.29811,0.00144
1172.23793,0.00167
1170.17776,0.00198
1168.11759,0.00238
1166.05742,0.00276
1163.99725,0.00304
1161.93707,0.00344
1159.87690,0.00394
1157.81673,0.00436
1155.75656,0.00475
1153.69639,0.00531
1151.63621,0.00603
1149.57604,0.00664
1147.51587,0.00704
1145.45570,0.00744
1143.39552,0.00797
1141.33535,0.00850
1139.27518,0.00904
1137.21501,0.00965
1135.15484,0.01027
1133.09466,0.01101
1131.03449,0.01193
1128.97432,0.01284
1126.91415,0.01370
1124.85398,0.01469
1122.79380,0.01595
1120.73363,0.01734
1118.67346,0.01868
1116.61329,0.01999
1114.55312,0.02123
1112.49294,0.02234
1110.43277,0.02331
1108.37260,0.02435
1106.31243,0.02555
1104.25225,0.02677
1102.19208,0.02797
1100.13191,0.02911
1098.07174,0.03015
1096.01157,0.03117
1093.95139,0.03210
1091.89122,0.03276
1089.83105,0.03323
1087.77088,0.03379
1085.71071,0.03454
1083.65053,0.03546
1081.59036,0.03629
1079.53019,0.03687
1077.47002,0.03734
1075.40985,0.03786
1073.34967,0.03830
1071.28950,0.03862
1069.22933,0.03874
1067.16916,0.03839
1065.10898,0.03773
1063.04881,0.03728
1060.98864,0.03713
1058.92847,0.03672
1056.86830,0.03591
1054.80812,0.03510
1052.74795,0.03436
1050.68778,0.03342
1048.62761,0.03227
1046.56744,0.03110
1044.50726,0.02991
1042.44709,0.02866
1040.38692,0.02735
1038.32675,0.02601
1036.26657,0.02467
1034.20640,0.02328
1032.14623,0.02198
1030.08606,0.02083
1028.02589,0.01968
1025.96571,0.01861
1023.90554,0.01773
1021.84537,0.01690
1019.78520,0.01617
1017.72503,0.01556
1015.66485,0.01496
1013.60468,0.01454
1011.54451,0.01437
1009.48434,0.01444
1007.42417,0.01468
1005.36399,0.01497
1003.30382,0.01528
1001.24365,0.01565
999.18348,0.01617
997.12330,0.01694
995.06313,0.01786
993.00296,0.01864
990.94279,0.01930
988.88262,0.02005
986.82244,0.02071
984.76227,0.02085
982.70210,0.02062
980.64193,0.02036
978.58176,0.01994
976.52158,0.01938
974.46141,0.01872
972.40124,0.01780
970.34107,0.01674
968.28089,0.01576
966.22072,0.01477
964.16055,0.01352
962.10038,0.01214
960.04021,0.01103
957.98003,0.01024
955.91986,0.00945
953.85969,0.00852
951.79952,0.00753
949.73935,0.00644
947.67917,0.00534
945.61900,0.00448
943.55883,0.00388
941.49866,0.00341
939.43849,0.00306
937.37831,0.00280
935.31814,0.00240
933.25797,0.00182
931.19780,0.00125
929.13762,0.00085
927.07745,0.00078
925.01728,0.00086
922.95711,0.00065
920.89694,0.00037
918.83676,0.00033
916.77659,0.00023
914.71642,0.00007
912.65625,0.00010
910.59608,0.00016
908.53590,0.00006
906.47573,0.00000
904.41556,0.00003
902.35539,0.00014
900.29522,0.00043
898.23504,0.00051
896.17487,0.00033
894.11470,0.00041
892.05453,0.00085
889.99435,0.00138
887.93418,0.00166
885.87401,0.00180
883.81384,0.00213
881.75367,0.00250
879.69349,0.00266
877.63332,0.00281
875.57315,0.00309
873.51298,0.00346
871.45281,0.00387
869.39263,0.00418
867.33246,0.00437
865.27229,0.00476
863.21212,0.00546
861.15194,0.00597
859.09177,0.00586
857.03160,0.00577
854.97143,0.00597
852.91126,0.00566
850.85108,0.00500
848.79091,0.00483
846.73074,0.00499
844.67057,0.00505
842.61040,0.00509
840.55022,0.00507
838.49005,0.00472
836.42988,0.00414
834.36971,0.00368
832.30954,0.00338
830.24936,0.00300
828.18919,0.00249
826.12902,0.00206
824.06885,0.00179
822.00867,0.00168
819.94850,0.00170
817.88833,0.00154
815.82816,0.00139
813.76799,0.00151
811.70781,0.00154
809.64764,0.00143
807.58747,0.00157
805.52730,0.00190
803.46713,0.00174
801.40695,0.00119
799.34678,0.00096
797.28661,0.00076
795.22644,0.00025
793.16627,0.00000
791.10609,0.00012
789.04592,0.00012
786.98575,0.00003
784.92558,0.00006
782.86540,0.00035
780.80523,0.00108
778.74506,0.00163
776.68489,0.00114
774.62472,0.00027
772.56454,0.00019
770.50437,0.00053
768.44420,0.00029
766.38403,-0.00015
764.32386,-0.00031
762.26368,-0.00071
760.20351,-0.00087
758.14334,-0.00021
756.08317,0.00053
754.02299,0.00100
751.96282,0.00138
749.90265,0.00155
747.84248,0.00130
745.78231,0.00079
743.72213,0.00047
741.66196,0.00040
739.60179,0.00039
737.54162,0.00065
735.48145,0.00085
733.42127,0.00060
731.36110,0.00021
729.30093,0.00000
727.24076,0.00005
725.18059,0.00014
723.12041,0.00026
721.06024,0.00022
719.00007,0.00012
716.93990,0.00017
714.87972,0.00033
712.81955,0.00033
710.75938,0.00003
708.69921,-0.00028
706.63904,-0.00041
704.57886,-0.00039
702.51869,-0.00016
700.45852,0.00040
698.39835,0.00110
696.33818,0.00166
694.27800,0.00200
692.21783,0.00217
690.15766,0.00209
688.09749,0.00189
686.03731,0.00177
683.97714,0.00154
681.91697,0.00140
679.85680,0.00157
677.79663,0.00181
675.73645,0.00191
673.67628,0.00119
671.61611,-0.00062
669.55594,-0.00011
667.49577,0.00269
665.43559,0.00136
663.37542,0.00233
661.31525,0.00307
659.25508,0.00254
657.19491,0.00151
655.13473,0.00100
653.07456,0.00118
651.01439,0.00187
648.95422,0.00308
646.89404,0.00404
644.83387,0.00362
642.77370,0.00235
640.71353,0.00193
638.65336,0.00215
636.59318,0.00213
634.53301,0.00223
632.47284,0.00289
630.41267,0.00386
628.35250,0.00434
626.29232,0.00353
624.23215,0.00224
622.17198,0.00155
620.11181,0.00112
618.05164,0.00050
615.99146,0.00000
613.93129,-0.00051
611.87112,-0.00048
609.81095,0.00050
607.75077,0.00141
605.69060,0.00093
603.63043,0.00020
601.57026,0.00040
599.51009,0.00000
