3996.73391,0.01547
3994.67373,0.01546
3992.61356,0.01553
3990.55339,0.01571
3988.49322,0.01580
3986.43305,0.01569
3984.37287,0.01553
3982.31270,0.01551
3980.25253,0.01557
3978.19236,0.01545
3976.13219,0.01501
3974.07201,0.01465
3972.01184,0.01474
3969.95167,0.01506
3967.89150,0.01540
3965.83133,0.01578
3963.77115,0.01597
3961.71098,0.01572
3959.65081,0.01528
3957.59064,0.01508
3955.53046,0.01517
3953.47029,0.01537
3951.41012,0.01561
3949.34995,0.01579
3947.28978,0.01576
3945.22960,0.01568
3943.16943,0.01568
3941.10926,0.01556
3939.04909,0.01532
3936.98892,0.01521
3934.92874,0.01523
3932.86857,0.01542
3930.80840,0.01579
3928.74823,0.01601
3926.68805,0.01604
3924.62788,0.01611
3922.56771,0.01604
3920.50754,0.01560
3918.44737,0.01516
3916.38719,0.01527
3914.32702,0.01572
3912.26685,0.01588
3910.20668,0.01578
3908.14651,0.01585
3906.08633,0.01611
3904.02616,0.01621
3901.96599,0.01593
3899.90582,0.01565
3897.84565,0.01573
3895.78547,0.01588
3893.72530,0.01577
3891.66513,0.01553
3889.60496,0.01540
3887.54478,0.01553
3885.48461,0.01575
3883.42444,0.01581
3881.36427,0.01577
3879.30410,0.01563
3877.24392,0.01530
3875.18375,0.01518
3873.12358,0.01561
3871.06341,0.01608
3869.00324,0.01612
3866.94306,0.01609
3864.88289,0.01620
3862.82272,0.01635
3860.76255,0.01659
3858.70237,0.01678
3856.64220,0.01682
3854.58203,0.01669
3852.52186,0.01641
3850.46169,0.01625
3848.40151,0.01624
3846.34134,0.01605
3844.28117,0.01577
3842.22100,0.01574
3840.16083,0.01580
3838.10065,0.01563
3836.04048,0.01551
3833.98031,0.01563
3831.92014,0.01581
3829.85997,0.01590
3827.79979,0.01603
3825.73962,0.01629
3823.67945,0.01650
3821.61928,0.01650
3819.55910,0.01612
3817.49893,0.01553
3815.43876,0.01528
3813.37859,0.01545
3811.31842,0.01563
3809.25824,0.01571
3807.19807,0.01577
3805.13790,0.01580
3803.07773,0.01585
3801.01756,0.01582
3798.95738,0.01561
3796.89721,0.01549
3794.83704,0.01565
3792.77687,0.01592
3790.71670,0.01606
3788.65652,0.01598
3786.59635,0.01586
3784.53618,0.01596
3782.47601,0.01621
3780.41583,0.01630
3778.35566,0.01610
3776.29549,0.01595
3774.23532,0.01610
3772.17515,0.01637
3770.11497,0.01650
3768.05480,0.01631
3765.99463,0.01590
3763.93446,0.01562
3761.87429,0.01577
3759.81411,0.01616
3757.75394,0.01649
3755.69377,0.01683
3753.63360,0.01704
3751.57342,0.01684
3749.51325,0.01659
3747.45308,0.01668
3745.39291,0.01679
3743.33274,0.01683
3741.27256,0.01707
3739.21239,0.01759
3737.15222,0.01815
3735.09205,0.01831
3733.03188,0.01786
3730.97170,0.01750
3728.91153,0.01749
3726.85136,0.01726
3724.79119,0.01663
3722.73102,0.01605
3720.67084,0.01592
3718.61067,0.01630
3716.55050,0.01674
3714.49033,0.01665
3712.43015,0.01634
3710.36998,0.01655
3708.30981,0.01714
3706.24964,0.01761
3704.18947,0.01786
3702.12929,0.01782
3700.06912,0.01739
3698.00895,0.01700
3695.94878,0.01698
3693.88861,0.01712
3691.82843,0.01716
3689.76826,0.01704
3687.70809,0.01683
3685.64792,0.01680
3683.58775,0.01690
3681.52757,0.01706
3679.46740,0.01742
3677.40723,0.01799
3675.34706,0.01845
3673.28688,0.01837
3671.22671,0.01785
3669.16654,0.01743
3667.10637,0.01743
3665.04620,0.01756
3662.98602,0.01755
3660.92585,0.01759
3658.86568,0.01783
3656.80551,0.01817
3654.74534,0.01842
3652.68516,0.01838
3650.62499,0.01805
3648.56482,0.01799
3646.50465,0.01850
3644.44447,0.01899
3642.38430,0.01910
3640.32413,0.01933
3638.26396,0.02006
3636.20379,0.02076
3634.14361,0.02086
3632.08344,0.02060
3630.02327,0.02047
3627.96310,0.02067
3625.90293,0.02114
3623.84275,0.02154
3621.78258,0.02147
3619.72241,0.02096
3617.66224,0.02068
3615.60207,0.02114
3613.54189,0.02211
3611.48172,0.02293
3609.42155,0.02344
3607.36138,0.02407
3605.30120,0.02471
3603.24103,0.02480
3601.18086,0.02431
3599.12069,0.02383
3597.06052,0.02378
3595.00034,0.02394
3592.94017,0.02395
3590.88000,0.02374
3588.81983,0.02354
3586.75966,0.02367
3584.69948,0.02422
3582.63931,0.02492
3580.57914,0.02530
3578.51897,0.02528
3576.45879,0.02525
3574.39862,0.02543
3572.33845,0.02578
3570.27828,0.02620
3568.21811,0.02627
3566.15793,0.02589
3564.09776,0.02579
3562.03759,0.02630
3559.97742,0.02683
3557.91725,0.02691
3555.85707,0.02685
3553.79690,0.02712
3551.73673,0.02761
3549.67656,0.02791
3547.61639,0.02800
3545.55621,0.02816
3543.49604,0.02832
3541.43587,0.02828
3539.37570,0.02850
3537.31552,0.02909
3535.25535,0.02940
3533.19518,0.02920
3531.13501,0.02906
3529.07484,0.02935
3527.01466,0.02988
3524.95449,0.03025
3522.89432,0.03022
3520.83415,0.03011
3518.77398,0.03018
3516.71380,0.03029
3514.65363,0.03044
3512.59346,0.03078
3510.53329,0.03108
3508.47312,0.03109
3506.41294,0.03107
3504.35277,0.03138
3502.29260,0.03183
3500.23243,0.03206
3498.17225,0.03203
3496.11208,0.03208
3494.05191,0.03230
3491.99174,0.03247
3489.93157,0.03271
3487.87139,0.03317
3485.81122,0.03344
3483.75105,0.03346
3481.69088,0.03362
3479.63071,0.03387
3477.57053,0.03396
3475.51036,0.03383
3473.45019,0.03353
3471.39002,0.03346
3469.32984,0.03380
3467.26967,0.03409
3465.20950,0.03427
3463.14933,0.03470
3461.08916,0.03505
3459.02898,0.03497
3456.96881,0.03497
3454.90864,0.03519
3452.84847,0.03534
3450.78830,0.03542
3448.72812,0.03540
3446.66795,0.03542
3444.60778,0.03564
3442.54761,0.03577
3440.48744,0.03585
3438.42726,0.03618
3436.36709,0.03651
3434.30692,0.03642
3432.24675,0.03619
3430.18657,0.03627
3428.12640,0.03643
3426.06623,0.03655
3424.00606,0.03680
3421.94589,0.03733
3419.88571,0.03802
3417.82554,0.03818
3415.76537,0.03739
3413.70520,0.03649
3411.64503,0.03643
3409.58485,0.03709
3407.52468,0.03764
3405.46451,0.03780
3403.40434,0.03788
3401.34416,0.03800
3399.28399,0.03802
3397.22382,0.03770
3395.16365,0.03757
3393.10348,0.03776
3391.04330,0.03787
3388.98313,0.03782
3386.92296,0.03783
3384.86279,0.03802
3382.80262,0.03815
3380.74244,0.03805
3378.68227,0.03818
3376.62210,0.03873
3374.56193,0.03901
3372.50176,0.03869
3370.44158,0.03832
3368.38141,0.03829
3366.32124,0.03853
3364.26107,0.03868
3362.20089,0.03861
3360.14072,0.03850
3358.08055,0.03835
3356.02038,0.03822
3353.96021,0.03823
3351.90003,0.03843
3349.83986,0.03865
3347.77969,0.03859
3345.71952,0.03851
3343.65935,0.03880
3341.59917,0.03915
3339.53900,0.03918
3337.47883,0.03890
3335.41866,0.03844
3333.35849,0.03804
3331.29831,0.03795
3329.23814,0.03835
3327.17797,0.03890
3325.11780,0.03899
3323.05762,0.03878
3320.99745,0.03882
3318.93728,0.03899
3316.87711,0.03892
3314.81694,0.03878
3312.75676,0.03867
3310.69659,0.03849
3308.63642,0.03824
3306.57625,0.03820
3304.51608,0.03846
3302.45590,0.03874
3300.39573,0.03894
3298.33556,0.03899
3296.27539,0.03875
3294.21521,0.03857
3292.15504,0.03866
3290.09487,0.03878
3288.03470,0.03895
3285.97453,0.03902
3283.91435,0.03872
3281.85418,0.03838
3279.79401,0.03831
3277.73384,0.03830
3275.67367,0.03828
3273.61349,0.03832
3271.55332,0.03839
3269.49315,0.03844
3267.43298,0.03828
3265.37281,0.03800
3263.31263,0.03806
3261.25246,0.03833
3259.19229,0.03831
3257.13212,0.03810
3255.07194,0.03792
3253.01177,0.03772
3250.95160,0.03769
3248.89143,0.03789
3246.83126,0.03806
3244.77108,0.03809
3242.71091,0.03807
3240.65074,0.03794
3238.59057,0.03784
3236.53040,0.03811
3234.47022,0.03846
3232.41005,0.03848
3230.34988,0.03842
3228.28971,0.03826
3226.22954,0.03789
3224.16936,0.03781
3222.10919,0.03806
3220.04902,0.03808
3217.98885,0.03787
3215.92867,0.03770
3213.86850,0.03754
3211.80833,0.03730
3209.74816,0.03706
3207.68799,0.03688
3205.62781,0.03681
3203.56764,0.03690
3201.50747,0.03693
3199.44730,0.03676
3197.38713,0.03645
3195.32695,0.03610
3193.26678,0.03592
3191.20661,0.03605
3189.14644,0.03639
3187.08626,0.03659
3185.02609,0.03654
3182.96592,0.03645
3180.90575,0.03631
3178.84558,0.03611
3176.78540,0.03589
3174.72523,0.03563
3172.66506,0.03567
3170.60489,0.03607
3168.54472,0.03623
3166.48454,0.03597
3164.42437,0.03569
3162.36420,0.03560
3160.30403,0.03553
3158.24386,0.03543
3156.18368,0.03538
3154.12351,0.03528
3152.06334,0.03525
3150.00317,0.03547
3147.94299,0.03561
3145.88282,0.03545
3143.82265,0.03516
3141.76248,0.03489
3139.70231,0.03456
3137.64213,0.03421
3135.58196,0.03410
3133.52179,0.03420
3131.46162,0.03421
3129.40145,0.03412
3127.34127,0.03414
3125.28110,0.03421
3123.22093,0.03423
3121.16076,0.03417
3119.10058,0.03408
3117.04041,0.03399
3114.98024,0.03380
3112.92007,0.03352
3110.85990,0.03334
3108.79972,0.03329
3106.73955,0.03331
3104.67938,0.03330
3102.61921,0.03326
3100.55904,0.03321
3098.49886,0.03307
3096.43869,0.03290
3094.37852,0.03280
3092.31835,0.03284
3090.25818,0.03285
3088.19800,0.03265
3086.13783,0.03246
3084.07766,0.03258
3082.01749,0.03279
3079.95731,0.03283
3077.89714,0.03282
3075.83697,0.03263
3073.77680,0.03227
3071.71663,0.03198
3069.65645,0.03180
3067.59628,0.03173
3065.53611,0.03176
3063.47594,0.03170
3061.41577,0.03164
3059.35559,0.03168
3057.29542,0.03154
3055.23525,0.03137
3053.17508,0.03144
3051.11491,0.03156
3049.05473,0.03149
3046.99456,0.03131
3044.93439,0.03116
3042.87422,0.03099
3040.81404,0.03095
3038.75387,0.03112
3036.69370,0.03114
3034.63353,0.03082
3032.57336,0.03055
3030.51318,0.03067
3028.45301,0.03091
3026.39284,0.03087
3024.33267,0.03070
3022.27250,0.03065
3020.21232,0.03048
3018.15215,0.03009
3016.09198,0.02993
3014.03181,0.03011
3011.97163,0.03022
3009.91146,0.03005
3007.85129,0.02989
3005.79112,0.02999
3003.73095,0.03011
3001.67077,0.03008
2999.61060,0.03005
2997.55043,0.03000
2995.49026,0.02980
2993.43009,0.02974
2991.36991,0.02988
2989.30974,0.02988
2987.24957,0.02977
2985.18940,0.02986
2983.12923,0.03000
2981.06905,0.02997
2979.00888,0.02991
2976.94871,0.02979
2974.88854,0.02964
2972.82836,0.02946
2970.76819,0.02925
2968.70802,0.02916
2966.64785,0.02913
2964.58768,0.02915
2962.52750,0.02932
2960.46733,0.02931
2958.40716,0.02904
2956.34699,0.02897
2954.28682,0.02914
2952.22664,0.02922
2950.16647,0.02912
2948.10630,0.02893
2946.04613,0.02872
2943.98596,0.02862
2941.92578,0.02876
2939.86561,0.02894
2937.80544,0.02891
2935.74527,0.02865
2933.68509,0.02846
2931.62492,0.02848
2929.56475,0.02852
2927.50458,0.02853
2925.44441,0.02860
2923.38423,0.02854
2921.32406,0.02810
2919.26389,0.02761
2917.20372,0.02753
2915.14355,0.02771
2913.08337,0.02786
2911.02320,0.02782
2908.96303,0.02770
2906.90286,0.02755
2904.84268,0.02735
2902.78251,0.02724
2900.72234,0.02705
2898.66217,0.02668
2896.60200,0.02657
2894.54182,0.02677
2892.48165,0.02686
2890.42148,0.02680
2888.36131,0.02683
2886.30114,0.02688
2884.24096,0.02671
2882.18079,0.02656
2880.12062,0.02666
2878.06045,0.02665
2876.00028,0.02631
2873.94010,0.02582
2871.87993,0.02547
2869.81976,0.02538
2867.75959,0.02544
2865.69941,0.02550
2863.63924,0.02539
2861.57907,0.02521
2859.51890,0.02509
2857.45873,0.02493
2855.39855,0.02481
2853.33838,0.02473
2851.27821,0.02471
2849.21804,0.02469
2847.15787,0.02440
2845.09769,0.02412
2843.03752,0.02408
2840.97735,0.02412
2838.91718,0.02406
2836.85700,0.02393
2834.79683,0.02383
2832.73666,0.02369
2830.67649,0.02351
2828.61632,0.02330
2826.55614,0.02307
2824.49597,0.02288
2822.43580,0.02277
2820.37563,0.02266
2818.31546,0.02254
2816.25528,0.02245
2814.19511,0.02235
2812.13494,0.02243
2810.07477,0.02263
2808.01460,0.02260
2805.95442,0.02243
2803.89425,0.02236
2801.83408,0.02236
2799.77391,0.02235
2797.71373,0.02220
2795.65356,0.02194
2793.59339,0.02180
2791.53322,0.02184
2789.47305,0.02188
2787.41287,0.02181
2785.35270,0.02177
2783.29253,0.02173
2781.23236,0.02156
2779.17219,0.02148
2777.11201,0.02166
2775.05184,0.02174
2772.99167,0.02161
2770.93150,0.02143
2768.87133,0.02138
2766.81115,0.02147
2764.75098,0.02147
2762.69081,0.02146
2760.63064,0.02167
2758.57046,0.02186
2756.51029,0.02174
2754.45012,0.02157
2752.38995,0.02158
2750.32978,0.02166
2748.26960,0.02172
2746.20943,0.02165
2744.14926,0.02141
2742.08909,0.02117
2740.02892,0.02105
2737.96874,0.02097
2735.90857,0.02077
2733.84840,0.02057
2731.78823,0.02058
2729.72805,0.02075
2727.66788,0.02095
2725.60771,0.02101
2723.54754,0.02093
2721.48737,0.02083
2719.42719,0.02066
2717.36702,0.02034
2715.30685,0.02010
2713.24668,0.02018
2711.18651,0.02040
2709.12633,0.02036
2707.06616,0.02019
2705.00599,0.02032
2702.94582,0.02043
2700.88565,0.02023
2698.82547,0.02014
2696.76530,0.02026
2694.70513,0.02011
2692.64496,0.01971
2690.58478,0.01955
2688.52461,0.01981
2686.46444,0.02014
2684.40427,0.02014
2682.34410,0.01990
2680.28392,0.01976
2678.22375,0.01981
2676.16358,0.01994
2674.10341,0.02000
2672.04324,0.01989
2669.98306,0.01957
2667.92289,0.01937
2665.86272,0.01955
2663.80255,0.01977
2661.74238,0.01977
2659.68220,0.01971
2657.62203,0.01965
2655.56186,0.01957
2653.50169,0.01960
2651.44151,0.01971
2649.38134,0.01983
2647.32117,0.01981
2645.26100,0.01963
2643.20083,0.01953
2641.14065,0.01954
2639.08048,0.01959
2637.02031,0.01964
2634.96014,0.01958
2632.89997,0.01948
2630.83979,0.01936
2628.77962,0.01916
2626.71945,0.01896
2624.65928,0.01897
2622.59910,0.01907
2620.53893,0.01904
2618.47876,0.01880
2616.41859,0.01850
2614.35842,0.01844
2612.29824,0.01874
2610.23807,0.01915
2608.17790,0.01934
2606.11773,0.01935
2604.05756,0.01931
2601.99738,0.01925
2599.93721,0.01912
2597.87704,0.01870
2595.81687,0.01828
2593.75670,0.01835
2591.69652,0.01861
2589.63635,0.01847
2587.57618,0.01817
2585.51601,0.01813
2583.45583,0.01824
2581.39566,0.01834
2579.33549,0.01844
2577.27532,0.01846
2575.21515,0.01850
2573.15497,0.01860
2571.09480,0.01845
2569.03463,0.01815
2566.97446,0.01809
2564.91429,0.01803
2562.85411,0.01789
2560.79394,0.01785
2558.73377,0.01798
2556.67360,0.01841
2554.61342,0.01866
2552.55325,0.01826
2550.49308,0.01762
2548.43291,0.01738
2546.37274,0.01771
2544.31256,0.01813
2542.25239,0.01828
2540.19222,0.01821
2538.13205,0.01803
2536.07188,0.01792
2534.01170,0.01784
2531.95153,0.01775
2529.89136,0.01789
2527.83119,0.01790
2525.77102,0.01752
2523.71084,0.01734
2521.65067,0.01743
2519.59050,0.01728
2517.53033,0.01689
2515.47015,0.01675
2513.40998,0.01711
2511.34981,0.01748
2509.28964,0.01768
2507.22947,0.01810
2505.16929,0.01867
2503.10912,0.01884
2501.04895,0.01857
2498.98878,0.01848
2496.92861,0.01845
2494.86843,0.01802
2492.80826,0.01768
2490.74809,0.01785
2488.68792,0.01809
2486.62775,0.01812
2484.56757,0.01821
2482.50740,0.01833
2480.44723,0.01835
2478.38706,0.01838
2476.32688,0.01842
2474.26671,0.01854
2472.20654,0.01866
2470.14637,0.01868
2468.08620,0.01866
2466.02602,0.01852
2463.96585,0.01828
2461.90568,0.01818
2459.84551,0.01813
2457.78534,0.01808
2455.72516,0.01804
2453.66499,0.01797
2451.60482,0.01810
2449.54465,0.01830
2447.48447,0.01824
2445.42430,0.01819
2443.36413,0.01828
2441.30396,0.01811
2439.24379,0.01771
2437.18361,0.01749
2435.12344,0.01757
2433.06327,0.01786
2431.00310,0.01829
2428.94293,0.01848
2426.88275,0.01829
2424.82258,0.01823
2422.76241,0.01825
2420.70224,0.01786
2418.64207,0.01744
2416.58189,0.01761
2414.52172,0.01811
2412.46155,0.01862
2410.40138,0.01893
2408.34120,0.01876
2406.28103,0.01841
2404.22086,0.01824
2402.16069,0.01805
2400.10052,0.01784
2398.04034,0.01687
2395.98017,0.01700
2393.92000,0.01754
2391.85983,0.01792
2389.79966,0.01829
2387.73948,0.01879
2385.67931,0.01926
2383.61914,0.01959
2381.55897,0.02000
2379.49880,0.02075
2377.43862,0.02162
2375.37845,0.02224
2373.31828,0.02256
2371.25811,0.02307
2369.19793,0.02373
2367.13776,0.02443
2365.07759,0.02508
2363.01742,0.02402
2360.95725,0.02103
2358.89707,0.02107
2356.83690,0.02369
2354.77673,0.02514
2352.71656,0.02490
2350.65639,0.02464
2348.59621,0.02520
2346.53604,0.02661
2344.47587,0.02603
2342.41570,0.02582
2340.35552,0.02661
2338.29535,0.02681
2336.23518,0.02602
2334.17501,0.02465
2332.11484,0.02369
2330.05466,0.02393
2327.99449,0.02520
2325.93432,0.02571
2323.87415,0.02498
2321.81398,0.02336
2319.75380,0.02241
2317.69363,0.02207
2315.63346,0.02209
2313.57329,0.02177
2311.51312,0.02132
2309.45294,0.02130
2307.39277,0.02121
2305.33260,0.02096
2303.27243,0.02091
2301.21225,0.02090
2299.15208,0.02070
2297.09191,0.02083
2295.03174,0.02151
2292.97157,0.02212
2290.91139,0.02216
2288.85122,0.02163
2286.79105,0.02087
2284.73088,0.02009
2282.67071,0.01916
2280.61053,0.01834
2278.55036,0.01803
2276.49019,0.01804
2274.43002,0.01807
2272.36984,0.01812
2270.30967,0.01813
2268.24950,0.01784
2266.18933,0.01765
2264.12916,0.01812
2262.06898,0.01863
2260.00881,0.01846
2257.94864,0.01832
2255.88847,0.01870
2253.82830,0.01889
2251.76812,0.01846
2249.70795,0.01763
2247.64778,0.01771
2245.58761,0.01822
2243.52744,0.01821
2241.46726,0.01794
2239.40709,0.01772
2237.34692,0.01749
2235.28675,0.01726
2233.22657,0.01734
2231.16640,0.01809
2229.10623,0.01869
2227.04606,0.01822
2224.98589,0.01728
2222.92571,0.01682
2220.86554,0.01714
2218.80537,0.01795
2216.74520,0.01808
2214.68503,0.01734
2212.62485,0.01684
2210.56468,0.01654
2208.50451,0.01608
2206.44434,0.01578
2204.38417,0.01558
2202.32399,0.01542
2200.26382,0.01591
2198.20365,0.01667
2196.14348,0.01682
2194.08330,0.01717
2192.02313,0.01802
2189.96296,0.01820
2187.90279,0.01765
2185.84262,0.01779
2183.78244,0.01852
2181.72227,0.01832
2179.66210,0.01710
2177.60193,0.01554
2175.54176,0.01492
2173.48158,0.01674
2171.42141,0.01957
2169.36124,0.02036
2167.30107,0.01951
2165.24089,0.01951
2163.18072,0.01888
2161.12055,0.01555
2159.06038,0.01282
2157.00021,0.01218
2154.94003,0.01193
2152.87986,0.01226
2150.81969,0.01340
2148.75952,0.01492
2146.69935,0.01585
2144.63917,0.01576
2142.57900,0.01546
2140.51883,0.01573
2138.45866,0.01609
2136.39849,0.01547
2134.33831,0.01486
2132.27814,0.01526
2130.21797,0.01587
2128.15780,0.01645
2126.09762,0.01701
2124.03745,0.01707
2121.97728,0.01709
2119.91711,0.01725
2117.85694,0.01692
2115.79676,0.01644
2113.73659,0.01650
2111.67642,0.01699
2109.61625,0.01745
2107.55608,0.01729
2105.49590,0.01660
2103.43573,0.01642
2101.37556,0.01693
2099.31539,0.01724
2097.25521,0.01716
2095.19504,0.01722
2093.13487,0.01734
2091.07470,0.01718
2089.01453,0.01714
2086.95435,0.01677
2084.89418,0.01591
2082.83401,0.01565
2080.77384,0.01647
2078.71367,0.01772
2076.65349,0.01809
2074.59332,0.01723
2072.53315,0.01621
2070.47298,0.01605
2068.41281,0.01671
2066.35263,0.01758
2064.29246,0.01810
2062.23229,0.01772
2060.17212,0.01719
2058.11194,0.01736
2056.05177,0.01754
2053.99160,0.01737
2051.93143,0.01656
2049.87126,0.01515
2047.81108,0.01501
2045.75091,0.01617
2043.69074,0.01621
2041.63057,0.01521
2039.57040,0.01524
2037.51022,0.01577
2035.45005,0.01531
2033.38988,0.01519
2031.32971,0.01589
2029.26954,0.01569
2027.20936,0.01545
2025.14919,0.01675
2023.08902,0.01797
2021.02885,0.01679
2018.96867,0.01400
2016.90850,0.01260
2014.84833,0.01299
2012.78816,0.01276
2010.72799,0.01210
2008.66781,0.01216
2006.60764,0.01247
2004.54747,0.01293
2002.48730,0.01374
2000.42713,0.01470
1998.36695,0.01565
1996.30678,0.01694
1994.24661,0.01780
1992.18644,0.01704
1990.12626,0.01625
1988.06609,0.01650
1986.00592,0.01631
1983.94575,0.01568
1981.88558,0.01525
1979.82540,0.01484
1977.76523,0.01485
1975.70506,0.01475
1973.64489,0.01372
1971.58472,0.01346
1969.52454,0.01483
1967.46437,0.01527
1965.40420,0.01432
1963.34403,0.01437
1961.28386,0.01521
1959.22368,0.01551
1957.16351,0.01533
1955.10334,0.01529
1953.04317,0.01523
1950.98299,0.01479
1948.92282,0.01480
1946.86265,0.01554
1944.80248,0.01603
1942.74231,0.01620
1940.68213,0.01669
1938.62196,0.01703
1936.56179,0.01654
1934.50162,0.01582
1932.44145,0.01550
1930.38127,0.01535
1928.32110,0.01525
1926.26093,0.01506
1924.20076,0.01494
1922.14059,0.01529
1920.08041,0.01566
1918.02024,0.01588
1915.96007,0.01616
1913.89990,0.01589
1911.83972,0.01497
1909.77955,0.01429
1907.71938,0.01441
1905.65921,0.01506
1903.59904,0.01563
1901.53886,0.01584
1899.47869,0.01623
1897.41852,0.01695
1895.35835,0.01730
1893.29818,0.01708
1891.23800,0.01702
1889.17783,0.01740
1887.11766,0.01756
1885.05749,0.01728
1882.99731,0.01707
1880.93714,0.01709
1878.87697,0.01691
1876.81680,0.01643
1874.75663,0.01593
1872.69645,0.01559
1870.63628,0.01549
1868.57611,0.01579
1866.51594,0.01620
1864.45577,0.01626
1862.39559,0.01607
1860.33542,0.01600
1858.27525,0.01627
1856.21508,0.01670
1854.15491,0.01690
1852.09473,0.01674
1850.03456,0.01646
1847.97439,0.01639
1845.91422,0.01652
1843.85404,0.01655
1841.79387,0.01643
1839.73370,0.01644
1837.67353,0.01671
1835.61336,0.01707
1833.55318,0.01723
1831.49301,0.01702
1829.43284,0.01660
1827.37267,0.01635
1825.31250,0.01629
1823.25232,0.01623
1821.19215,0.01619
1819.13198,0.01635
1817.07181,0.01662
1815.01163,0.01677
1812.95146,0.01666
1810.89129,0.01638
1808.83112,0.01634
1806.77095,0.01677
1804.71077,0.01728
1802.65060,0.01756
1800.59043,0.01771
1798.53026,0.01783
1796.47009,0.01787
1794.40991,0.01788
1792.34974,0.01793
1790.28957,0.01798
1788.22940,0.01794
1786.16923,0.01786
1784.10905,0.01783
1782.04888,0.01784
1779.98871,0.01775
1777.92854,0.01745
1775.86836,0.01717
1773.80819,0.01726
1771.74802,0.01773
1769.68785,0.01822
1767.62768,0.01845
1765.56750,0.01850
1763.50733,0.01858
1761.44716,0.01876
1759.38699,0.01889
1757.32682,0.01888
1755.26664,0.01894
1753.20647,0.01916
1751.14630,0.01933
1749.08613,0.01944
1747.02596,0.01970
1744.96578,0.01996
1742.90561,0.01996
1740.84544,0.01978
1738.78527,0.01962
1736.72509,0.01955
1734.66492,0.01969
1732.60475,0.02004
1730.54458,0.02026
1728.48441,0.02026
1726.42423,0.02024
1724.36406,0.02032
1722.30389,0.02052
1720.24372,0.02060
1718.18355,0.02048
1716.12337,0.02047
1714.06320,0.02073
1712.00303,0.02117
1709.94286,0.02159
1707.88268,0.02185
1705.82251,0.02218
1703.76234,0.02255
1701.70217,0.02250
1699.64200,0.02216
1697.58182,0.02220
1695.52165,0.02285
1693.46148,0.02376
1691.40131,0.02455
1689.34114,0.02516
1687.28096,0.02548
1685.22079,0.02552
1683.16062,0.02577
1681.10045,0.02646
1679.04028,0.02720
1676.98010,0.02785
1674.91993,0.02840
1672.85976,0.02890
1670.79959,0.02941
1668.73941,0.02993
1666.67924,0.03037
1664.61907,0.03072
1662.55890,0.03109
1660.49873,0.03158
1658.43855,0.03210
1656.37838,0.03246
1654.31821,0.03254
1652.25804,0.03245
1650.19787,0.03264
1648.13769,0.03294
1646.07752,0.03296
1644.01735,0.03289
1641.95718,0.03301
1639.89701,0.03322
1637.83683,0.03316
1635.77666,0.03261
1633.71649,0.03208
1631.65632,0.03198
1629.59614,0.03194
1627.53597,0.03164
1625.47580,0.03117
1623.41563,0.03062
1621.35546,0.03013
1619.29528,0.02967
1617.23511,0.02920
1615.17494,0.02907
1613.11477,0.02922
1611.05460,0.02914
1608.99442,0.02870
1606.93425,0.02814
1604.87408,0.02761
1602.81391,0.02717
1600.75373,0.02691
1598.69356,0.02681
1596.63339,0.02673
1594.57322,0.02667
1592.51305,0.02665
1590.45287,0.02653
1588.39270,0.02624
1586.33253,0.02593
1584.27236,0.02580
1582.21219,0.02577
1580.15201,0.02572
1578.09184,0.02569
1576.03167,0.02561
1573.97150,0.02549
1571.91133,0.02530
1569.85115,0.02501
1567.79098,0.02498
1565.73081,0.02525
1563.67064,0.02543
1561.61046,0.02520
1559.55029,0.02460
1557.49012,0.02437
1555.42995,0.02476
1553.36978,0.02524
1551.30960,0.02545
1549.24943,0.02534
1547.18926,0.02517
1545.12909,0.02505
1543.06892,0.02481
1541.00874,0.02436
1538.94857,0.02411
1536.88840,0.02428
1534.82823,0.02440
1532.76805,0.02422
1530.70788,0.02394
1528.64771,0.02370
1526.58754,0.02355
1524.52737,0.02360
1522.46719,0.02365
1520.40702,0.02346
1518.34685,0.02320
1516.28668,0.02315
1514.22651,0.02325
1512.16633,0.02325
1510.10616,0.02297
1508.04599,0.02246
1505.98582,0.02217
1503.92565,0.02226
1501.86547,0.02240
1499.80530,0.02237
1497.74513,0.02222
1495.68496,0.02201
1493.62478,0.02173
1491.56461,0.02144
1489.50444,0.02132
1487.44427,0.02138
1485.38410,0.02152
1483.32392,0.02179
1481.26375,0.02213
1479.20358,0.02237
1477.14341,0.02249
1475.08324,0.02253
1473.02306,0.02249
1470.96289,0.02242
1468.90272,0.02247
1466.84255,0.02267
1464.78238,0.02288
1462.72220,0.02303
1460.66203,0.02305
1458.60186,0.02280
1456.54169,0.02235
1454.48151,0.02218
1452.42134,0.02238
1450.36117,0.02260
1448.30100,0.02274
1446.24083,0.02286
1444.18065,0.02290
1442.12048,0.02284
1440.06031,0.02276
1438.00014,0.02276
1435.93997,0.02286
1433.87979,0.02293
1431.81962,0.02295
1429.75945,0.02301
1427.69928,0.02317
1425.63910,0.02340
1423.57893,0.02360
1421.51876,0.02372
1419.45859,0.02381
1417.39842,0.02387
1415.33824,0.02387
1413.27807,0.02389
1411.21790,0.02398
1409.15773,0.02402
1407.09756,0.02403
1405.03738,0.02405
1402.97721,0.02407
1400.91704,0.02408
1398.85687,0.02406
1396.79670,0.02389
1394.73652,0.02366
1392.67635,0.02357
1390.61618,0.02359
1388.55601,0.02353
1386.49583,0.02336
1384.43566,0.02327
1382.37549,0.02332
1380.31532,0.02340
1378.25515,0.02340
1376.19497,0.02327
1374.13480,0.02303
1372.07463,0.02282
1370.01446,0.02280
1367.95429,0.02290
1365.89411,0.02294
1363.83394,0.02286
1361.77377,0.02270
1359.71360,0.02254
1357.65343,0.02243
1355.59325,0.02237
1353.53308,0.02234
1351.47291,0.02224
1349.41274,0.02207
1347.35256,0.02197
1345.29239,0.02197
1343.23222,0.02204
1341.17205,0.02218
1339.11188,0.02230
1337.05170,0.02223
1334.99153,0.02204
1332.93136,0.02196
1330.87119,0.02203
1328.81102,0.02211
1326.75084,0.02207
1324.69067,0.02197
1322.63050,0.02196
1320.57033,0.02199
1318.51015,0.02197
1316.44998,0.02202
1314.38981,0.02212
1312.32964,0.02220
1310.26947,0.02234
1308.20929,0.02244
1306.14912,0.02240
1304.08895,0.02234
1302.02878,0.02234
1299.96861,0.02234
1297.90843,0.02236
1295.84826,0.02235
1293.78809,0.02239
1291.72792,0.02256
1289.66775,0.02273
1287.60757,0.02276
1285.54740,0.02271
1283.48723,0.02260
1281.42706,0.02251
1279.36688,0.02252
1277.30671,0.02265
1275.24654,0.02285
1273.18637,0.02300
1271.12620,0.02305
1269.06602,0.02302
1267.00585,0.02295
1264.94568,0.02295
1262.88551,0.02305
1260.82534,0.02318
1258.76516,0.02321
1256.70499,0.02319
1254.64482,0.02323
1252.58465,0.02336
1250.52447,0.02342
1248.46430,0.02338
1246.40413,0.02333
1244.34396,0.02328
1242.28379,0.02314
1240.22361,0.02298
1238.16344,0.02296
1236.10327,0.02312
1234.04310,0.02318
1231.98293,0.02299
1229.92275,0.02289
1227.86258,0.02286
1225.80241,0.02262
1223.74224,0.02230
1221.68207,0.02213
1219.62189,0.02209
1217.56172,0.02201
1215.50155,0.02188
1213.44138,0.02178
1211.38120,0.02176
1209.32103,0.02181
1207.26086,0.02182
1205.20069,0.02172
1203.14052,0.02150
1201.08034,0.02124
1199.02017,0.02119
1196.96000,0.02128
1194.89983,0.02120
1192.83966,0.02096
1190.77948,0.02091
1188.71931,0.02101
1186.65914,0.02099
1184.59897,0.02093
1182.53880,0.02124
1180.47862,0.02186
1178.41845,0.02223
1176.35828,0.02220
1174.29811,0.02200
1172.23793,0.02201
1170.17776,0.02230
1168.11759,0.02260
1166.05742,0.02272
1163.99725,0.02279
1161.93707,0.02289
1159.87690,0.02296
1157.81673,0.02316
1155.75656,0.02351
1153.69639,0.02389
1151.63621,0.02427
1149.57604,0.02467
1147.51587,0.02497
1145.45570,0.02504
1143.39552,0.02505
1141.33535,0.02534
1139.27518,0.02588
1137.21501,0.02635
1135.15484,0.02679
1133.09466,0.02740
1131.03449,0.02806
1128.97432,0.02858
1126.91415,0.02901
1124.85398,0.02950
1122.79380,0.03007
1120.73363,0.03077
1118.67346,0.03175
1116.61329,0.03270
1114.55312,0.03335
1112.49294,0.03404
1110.43277,0.03492
1108.37260,0.03579
1106.31243,0.03657
1104.25225,0.03742
1102.19208,0.03833
1100.13191,0.03916
1098.07174,0.03992
1096.01157,0.04073
1093.95139,0.04142
1091.89122,0.04199
1089.83105,0.04256
1087.77088,0.04307
1085.71071,0.04369
1083.65053,0.04458
1081.59036,0.04540
1079.53019,0.04597
1077.47002,0.04658
1075.40985,0.04721
1073.34967,0.04741
1071.28950,0.04741
1069.22933,0.04780
1067.16916,0.04837
1065.10898,0.04857
1063.04881,0.04829
1060.98864,0.04802
1058.92847,0.04799
1056.86830,0.04789
1054.80812,0.04751
1052.74795,0.04694
1050.68778,0.04626
1048.62761,0.04554
1046.56744,0.04489
1044.50726,0.04421
1042.44709,0.04332
1040.38692,0.04230
1038.32675,0.04144
1036.26657,0.04074
1034.20640,0.04007
1032.14623,0.03922
1030.08606,0.03828
1028.02589,0.03754
1025.96571,0.03682
1023.90554,0.03602
1021.84537,0.03547
1019.78520,0.03508
1017.72503,0.03467
1015.66485,0.03423
1013.60468,0.03387
1011.54451,0.03371
1009.48434,0.03366
1007.42417,0.03370
1005.36399,0.03395
1003.30382,0.03441
1001.24365,0.03494
999.18348,0.03545
997.12330,0.03597
995.06313,0.03672
993.00296,0.03781
990.94279,0.03860
988.88262,0.03878
986.82244,0.03895
984.76227,0.03911
982.70210,0.03904
980.64193,0.03898
978.58176,0.03856
976.52158,0.03756
974.46141,0.03657
972.40124,0.03598
970.34107,0.03566
968.28089,0.03522
966.22072,0.03442
964.16055,0.03355
962.10038,0.03284
960.04021,0.03212
957.98003,0.03137
955.91986,0.03064
953.85969,0.02998
951.79952,0.02951
949.73935,0.02917
947.67917,0.02867
945.61900,0.02797
943.55883,0.02734
941.49866,0.02693
939.43849,0.02671
937.37831,0.02655
935.31814,0.02625
933.25797,0.02587
931.19780,0.02562
929.13762,0.02541
927.07745,0.02519
925.01728,0.02520
922.95711,0.02523
920.89694,0.02499
918.83676,0.02473
916.77659,0.02468
914.71642,0.02486
912.65625,0.02524
910.59608,0.02548
908.53590,0.02536
906.47573,0.02519
904.41556,0.02531
902.35539,0.02568
900.29522,0.02592
898.23504,0.02582
896.17487,0.02547
894.11470,0.02529
892.05453,0.02560
889.99435,0.02605
887.93418,0.02652
885.87401,0.02692
883.81384,0.02717
881.75367,0.02764
879.69349,0.02834
877.63332,0.02873
875.57315,0.02881
873.51298,0.02887
871.45281,0.02900
869.39263,0.02922
867.33246,0.02934
865.27229,0.02938
863.21212,0.02959
861.15194,0.02996
859.09177,0.03061
857.03160,0.03145
854.97143,0.03203
852.91126,0.03219
850.85108,0.03204
848.79091,0.03165
846.73074,0.03129
844.67057,0.03117
842.61040,0.03134
840.55022,0.03173
838.49005,0.03190
836.42988,0.03154
834.36971,0.03082
832.30954,0.03039
830.24936,0.03055
828.18919,0.03061
826.12902,0.03042
824.06885,0.03051
822.00867,0.03047
819.94850,0.03025
817.88833,0.03027
815.82816,0.03011
813.76799,0.02995
811.70781,0.03051
809.64764,0.03113
807.58747,0.03097
805.52730,0.03049
803.46713,0.03022
801.40695,0.03021
799.34678,0.03015
797.28661,0.02985
795.22644,0.02970
793.16627,0.02965
791.10609,0.02952
789.04592,0.02964
786.98575,0.03010
784.92558,0.03040
782.86540,0.03035
780.80523,0.03055
778.74506,0.03112
776.68489,0.03130
774.62472,0.03082
772.56454,0.03035
770.50437,0.03025
768.44420,0.03063
766.38403,0.03127
764.32386,0.03148
762.26368,0.03155
760.20351,0.03187
758.14334,0.03203
756.08317,0.03196
754.02299,0.03200
751.96282,0.03229
749.90265,0.03266
747.84248,0.03283
745.78231,0.03276
743.72213,0.03283
741.66196,0.03303
739.60179,0.03290
737.54162,0.03247
735.48145,0.03228
733.42127,0.03241
731.36110,0.03235
729.30093,0.03221
727.24076,0.03247
725.18059,0.03326
723.12041,0.03438
721.06024,0.03411
719.00007,0.03334
716.93990,0.03279
714.87972,0.03264
712.81955,0.03337
710.75938,0.03441
708.69921,0.03493
706.63904,0.03506
704.57886,0.03522
702.51869,0.03516
700.45852,0.03471
698.39835,0.03457
696.33818,0.03513
694.27800,0.03571
692.21783,0.03568
690.15766,0.03510
688.09749,0.03450
686.03731,0.03435
683.97714,0.03493
681.91697,0.03580
679.85680,0.03613
677.79663,0.03613
675.73645,0.03631
673.67628,0.03610
671.61611,0.03478
669.55594,0.03590
667.49577,0.03902
665.43559,0.03619
663.37542,0.03766
661.31525,0.03924
659.25508,0.03856
657.19491,0.03697
655.13473,0.03618
653.07456,0.03642
651.01439,0.03701
648.95422,0.03823
646.89404,0.04030
644.83387,0.04183
642.77370,0.04134
640.71353,0.03988
638.65336,0.03939
636.59318,0.03976
634.53301,0.04007
632.47284,0.03990
630.41267,0.03870
628.35250,0.03763
626.29232,0.03881
624.23215,0.04022
622.17198,0.03881
620.11181,0.03768
618.05164,0.03868
615.99146,0.03954
613.93129,0.03983
611.87112,0.04056
609.81095,0.04039
607.75077,0.03833
605.69060,0.03648
603.63043,0.03673
601.57026,0.03858
599.51009,0.04113
