3996.73391,0.00068
3994.67373,0.00091
3992.61356,0.00083
3990.55339,0.00051
3988.49322,0.00041
3986.43305,0.00067
3984.37287,0.00078
3982.31270,0.00051
3980.25253,0.00026
3978.19236,0.00028
3976.13219,0.00023
3974.07201,0.00000
3972.01184,0.00006
3969.95167,0.00063
3967.89150,0.00125
3965.83133,0.00153
3963.77115,0.00153
3961.71098,0.00132
3959.65081,0.00102
3957.59064,0.00076
3955.53046,0.00067
3953.47029,0.00072
3951.41012,0.00083
3949.34995,0.00101
3947.28978,0.00111
3945.22960,0.00102
3943.16943,0.00087
3941.10926,0.00080
3939.04909,0.00092
3936.98892,0.00126
3934.92874,0.00156
3932.86857,0.00172
3930.80840,0.00186
3928.74823,0.00192
3926.68805,0.00193
3924.62788,0.00195
3922.56771,0.00165
3920.50754,0.00101
3918.44737,0.00067
3916.38719,0.00091
3914.32702,0.00135
3912.26685,0.00163
3910.20668,0.00171
3908.14651,0.00170
3906.08633,0.00175
3904.02616,0.00193
3901.96599,0.00206
3899.90582,0.00201
3897.84565,0.00184
3895.78547,0.00163
3893.72530,0.00145
3891.66513,0.00138
3889.60496,0.00146
3887.54478,0.00182
3885.48461,0.00225
3883.42444,0.00233
3881.36427,0.00212
3879.30410,0.00171
3877.24392,0.00105
3875.18375,0.00054
3873.12358,0.00082
3871.06341,0.00175
3869.00324,0.00236
3866.94306,0.00239
3864.88289,0.00238
3862.82272,0.00239
3860.76255,0.00227
3858.70237,0.00214
3856.64220,0.00214
3854.58203,0.00227
3852.52186,0.00231
3850.46169,0.00214
3848.40151,0.00208
3846.34134,0.00203
3844.28117,0.00186
3842.22100,0.00177
3840.16083,0.00190
3838.10065,0.00230
3836.04048,0.00271
3833.98031,0.00268
3831.92014,0.00240
3829.85997,0.00246
3827.79979,0.00287
3825.73962,0.00317
3823.67945,0.00327
3821.61928,0.00320
3819.55910,0.00262
3817.49893,0.00174
3815.43876,0.00112
3813.37859,0.00101
3811.31842,0.00113
3809.25824,0.00109
3807.19807,0.00090
3805.13790,0.00112
3803.07773,0.00172
3801.01756,0.00194
3798.95738,0.00170
3796.89721,0.00169
3794.83704,0.00196
3792.77687,0.00214
3790.71670,0.00202
3788.65652,0.00169
3786.59635,0.00155
3784.53618,0.00173
3782.47601,0.00198
3780.41583,0.00203
3778.35566,0.00187
3776.29549,0.00186
3774.23532,0.00209
3772.17515,0.00218
3770.11497,0.00192
3768.05480,0.00155
3765.99463,0.00137
3763.93446,0.00152
3761.87429,0.00194
3759.81411,0.00230
3757.75394,0.00244
3755.69377,0.00275
3753.63360,0.00345
3751.57342,0.00395
3749.51325,0.00372
3747.45308,0.00337
3745.39291,0.00354
3743.33274,0.00391
3741.27256,0.00412
3739.21239,0.00441
3737.15222,0.00468
3735.09205,0.00436
3733.03188,0.00350
3730.97170,0.00316
3728.91153,0.00368
3726.85136,0.00431
3724.79119,0.00433
3722.73102,0.00382
3720.67084,0.00322
3718.61067,0.00288
3716.55050,0.00295
3714.49033,0.00319
3712.43015,0.00341
3710.36998,0.00352
3708.30981,0.00352
3706.24964,0.00380
3704.18947,0.00405
3702.12929,0.00356
3700.06912,0.00272
3698.00895,0.00263
3695.94878,0.00329
3693.88861,0.00375
3691.82843,0.00364
3689.76826,0.00323
3687.70809,0.00286
3685.64792,0.00283
3683.58775,0.00309
3681.52757,0.00353
3679.46740,0.00421
3677.40723,0.00497
3675.34706,0.00538
3673.28688,0.00523
3671.22671,0.00504
3669.16654,0.00500
3667.10637,0.00493
3665.04620,0.00487
3662.98602,0.00492
3660.92585,0.00501
3658.86568,0.00500
3656.80551,0.00495
3654.74534,0.00492
3652.68516,0.00513
3650.62499,0.00588
3648.56482,0.00683
3646.50465,0.00701
3644.44447,0.00673
3642.38430,0.00650
3640.32413,0.00645
3638.26396,0.00680
3636.20379,0.00747
3634.14361,0.00813
3632.08344,0.00876
3630.02327,0.00932
3627.96310,0.00944
3625.90293,0.00938
3623.84275,0.00965
3621.78258,0.00999
3619.72241,0.01007
3617.66224,0.01011
3615.60207,0.01031
3613.54189,0.01058
3611.48172,0.01081
3609.42155,0.01118
3607.36138,0.01176
3605.30120,0.01242
3603.24103,0.01293
3601.18086,0.01294
3599.12069,0.01257
3597.06052,0.01240
3595.00034,0.01268
3592.94017,0.01317
3590.88000,0.01363
3588.81983,0.01385
3586.75966,0.01371
3584.69948,0.01353
3582.63931,0.01385
3580.57914,0.01445
3578.51897,0.01487
3576.45879,0.01515
3574.39862,0.01536
3572.33845,0.01552
3570.27828,0.01592
3568.21811,0.01654
3566.15793,0.01685
3564.09776,0.01678
3562.03759,0.01669
3559.97742,0.01676
3557.91725,0.01687
3555.85707,0.01692
3553.79690,0.01710
3551.73673,0.01760
3549.67656,0.01830
3547.61639,0.01897
3545.55621,0.01939
3543.49604,0.01936
3541.43587,0.01908
3539.37570,0.01907
3537.31552,0.01943
3535.25535,0.01971
3533.19518,0.01984
3531.13501,0.02035
3529.07484,0.02128
3527.01466,0.02206
3524.95449,0.02229
3522.89432,0.02204
3520.83415,0.02175
3518.77398,0.02171
3516.71380,0.02186
3514.65363,0.02208
3512.59346,0.02250
3510.53329,0.02307
3508.47312,0.02340
3506.41294,0.02340
3504.35277,0.02353
3502.29260,0.02399
3500.23243,0.02441
3498.17225,0.02456
3496.11208,0.02470
3494.05191,0.02488
3491.99174,0.02484
3489.93157,0.02487
3487.87139,0.02541
3485.81122,0.02608
3483.75105,0.02644
3481.69088,0.02651
3479.63071,0.02661
3477.57053,0.02688
3475.51036,0.02705
3473.45019,0.02691
3471.39002,0.02691
3469.32984,0.02744
3467.26967,0.02803
3465.20950,0.02820
3463.14933,0.02828
3461.08916,0.02842
3459.02898,0.02846
3456.96881,0.02840
3454.90864,0.02834
3452.84847,0.02846
3450.78830,0.02870
3448.72812,0.02885
3446.66795,0.02906
3444.60778,0.02940
3442.54761,0.02959
3440.48744,0.02948
3438.42726,0.02933
3436.36709,0.02950
3434.30692,0.02982
3432.24675,0.02994
3430.18657,0.02998
3428.12640,0.03026
3426.06623,0.03075
3424.00606,0.03123
3421.94589,0.03152
3419.88571,0.03170
3417.82554,0.03178
3415.76537,0.03159
3413.70520,0.03130
3411.64503,0.03129
3409.58485,0.03159
3407.52468,0.03175
3405.46451,0.03185
3403.40434,0.03223
3401.34416,0.03238
3399.28399,0.03214
3397.22382,0.03195
3395.16365,0.03211
3393.10348,0.03251
3391.04330,0.03287
3388.98313,0.03291
3386.92296,0.03281
3384.86279,0.03286
3382.80262,0.03278
3380.74244,0.03252
3378.68227,0.03260
3376.62210,0.03302
3374.56193,0.03323
3372.50176,0.03303
3370.44158,0.03273
3368.38141,0.03268
3366.32124,0.03296
3364.26107,0.03321
3362.20089,0.03317
3360.14072,0.03291
3358.08055,0.03267
3356.02038,0.03256
3353.96021,0.03255
3351.90003,0.03280
3349.83986,0.03323
3347.77969,0.03344
3345.71952,0.03329
3343.65935,0.03309
3341.59917,0.03306
3339.53900,0.03316
3337.47883,0.03314
3335.41866,0.03290
3333.35849,0.03269
3331.29831,0.03266
3329.23814,0.03270
3327.17797,0.03278
3325.11780,0.03294
3323.05762,0.03307
3320.99745,0.03318
3318.93728,0.03317
3316.87711,0.03297
3314.81694,0.03288
3312.75676,0.03296
3310.69659,0.03288
3308.63642,0.03256
3306.57625,0.03234
3304.51608,0.03234
3302.45590,0.03245
3300.39573,0.03265
3298.33556,0.03286
3296.27539,0.03301
3294.21521,0.03310
3292.15504,0.03292
3290.09487,0.03263
3288.03470,0.03268
3285.97453,0.03279
3283.91435,0.03241
3281.85418,0.03191
3279.79401,0.03183
3277.73384,0.03201
3275.67367,0.03223
3273.61349,0.03254
3271.55332,0.03282
3269.49315,0.03281
3267.43298,0.03243
3265.37281,0.03206
3263.31263,0.03193
3261.25246,0.03176
3259.19229,0.03157
3257.13212,0.03174
3255.07194,0.03203
3253.01177,0.03197
3250.95160,0.03189
3248.89143,0.03210
3246.83126,0.03233
3244.77108,0.03238
3242.71091,0.03226
3240.65074,0.03205
3238.59057,0.03200
3236.53040,0.03209
3234.47022,0.03209
3232.41005,0.03210
3230.34988,0.03221
3228.28971,0.03212
3226.22954,0.03187
3224.16936,0.03185
3222.10919,0.03200
3220.04902,0.03194
3217.98885,0.03171
3215.92867,0.03176
3213.86850,0.03183
3211.80833,0.03153
3209.74816,0.03128
3207.68799,0.03121
3205.62781,0.03100
3203.56764,0.03072
3201.50747,0.03067
3199.44730,0.03081
3197.38713,0.03060
3195.32695,0.03004
3193.26678,0.02982
3191.20661,0.02995
3189.14644,0.02986
3187.08626,0.02960
3185.02609,0.02960
3182.96592,0.02977
3180.90575,0.02983
3178.84558,0.02987
3176.78540,0.02980
3174.72523,0.02954
3172.66506,0.02952
3170.60489,0.02974
3168.54472,0.02968
3166.48454,0.02945
3164.42437,0.02931
3162.36420,0.02917
3160.30403,0.02894
3158.24386,0.02860
3156.18368,0.02828
3154.12351,0.02824
3152.06334,0.02831
3150.00317,0.02824
3147.94299,0.02824
3145.88282,0.02837
3143.82265,0.02843
3141.76248,0.02814
3139.70231,0.02753
3137.64213,0.02715
3135.58196,0.02721
3133.52179,0.02731
3131.46162,0.02719
3129.40145,0.02703
3127.34127,0.02704
3125.28110,0.02712
3123.22093,0.02711
3121.16076,0.02696
3119.10058,0.02668
3117.04041,0.02651
3114.98024,0.02651
3112.92007,0.02641
3110.85990,0.02610
3108.79972,0.02590
3106.73955,0.02587
3104.67938,0.02580
3102.61921,0.02571
3100.55904,0.02577
3098.49886,0.02578
3096.43869,0.02541
3094.37852,0.02488
3092.31835,0.02464
3090.25818,0.02463
3088.19800,0.02468
3086.13783,0.02482
3084.07766,0.02507
3082.01749,0.02529
3079.95731,0.02526
3077.89714,0.02497
3075.83697,0.02458
3073.77680,0.02437
3071.71663,0.02420
3069.65645,0.02386
3067.59628,0.02370
3065.53611,0.02387
3063.47594,0.02394
3061.41577,0.02379
3059.35559,0.02369
3057.29542,0.02352
3055.23525,0.02322
3053.17508,0.02310
3051.11491,0.02317
3049.05473,0.02335
3046.99456,0.02344
3044.93439,0.02326
3042.87422,0.02296
3040.81404,0.02267
3038.75387,0.02254
3036.69370,0.02255
3034.63353,0.02244
3032.57336,0.02213
3030.51318,0.02192
3028.45301,0.02189
3026.39284,0.02185
3024.33267,0.02174
3022.27250,0.02161
3020.21232,0.02140
3018.15215,0.02116
3016.09198,0.02111
3014.03181,0.02120
3011.97163,0.02130
3009.91146,0.02143
3007.85129,0.02143
3005.79112,0.02115
3003.73095,0.02074
3001.67077,0.02048
2999.61060,0.02047
2997.55043,0.02055
2995.49026,0.02051
2993.43009,0.02044
2991.36991,0.02039
2989.30974,0.02045
2987.24957,0.02070
2985.18940,0.02081
2983.12923,0.02063
2981.06905,0.02049
2979.00888,0.02039
2976.94871,0.02013
2974.88854,0.01993
2972.82836,0.01994
2970.76819,0.01981
2968.70802,0.01964
2966.64785,0.01960
2964.58768,0.01951
2962.52750,0.01947
2960.46733,0.01951
2958.40716,0.01950
2956.34699,0.01941
2954.28682,0.01930
2952.22664,0.01930
2950.16647,0.01927
2948.10630,0.01911
2946.04613,0.01900
2943.98596,0.01897
2941.92578,0.01896
2939.86561,0.01904
2937.80544,0.01911
2935.74527,0.01896
2933.68509,0.01856
2931.62492,0.01819
2929.56475,0.01813
2927.50458,0.01826
2925.44441,0.01828
2923.38423,0.01807
2921.32406,0.01773
2919.26389,0.01767
2917.20372,0.01793
2915.14355,0.01815
2913.08337,0.01819
2911.02320,0.01804
2908.96303,0.01771
2906.90286,0.01736
2904.84268,0.01715
2902.78251,0.01713
2900.72234,0.01713
2898.66217,0.01700
2896.60200,0.01687
2894.54182,0.01680
2892.48165,0.01663
2890.42148,0.01637
2888.36131,0.01622
2886.30114,0.01620
2884.24096,0.01613
2882.18079,0.01600
2880.12062,0.01594
2878.06045,0.01591
2876.00028,0.01577
2873.94010,0.01548
2871.87993,0.01532
2869.81976,0.01539
2867.75959,0.01547
2865.69941,0.01540
2863.63924,0.01512
2861.57907,0.01472
2859.51890,0.01435
2857.45873,0.01416
2855.39855,0.01412
2853.33838,0.01394
2851.27821,0.01374
2849.21804,0.01378
2847.15787,0.01381
2845.09769,0.01358
2843.03752,0.01329
2840.97735,0.01332
2838.91718,0.01338
2836.85700,0.01314
2834.79683,0.01307
2832.73666,0.01319
2830.67649,0.01298
2828.61632,0.01253
2826.55614,0.01236
2824.49597,0.01239
2822.43580,0.01229
2820.37563,0.01216
2818.31546,0.01210
2816.25528,0.01212
2814.19511,0.01213
2812.13494,0.01210
2810.07477,0.01211
2808.01460,0.01215
2805.95442,0.01204
2803.89425,0.01181
2801.83408,0.01163
2799.77391,0.01155
2797.71373,0.01141
2795.65356,0.01120
2793.59339,0.01106
2791.53322,0.01110
2789.47305,0.01112
2787.41287,0.01100
2785.35270,0.01093
2783.29253,0.01095
2781.23236,0.01091
2779.17219,0.01090
2777.11201,0.01089
2775.05184,0.01083
2772.99167,0.01085
2770.93150,0.01083
2768.87133,0.01074
2766.81115,0.01076
2764.75098,0.01068
2762.69081,0.01050
2760.63064,0.01051
2758.57046,0.01063
2756.51029,0.01051
2754.45012,0.01021
2752.38995,0.01012
2750.32978,0.01028
2748.26960,0.01040
2746.20943,0.01037
2744.14926,0.01024
2742.08909,0.01004
2740.02892,0.00978
2737.96874,0.00957
2735.90857,0.00951
2733.84840,0.00948
2731.78823,0.00950
2729.72805,0.00959
2727.66788,0.00959
2725.60771,0.00956
2723.54754,0.00952
2721.48737,0.00938
2719.42719,0.00932
2717.36702,0.00935
2715.30685,0.00936
2713.24668,0.00942
2711.18651,0.00951
2709.12633,0.00945
2707.06616,0.00930
2705.00599,0.00926
2702.94582,0.00918
2700.88565,0.00893
2698.82547,0.00893
2696.76530,0.00915
2694.70513,0.00914
2692.64496,0.00893
2690.58478,0.00884
2688.52461,0.00892
2686.46444,0.00894
2684.40427,0.00876
2682.34410,0.00851
2680.28392,0.00838
2678.22375,0.00849
2676.16358,0.00876
2674.10341,0.00902
2672.04324,0.00900
2669.98306,0.00865
2667.92289,0.00834
2665.86272,0.00833
2663.80255,0.00836
2661.74238,0.00823
2659.68220,0.00800
2657.62203,0.00794
2655.56186,0.00813
2653.50169,0.00818
2651.44151,0.00810
2649.38134,0.00822
2647.32117,0.00827
2645.26100,0.00824
2643.20083,0.00840
2641.14065,0.00840
2639.08048,0.00818
2637.02031,0.00808
2634.96014,0.00815
2632.89997,0.00822
2630.83979,0.00805
2628.77962,0.00776
2626.71945,0.00761
2624.65928,0.00745
2622.59910,0.00725
2620.53893,0.00723
2618.47876,0.00714
2616.41859,0.00700
2614.35842,0.00711
2612.29824,0.00742
2610.23807,0.00780
2608.17790,0.00786
2606.11773,0.00743
2604.05756,0.00715
2601.99738,0.00727
2599.93721,0.00744
2597.87704,0.00740
2595.81687,0.00728
2593.75670,0.00727
2591.69652,0.00724
2589.63635,0.00714
2587.57618,0.00727
2585.51601,0.00733
2583.45583,0.00699
2581.39566,0.00672
2579.33549,0.00686
2577.27532,0.00695
2575.21515,0.00666
2573.15497,0.00647
2571.09480,0.00667
2569.03463,0.00687
2566.97446,0.00676
2564.91429,0.00652
2562.85411,0.00652
2560.79394,0.00669
2558.73377,0.00671
2556.67360,0.00687
2554.61342,0.00710
2552.55325,0.00683
2550.49308,0.00631
2548.43291,0.00608
2546.37274,0.00642
2544.31256,0.00711
2542.25239,0.00749
2540.19222,0.00743
2538.13205,0.00728
2536.07188,0.00717
2534.01170,0.00707
2531.95153,0.00675
2529.89136,0.00646
2527.83119,0.00652
2525.77102,0.00656
2523.71084,0.00650
2521.65067,0.00640
2519.59050,0.00604
2517.53033,0.00575
2515.47015,0.00592
2513.40998,0.00637
2511.34981,0.00688
2509.28964,0.00721
2507.22947,0.00727
2505.16929,0.00728
2503.10912,0.00724
2501.04895,0.00723
2498.98878,0.00737
2496.92861,0.00730
2494.86843,0.00691
2492.80826,0.00672
2490.74809,0.00681
2488.68792,0.00693
2486.62775,0.00701
2484.56757,0.00714
2482.50740,0.00717
2480.44723,0.00716
2478.38706,0.00740
2476.32688,0.00756
2474.26671,0.00734
2472.20654,0.00706
2470.14637,0.00697
2468.08620,0.00716
2466.02602,0.00729
2463.96585,0.00709
2461.90568,0.00697
2459.84551,0.00705
2457.78534,0.00709
2455.72516,0.00698
2453.66499,0.00680
2451.60482,0.00683
2449.54465,0.00712
2447.48447,0.00728
2445.42430,0.00717
2443.36413,0.00716
2441.30396,0.00728
2439.24379,0.00722
2437.18361,0.00712
2435.12344,0.00696
2433.06327,0.00671
2431.00310,0.00680
2428.94293,0.00720
2426.88275,0.00744
2424.82258,0.00752
2422.76241,0.00751
2420.70224,0.00721
2418.64207,0.00685
2416.58189,0.00686
2414.52172,0.00712
2412.46155,0.00730
2410.40138,0.00727
2408.34120,0.00708
2406.28103,0.00693
2404.22086,0.00694
2402.16069,0.00687
2400.10052,0.00670
2398.04034,0.00575
2395.98017,0.00589
2393.92000,0.00641
2391.85983,0.00692
2389.79966,0.00765
2387.73948,0.00862
2385.67931,0.00944
2383.61914,0.00973
2381.55897,0.00972
2379.49880,0.01012
2377.43862,0.01091
2375.37845,0.01136
2373.31828,0.01149
2371.25811,0.01223
2369.19793,0.01373
2367.13776,0.01532
2365.07759,0.01585
2363.01742,0.01434
2360.95725,0.01221
2358.89707,0.01211
2356.83690,0.01443
2354.77673,0.01662
2352.71656,0.01687
2350.65639,0.01688
2348.59621,0.01717
2346.53604,0.01705
2344.47587,0.01675
2342.41570,0.01691
2340.35552,0.01736
2338.29535,0.01787
2336.23518,0.01778
2334.17501,0.01700
2332.11484,0.01635
2330.05466,0.01610
2327.99449,0.01586
2325.93432,0.01537
2323.87415,0.01408
2321.81398,0.01248
2319.75380,0.01199
2317.69363,0.01198
2315.63346,0.01139
2313.57329,0.01057
2311.51312,0.01028
2309.45294,0.01050
2307.39277,0.01072
2305.33260,0.01077
2303.27243,0.01047
2301.21225,0.00973
2299.15208,0.00927
2297.09191,0.00963
2295.03174,0.01040
2292.97157,0.01101
2290.91139,0.01109
2288.85122,0.01063
2286.79105,0.01003
2284.73088,0.00934
2282.67071,0.00837
2280.61053,0.00756
2278.55036,0.00727
2276.49019,0.00728
2274.43002,0.00737
2272.36984,0.00764
2270.30967,0.00820
2268.24950,0.00846
2266.18933,0.00782
2264.12916,0.00709
2262.06898,0.00711
2260.00881,0.00732
2257.94864,0.00743
2255.88847,0.00780
2253.82830,0.00802
2251.76812,0.00731
2249.70795,0.00647
2247.64778,0.00729
2245.58761,0.00799
2243.52744,0.00758
2241.46726,0.00728
2239.40709,0.00743
2237.34692,0.00750
2235.28675,0.00719
2233.22657,0.00663
2231.16640,0.00666
2229.10623,0.00684
2227.04606,0.00643
2224.98589,0.00610
2222.92571,0.00596
2220.86554,0.00589
2218.80537,0.00626
2216.74520,0.00650
2214.68503,0.00593
2212.62485,0.00540
2210.56468,0.00575
2208.50451,0.00682
2206.44434,0.00800
2204.38417,0.00825
2202.32399,0.00704
2200.26382,0.00569
2198.20365,0.00564
2196.14348,0.00668
2194.08330,0.00796
2192.02313,0.00829
2189.96296,0.00732
2187.90279,0.00628
2185.84262,0.00636
2183.78244,0.00732
2181.72227,0.00790
2179.66210,0.00713
2177.60193,0.00570
2175.54176,0.00512
2173.48158,0.00637
2171.42141,0.00854
2169.36124,0.00912
2167.30107,0.00831
2165.24089,0.00771
2163.18072,0.00640
2161.12055,0.00393
2159.06038,0.00185
2157.00021,0.00049
2154.94003,0.00025
2152.87986,0.00185
2150.81969,0.00406
2148.75952,0.00500
2146.69935,0.00466
2144.63917,0.00460
2142.57900,0.00506
2140.51883,0.00523
2138.45866,0.00472
2136.39849,0.00411
2134.33831,0.00439
2132.27814,0.00532
2130.21797,0.00596
2128.15780,0.00620
2126.09762,0.00653
2124.03745,0.00698
2121.97728,0.00710
2119.91711,0.00690
2117.85694,0.00667
2115.79676,0.00655
2113.73659,0.00678
2111.67642,0.00715
2109.61625,0.00732
2107.55608,0.00723
2105.49590,0.00695
2103.43573,0.00678
2101.37556,0.00693
2099.31539,0.00725
2097.25521,0.00739
2095.19504,0.00707
2093.13487,0.00684
2091.07470,0.00713
2089.01453,0.00745
2086.95435,0.00695
2084.89418,0.00615
2082.83401,0.00632
2080.77384,0.00702
2078.71367,0.00712
2076.65349,0.00664
2074.59332,0.00623
2072.53315,0.00630
2070.47298,0.00650
2068.41281,0.00670
2066.35263,0.00700
2064.29246,0.00696
2062.23229,0.00657
2060.17212,0.00637
2058.11194,0.00648
2056.05177,0.00661
2053.99160,0.00651
2051.93143,0.00598
2049.87126,0.00515
2047.81108,0.00479
2045.75091,0.00512
2043.69074,0.00529
2041.63057,0.00523
2039.57040,0.00520
2037.51022,0.00455
2035.45005,0.00393
2033.38988,0.00491
2031.32971,0.00656
2029.26954,0.00737
2027.20936,0.00742
2025.14919,0.00716
2023.08902,0.00627
2021.02885,0.00482
2018.96867,0.00367
2016.90850,0.00274
2014.84833,0.00129
2012.78816,0.00000
2010.72799,0.00083
2008.66781,0.00326
2006.60764,0.00446
2004.54747,0.00385
2002.48730,0.00355
2000.42713,0.00479
1998.36695,0.00625
1996.30678,0.00652
1994.24661,0.00600
1992.18644,0.00589
1990.12626,0.00650
1988.06609,0.00672
1986.00592,0.00601
1983.94575,0.00530
1981.88558,0.00493
1979.82540,0.00494
1977.76523,0.00598
1975.70506,0.00692
1973.64489,0.00633
1971.58472,0.00549
1969.52454,0.00552
1967.46437,0.00508
1965.40420,0.00384
1963.34403,0.00341
1961.28386,0.00394
1959.22368,0.00439
1957.16351,0.00462
1955.10334,0.00488
1953.04317,0.00465
1950.98299,0.00399
1948.92282,0.00406
1946.86265,0.00456
1944.80248,0.00423
1942.74231,0.00350
1940.68213,0.00335
1938.62196,0.00375
1936.56179,0.00406
1934.50162,0.00394
1932.44145,0.00372
1930.38127,0.00370
1928.32110,0.00382
1926.26093,0.00388
1924.20076,0.00406
1922.14059,0.00471
1920.08041,0.00536
1918.02024,0.00559
1915.96007,0.00538
1913.89990,0.00466
1911.83972,0.00365
1909.77955,0.00309
1907.71938,0.00351
1905.65921,0.00441
1903.59904,0.00496
1901.53886,0.00500
1899.47869,0.00495
1897.41852,0.00488
1895.35835,0.00458
1893.29818,0.00433
1891.23800,0.00455
1889.17783,0.00495
1887.11766,0.00485
1885.05749,0.00447
1882.99731,0.00425
1880.93714,0.00417
1878.87697,0.00425
1876.81680,0.00438
1874.75663,0.00431
1872.69645,0.00410
1870.63628,0.00413
1868.57611,0.00450
1866.51594,0.00462
1864.45577,0.00417
1862.39559,0.00359
1860.33542,0.00331
1858.27525,0.00365
1856.21508,0.00428
1854.15491,0.00442
1852.09473,0.00403
1850.03456,0.00372
1847.97439,0.00374
1845.91422,0.00395
1843.85404,0.00422
1841.79387,0.00444
1839.73370,0.00454
1837.67353,0.00455
1835.61336,0.00459
1833.55318,0.00469
1831.49301,0.00457
1829.43284,0.00417
1827.37267,0.00386
1825.31250,0.00381
1823.25232,0.00379
1821.19215,0.00376
1819.13198,0.00376
1817.07181,0.00368
1815.01163,0.00354
1812.95146,0.00355
1810.89129,0.00358
1808.83112,0.00359
1806.77095,0.00392
1804.71077,0.00440
1802.65060,0.00472
1800.59043,0.00492
1798.53026,0.00504
1796.47009,0.00510
1794.40991,0.00514
1792.34974,0.00503
1790.28957,0.00475
1788.22940,0.00453
1786.16923,0.00452
1784.10905,0.00460
1782.04888,0.00460
1779.98871,0.00448
1777.92854,0.00431
1775.86836,0.00436
1773.80819,0.00479
1771.74802,0.00523
1769.68785,0.00528
1767.62768,0.00510
1765.56750,0.00495
1763.50733,0.00496
1761.44716,0.00513
1759.38699,0.00538
1757.32682,0.00556
1755.26664,0.00569
1753.20647,0.00592
1751.14630,0.00620
1749.08613,0.00642
1747.02596,0.00663
1744.96578,0.00688
1742.90561,0.00688
1740.84544,0.00658
1738.78527,0.00643
1736.72509,0.00670
1734.66492,0.00705
1732.60475,0.00714
1730.54458,0.00695
1728.48441,0.00669
1726.42423,0.00655
1724.36406,0.00660
1722.30389,0.00676
1720.24372,0.00698
1718.18355,0.00719
1716.12337,0.00731
1714.06320,0.00731
1712.00303,0.00752
1709.94286,0.00797
1707.88268,0.00837
1705.82251,0.00880
1703.76234,0.00925
1701.70217,0.00944
1699.64200,0.00954
1697.58182,0.00991
1695.52165,0.01035
1693.46148,0.01077
1691.40131,0.01140
1689.34114,0.01208
1687.28096,0.01246
1685.22079,0.01273
1683.16062,0.01340
1681.10045,0.01415
1679.04028,0.01462
1676.98010,0.01493
1674.91993,0.01535
1672.85976,0.01592
1670.79959,0.01651
1668.73941,0.01691
1666.67924,0.01721
1664.61907,0.01769
1662.55890,0.01838
1660.49873,0.01907
1658.43855,0.01962
1656.37838,0.01999
1654.31821,0.02011
1652.25804,0.02011
1650.19787,0.02049
1648.13769,0.02106
1646.07752,0.02109
1644.01735,0.02059
1641.95718,0.02020
1639.89701,0.02022
1637.83683,0.02038
1635.77666,0.02013
1633.71649,0.01950
1631.65632,0.01906
1629.59614,0.01876
1627.53597,0.01837
1625.47580,0.01787
1623.41563,0.01733
1621.35546,0.01689
1619.29528,0.01648
1617.23511,0.01584
1615.17494,0.01525
1613.11477,0.01510
1611.05460,0.01500
1608.99442,0.01455
1606.93425,0.01390
1604.87408,0.01334
1602.81391,0.01297
1600.75373,0.01273
1598.69356,0.01251
1596.63339,0.01231
1594.57322,0.01208
1592.51305,0.01182
1590.45287,0.01149
1588.39270,0.01113
1586.33253,0.01086
1584.27236,0.01074
1582.21219,0.01065
1580.15201,0.01065
1578.09184,0.01080
1576.03167,0.01077
1573.97150,0.01043
1571.91133,0.01011
1569.85115,0.00985
1567.79098,0.00966
1565.73081,0.00962
1563.67064,0.00967
1561.61046,0.00971
1559.55029,0.00969
1557.49012,0.00969
1555.42995,0.00977
1553.36978,0.00986
1551.30960,0.00982
1549.24943,0.00961
1547.18926,0.00945
1545.12909,0.00967
1543.06892,0.01017
1541.00874,0.01021
1538.94857,0.00939
1536.88840,0.00870
1534.82823,0.00848
1532.76805,0.00827
1530.70788,0.00811
1528.64771,0.00822
1526.58754,0.00839
1524.52737,0.00834
1522.46719,0.00818
1520.40702,0.00809
1518.34685,0.00800
1516.28668,0.00776
1514.22651,0.00740
1512.16633,0.00719
1510.10616,0.00725
1508.04599,0.00731
1505.98582,0.00685
1503.92565,0.00629
1501.86547,0.00619
1499.80530,0.00615
1497.74513,0.00572
1495.68496,0.00517
1493.62478,0.00495
1491.56461,0.00514
1489.50444,0.00542
1487.44427,0.00528
1485.38410,0.00495
1483.32392,0.00494
1481.26375,0.00518
1479.20358,0.00530
1477.14341,0.00529
1475.08324,0.00528
1473.02306,0.00529
1470.96289,0.00529
1468.90272,0.00526
1466.84255,0.00528
1464.78238,0.00539
1462.72220,0.00560
1460.66203,0.00596
1458.60186,0.00629
1456.54169,0.00605
1454.48151,0.00541
1452.42134,0.00513
1450.36117,0.00516
1448.30100,0.00513
1446.24083,0.00503
1444.18065,0.00506
1442.12048,0.00519
1440.06031,0.00527
1438.00014,0.00522
1435.93997,0.00512
1433.87979,0.00511
1431.81962,0.00513
1429.75945,0.00511
1427.69928,0.00520
1425.63910,0.00546
1423.57893,0.00578
1421.51876,0.00607
1419.45859,0.00628
1417.39842,0.00622
1415.33824,0.00597
1413.27807,0.00594
1411.21790,0.00612
1409.15773,0.00622
1407.09756,0.00620
1405.03738,0.00617
1402.97721,0.00614
1400.91704,0.00612
1398.85687,0.00616
1396.79670,0.00614
1394.73652,0.00585
1392.67635,0.00539
1390.61618,0.00519
1388.55601,0.00520
1386.49583,0.00511
1384.43566,0.00494
1382.37549,0.00484
1380.31532,0.00480
1378.25515,0.00483
1376.19497,0.00490
1374.13480,0.00485
1372.07463,0.00466
1370.01446,0.00449
1367.95429,0.00442
1365.89411,0.00444
1363.83394,0.00446
1361.77377,0.00434
1359.71360,0.00407
1357.65343,0.00381
1355.59325,0.00366
1353.53308,0.00356
1351.47291,0.00343
1349.41274,0.00329
1347.35256,0.00322
1345.29239,0.00317
1343.23222,0.00310
1341.17205,0.00316
1339.11188,0.00329
1337.05170,0.00323
1334.99153,0.00314
1332.93136,0.00326
1330.87119,0.00332
1328.81102,0.00315
1326.75084,0.00303
1324.69067,0.00310
1322.63050,0.00320
1320.57033,0.00312
1318.51015,0.00294
1316.44998,0.00294
1314.38981,0.00305
1312.32964,0.00304
1310.26947,0.00299
1308.20929,0.00303
1306.14912,0.00300
1304.08895,0.00289
1302.02878,0.00288
1299.96861,0.00296
1297.90843,0.00295
1295.84826,0.00283
1293.78809,0.00279
1291.72792,0.00292
1289.66775,0.00300
1287.60757,0.00299
1285.54740,0.00293
1283.48723,0.00281
1281.42706,0.00276
1279.36688,0.00281
1277.30671,0.00285
1275.24654,0.00294
1273.18637,0.00306
1271.12620,0.00313
1269.06602,0.00314
1267.00585,0.00307
1264.94568,0.00302
1262.88551,0.00312
1260.82534,0.00330
1258.76516,0.00336
1256.70499,0.00327
1254.64482,0.00328
1252.58465,0.00350
1250.52447,0.00365
1248.46430,0.00357
1246.40413,0.00346
1244.34396,0.00344
1242.28379,0.00332
1240.22361,0.00304
1238.16344,0.00283
1236.10327,0.00288
1234.04310,0.00296
1231.98293,0.00289
1229.92275,0.00277
1227.86258,0.00258
1225.80241,0.00225
1223.74224,0.00199
1221.68207,0.00184
1219.62189,0.00176
1217.56172,0.00168
1215.50155,0.00147
1213.44138,0.00126
1211.38120,0.00121
1209.32103,0.00129
1207.26086,0.00130
1205.20069,0.00105
1203.14052,0.00063
1201.08034,0.00032
1199.02017,0.00031
1196.96000,0.00042
1194.89983,0.00034
1192.83966,0.00013
1190.77948,0.00000
1188.71931,-0.00000
1186.65914,0.00013
1184.59897,0.00030
1182.53880,0.00047
1180.47862,0.00065
1178.41845,0.00081
1176.35828,0.00088
1174.29811,0.00090
1172.23793,0.00093
1170.17776,0.00100
1168.11759,0.00121
1166.05742,0.00146
1163.99725,0.00162
1161.93707,0.00180
1159.87690,0.00196
1157.81673,0.00218
1155.75656,0.00261
1153.69639,0.00306
1151.63621,0.00342
1149.57604,0.00371
1147.51587,0.00383
1145.45570,0.00382
1143.39552,0.00412
1141.33535,0.00472
1139.27518,0.00521
1137.21501,0.00552
1135.15484,0.00590
1133.09466,0.00650
1131.03449,0.00722
1128.97432,0.00777
1126.91415,0.00814
1124.85398,0.00873
1122.79380,0.00960
1120.73363,0.01061
1118.67346,0.01167
1116.61329,0.01251
1114.55312,0.01319
1112.49294,0.01413
1110.43277,0.01535
1108.37260,0.01650
1106.31243,0.01753
1104.25225,0.01860
1102.19208,0.01970
1100.13191,0.02069
1098.07174,0.02155
1096.01157,0.02234
1093.95139,0.02315
1091.89122,0.02385
1089.83105,0.02444
1087.77088,0.02508
1085.71071,0.02583
1083.65053,0.02666
1081.59036,0.02746
1079.53019,0.02827
1077.47002,0.02900
1075.40985,0.02938
1073.34967,0.02939
1071.28950,0.02942
1069.22933,0.02974
1067.16916,0.03014
1065.10898,0.03021
1063.04881,0.02982
1060.98864,0.02929
1058.92847,0.02902
1056.86830,0.02878
1054.80812,0.02803
1052.74795,0.02689
1050.68778,0.02578
1048.62761,0.02478
1046.56744,0.02386
1044.50726,0.02286
1042.44709,0.02169
1040.38692,0.02050
1038.32675,0.01947
1036.26657,0.01867
1034.20640,0.01792
1032.14623,0.01681
1030.08606,0.01543
1028.02589,0.01445
1025.96571,0.01379
1023.90554,0.01305
1021.84537,0.01245
1019.78520,0.01210
1017.72503,0.01187
1015.66485,0.01169
1013.60468,0.01140
1011.54451,0.01106
1009.48434,0.01090
1007.42417,0.01096
1005.36399,0.01128
1003.30382,0.01188
1001.24365,0.01263
999.18348,0.01338
997.12330,0.01394
995.06313,0.01451
993.00296,0.01542
990.94279,0.01628
988.88262,0.01670
986.82244,0.01697
984.76227,0.01705
982.70210,0.01697
980.64193,0.01690
978.58176,0.01638
976.52158,0.01519
974.46141,0.01391
972.40124,0.01305
970.34107,0.01246
968.28089,0.01147
966.22072,0.01011
964.16055,0.00901
962.10038,0.00824
960.04021,0.00767
957.98003,0.00712
955.91986,0.00632
953.85969,0.00530
951.79952,0.00450
949.73935,0.00410
947.67917,0.00380
945.61900,0.00341
943.55883,0.00297
941.49866,0.00244
939.43849,0.00187
937.37831,0.00136
935.31814,0.00089
933.25797,0.00061
931.19780,0.00053
929.13762,0.00037
927.07745,0.00027
925.01728,0.00046
922.95711,0.00079
920.89694,0.00082
918.83676,0.00058
916.77659,0.00040
914.71642,0.00041
912.65625,0.00045
910.59608,0.00026
908.53590,0.00006
906.47573,0.00000
904.41556,0.00003
902.35539,0.00023
900.29522,0.00038
898.23504,0.00035
896.17487,0.00010
894.11470,-0.00016
892.05453,0.00003
889.99435,0.00065
887.93418,0.00130
885.87401,0.00180
883.81384,0.00208
881.75367,0.00234
879.69349,0.00285
877.63332,0.00339
875.57315,0.00354
873.51298,0.00340
871.45281,0.00347
869.39263,0.00397
867.33246,0.00427
865.27229,0.00400
863.21212,0.00378
861.15194,0.00401
859.09177,0.00445
857.03160,0.00489
854.97143,0.00541
852.91126,0.00593
850.85108,0.00604
848.79091,0.00565
846.73074,0.00502
844.67057,0.00430
842.61040,0.00404
840.55022,0.00430
838.49005,0.00426
836.42988,0.00384
834.36971,0.00352
832.30954,0.00364
830.24936,0.00408
828.18919,0.00409
826.12902,0.00333
824.06885,0.00272
822.00867,0.00283
819.94850,0.00321
817.88833,0.00301
815.82816,0.00224
813.76799,0.00182
811.70781,0.00200
809.64764,0.00240
807.58747,0.00256
805.52730,0.00251
803.46713,0.00267
801.40695,0.00261
799.34678,0.00198
797.28661,0.00125
795.22644,0.00100
793.16627,0.00119
791.10609,0.00123
789.04592,0.00140
786.98575,0.00207
784.92558,0.00230
782.86540,0.00178
780.80523,0.00151
778.74506,0.00185
776.68489,0.00231
774.62472,0.00228
772.56454,0.00183
770.50437,0.00155
768.44420,0.00192
766.38403,0.00258
764.32386,0.00274
762.26368,0.00269
760.20351,0.00269
758.14334,0.00243
756.08317,0.00188
754.02299,0.00152
751.96282,0.00177
749.90265,0.00210
747.84248,0.00217
745.78231,0.00214
743.72213,0.00188
741.66196,0.00167
739.60179,0.00191
737.54162,0.00232
735.48145,0.00267
733.42127,0.00283
731.36110,0.00269
729.30093,0.00262
727.24076,0.00314
725.18059,0.00379
723.12041,0.00438
721.06024,0.00384
719.00007,0.00348
716.93990,0.00324
714.87972,0.00296
712.81955,0.00298
710.75938,0.00324
708.69921,0.00361
706.63904,0.00378
704.57886,0.00380
702.51869,0.00412
700.45852,0.00471
698.39835,0.00519
696.33818,0.00542
694.27800,0.00542
692.21783,0.00504
690.15766,0.00428
688.09749,0.00375
686.03731,0.00387
683.97714,0.00444
681.91697,0.00503
679.85680,0.00493
677.79663,0.00445
675.73645,0.00464
673.67628,0.00500
671.61611,0.00388
669.55594,0.00234
667.49577,0.00294
665.43559,0.00381
663.37542,0.00568
661.31525,0.00640
659.25508,0.00565
657.19491,0.00501
655.13473,0.00510
653.07456,0.00530
651.01439,0.00520
648.95422,0.00530
646.89404,0.00614
644.83387,0.00725
642.77370,0.00762
640.71353,0.00711
638.65336,0.00674
636.59318,0.00655
634.53301,0.00590
632.47284,0.00447
630.41267,0.00236
628.35250,0.00121
626.29232,0.00235
624.23215,0.00380
622.17198,0.00399
620.11181,0.00450
618.05164,0.00500
615.99146,0.00278
613.93129,0.00000
611.87112,-0.00047
609.81095,0.00049
607.75077,0.00022
605.69060,-0.00137
603.63043,-0.00251
601.57026,-0.00207
599.51009,0.00000
