3996.73391,-0.00069
3994.67373,-0.00052
3992.61356,-0.00034
3990.55339,-0.00018
3988.49322,-0.00018
3986.43305,-0.00027
3984.37287,-0.00026
3982.31270,-0.00015
3980.25253,-0.00013
3978.19236,-0.00029
3976.13219,-0.00047
3974.07201,-0.00047
3972.01184,-0.00030
3969.95167,-0.00011
3967.89150,0.00005
3965.83133,0.00012
3963.77115,0.00016
3961.71098,0.00021
3959.65081,0.00018
3957.59064,0.00008
3955.53046,0.00010
3953.47029,0.00028
3951.41012,0.00032
3949.34995,0.00012
3947.28978,0.00000
3945.22960,0.00011
3943.16943,0.00017
3941.10926,0.00010
3939.04909,0.00010
3936.98892,0.00011
3934.92874,0.00002
3932.86857,0.00005
3930.80840,0.00034
3928.74823,0.00053
3926.68805,0.00044
3924.62788,0.00024
3922.56771,-0.00001
3920.50754,-0.00022
3918.44737,-0.00020
3916.38719,0.00017
3914.32702,0.00069
3912.26685,0.00094
3910.20668,0.00090
3908.14651,0.00081
3906.08633,0.00062
3904.02616,0.00027
3901.96599,0.00019
3899.90582,0.00060
3897.84565,0.00100
3895.78547,0.00105
3893.72530,0.00095
3891.66513,0.00103
3889.60496,0.00114
3887.54478,0.00100
3885.48461,0.00086
3883.42444,0.00079
3881.36427,0.00075
3879.30410,0.00075
3877.24392,0.00058
3875.18375,0.00032
3873.12358,0.00022
3871.06341,0.00043
3869.00324,0.00088
3866.94306,0.00105
3864.88289,0.00098
3862.82272,0.00108
3860.76255,0.00111
3858.70237,0.00069
3856.64220,0.00000
3854.58203,0.00008
3852.52186,0.00141
3850.46169,0.00227
3848.40151,0.00187
3846.34134,0.00121
3844.28117,0.00102
3842.22100,0.00113
3840.16083,0.00104
3838.10065,0.00096
3836.04048,0.00135
3833.98031,0.00177
3831.92014,0.00194
3829.85997,0.00205
3827.79979,0.00201
3825.73962,0.00158
3823.67945,0.00104
3821.61928,0.00109
3819.55910,0.00152
3817.49893,0.00177
3815.43876,0.00195
3813.37859,0.00196
3811.31842,0.00161
3809.25824,0.00126
3807.19807,0.00117
3805.13790,0.00125
3803.07773,0.00149
3801.01756,0.00197
3798.95738,0.00215
3796.89721,0.00212
3794.83704,0.00241
3792.77687,0.00270
3790.71670,0.00256
3788.65652,0.00224
3786.59635,0.00213
3784.53618,0.00220
3782.47601,0.00228
3780.41583,0.00247
3778.35566,0.00267
3776.29549,0.00263
3774.23532,0.00238
3772.17515,0.00216
3770.11497,0.00206
3768.05480,0.00200
3765.99463,0.00191
3763.93446,0.00177
3761.87429,0.00163
3759.81411,0.00162
3757.75394,0.00165
3755.69377,0.00160
3753.63360,0.00130
3751.57342,0.00075
3749.51325,0.00049
3747.45308,0.00070
3745.39291,0.00073
3743.33274,0.00086
3741.27256,0.00111
3739.21239,0.00123
3737.15222,0.00164
3735.09205,0.00223
3733.03188,0.00233
3730.97170,0.00198
3728.91153,0.00169
3726.85136,0.00171
3724.79119,0.00199
3722.73102,0.00240
3720.67084,0.00262
3718.61067,0.00234
3716.55050,0.00189
3714.49033,0.00201
3712.43015,0.00295
3710.36998,0.00365
3708.30981,0.00340
3706.24964,0.00289
3704.18947,0.00263
3702.12929,0.00261
3700.06912,0.00260
3698.00895,0.00256
3695.94878,0.00262
3693.88861,0.00268
3691.82843,0.00273
3689.76826,0.00306
3687.70809,0.00358
3685.64792,0.00373
3683.58775,0.00349
3681.52757,0.00319
3679.46740,0.00279
3677.40723,0.00247
3675.34706,0.00276
3673.28688,0.00316
3671.22671,0.00341
3669.16654,0.00387
3667.10637,0.00405
3665.04620,0.00379
3662.98602,0.00348
3660.92585,0.00331
3658.86568,0.00328
3656.80551,0.00343
3654.74534,0.00354
3652.68516,0.00348
3650.62499,0.00375
3648.56482,0.00452
3646.50465,0.00514
3644.44447,0.00511
3642.38430,0.00486
3640.32413,0.00476
3638.26396,0.00483
3636.20379,0.00497
3634.14361,0.00522
3632.08344,0.00560
3630.02327,0.00611
3627.96310,0.00645
3625.90293,0.00627
3623.84275,0.00594
3621.78258,0.00581
3619.72241,0.00582
3617.66224,0.00584
3615.60207,0.00590
3613.54189,0.00613
3611.48172,0.00645
3609.42155,0.00682
3607.36138,0.00714
3605.30120,0.00726
3603.24103,0.00741
3601.18086,0.00785
3599.12069,0.00842
3597.06052,0.00880
3595.00034,0.00900
3592.94017,0.00917
3590.88000,0.00940
3588.81983,0.00967
3586.75966,0.00990
3584.69948,0.01004
3582.63931,0.01022
3580.57914,0.01052
3578.51897,0.01088
3576.45879,0.01116
3574.39862,0.01134
3572.33845,0.01149
3570.27828,0.01162
3568.21811,0.01182
3566.15793,0.01223
3564.09776,0.01261
3562.03759,0.01274
3559.97742,0.01283
3557.91725,0.01298
3555.85707,0.01311
3553.79690,0.01322
3551.73673,0.01329
3549.67656,0.01334
3547.61639,0.01336
3545.55621,0.01342
3543.49604,0.01366
3541.43587,0.01409
3539.37570,0.01462
3537.31552,0.01508
3535.25535,0.01539
3533.19518,0.01565
3531.13501,0.01593
3529.07484,0.01614
3527.01466,0.01616
3524.95449,0.01601
3522.89432,0.01599
3520.83415,0.01626
3518.77398,0.01672
3516.71380,0.01714
3514.65363,0.01742
3512.59346,0.01757
3510.53329,0.01758
3508.47312,0.01749
3506.41294,0.01753
3504.35277,0.01781
3502.29260,0.01814
3500.23243,0.01843
3498.17225,0.01874
3496.11208,0.01907
3494.05191,0.01937
3491.99174,0.01976
3489.93157,0.02025
3487.87139,0.02048
3485.81122,0.02032
3483.75105,0.02014
3481.69088,0.02024
3479.63071,0.02046
3477.57053,0.02072
3475.51036,0.02103
3473.45019,0.02111
3471.39002,0.02096
3469.32984,0.02111
3467.26967,0.02149
3465.20950,0.02162
3463.14933,0.02160
3461.08916,0.02173
3459.02898,0.02182
3456.96881,0.02189
3454.90864,0.02224
3452.84847,0.02273
3450.78830,0.02295
3448.72812,0.02282
3446.66795,0.02267
3444.60778,0.02271
3442.54761,0.02283
3440.48744,0.02290
3438.42726,0.02295
3436.36709,0.02310
3434.30692,0.02338
3432.24675,0.02365
3430.18657,0.02386
3428.12640,0.02404
3426.06623,0.02410
3424.00606,0.02408
3421.94589,0.02420
3419.88571,0.02452
3417.82554,0.02489
3415.76537,0.02514
3413.70520,0.02524
3411.64503,0.02518
3409.58485,0.02494
3407.52468,0.02476
3405.46451,0.02486
3403.40434,0.02513
3401.34416,0.02535
3399.28399,0.02513
3397.22382,0.02519
3395.16365,0.02539
3393.10348,0.02554
3391.04330,0.02560
3388.98313,0.02569
3386.92296,0.02596
3384.86279,0.02639
3382.80262,0.02679
3380.74244,0.02703
3378.68227,0.02710
3376.62210,0.02713
3374.56193,0.02719
3372.50176,0.02723
3370.44158,0.02718
3368.38141,0.02711
3366.32124,0.02714
3364.26107,0.02724
3362.20089,0.02737
3360.14072,0.02742
3358.08055,0.02740
3356.02038,0.02740
3353.96021,0.02750
3351.90003,0.02764
3349.83986,0.02765
3347.77969,0.02757
3345.71952,0.02757
3343.65935,0.02771
3341.59917,0.02776
3339.53900,0.02762
3337.47883,0.02758
3335.41866,0.02769
3333.35849,0.02774
3331.29831,0.02792
3329.23814,0.02831
3327.17797,0.02853
3325.11780,0.02843
3323.05762,0.02834
3320.99745,0.02845
3318.93728,0.02844
3316.87711,0.02832
3314.81694,0.02826
3312.75676,0.02808
3310.69659,0.02783
3308.63642,0.02779
3306.57625,0.02801
3304.51608,0.02832
3302.45590,0.02850
3300.39573,0.02852
3298.33556,0.02851
3296.27539,0.02852
3294.21521,0.02850
3292.15504,0.02849
3290.09487,0.02857
3288.03470,0.02875
3285.97453,0.02893
3283.91435,0.02906
3281.85418,0.02910
3279.79401,0.02897
3277.73384,0.02882
3275.67367,0.02878
3273.61349,0.02878
3271.55332,0.02883
3269.49315,0.02893
3267.43298,0.02902
3265.37281,0.02909
3263.31263,0.02917
3261.25246,0.02921
3259.19229,0.02921
3257.13212,0.02910
3255.07194,0.02891
3253.01177,0.02875
3250.95160,0.02877
3248.89143,0.02891
3246.83126,0.02890
3244.77108,0.02879
3242.71091,0.02880
3240.65074,0.02887
3238.59057,0.02890
3236.53040,0.02887
3234.47022,0.02887
3232.41005,0.02890
3230.34988,0.02889
3228.28971,0.02882
3226.22954,0.02877
3224.16936,0.02880
3222.10919,0.02876
3220.04902,0.02859
3217.98885,0.02853
3215.92867,0.02865
3213.86850,0.02874
3211.80833,0.02869
3209.74816,0.02854
3207.68799,0.02841
3205.62781,0.02837
3203.56764,0.02836
3201.50747,0.02836
3199.44730,0.02848
3197.38713,0.02864
3195.32695,0.02856
3193.26678,0.02832
3191.20661,0.02812
3189.14644,0.02804
3187.08626,0.02803
3185.02609,0.02800
3182.96592,0.02794
3180.90575,0.02786
3178.84558,0.02779
3176.78540,0.02784
3174.72523,0.02793
3172.66506,0.02793
3170.60489,0.02790
3168.54472,0.02788
3166.48454,0.02788
3164.42437,0.02790
3162.36420,0.02791
3160.30403,0.02795
3158.24386,0.02801
3156.18368,0.02790
3154.12351,0.02754
3152.06334,0.02727
3150.00317,0.02724
3147.94299,0.02730
3145.88282,0.02735
3143.82265,0.02733
3141.76248,0.02723
3139.70231,0.02717
3137.64213,0.02719
3135.58196,0.02717
3133.52179,0.02696
3131.46162,0.02677
3129.40145,0.02679
3127.34127,0.02687
3125.28110,0.02683
3123.22093,0.02668
3121.16076,0.02655
3119.10058,0.02647
3117.04041,0.02635
3114.98024,0.02610
3112.92007,0.02590
3110.85990,0.02599
3108.79972,0.02621
3106.73955,0.02622
3104.67938,0.02601
3102.61921,0.02580
3100.55904,0.02574
3098.49886,0.02581
3096.43869,0.02583
3094.37852,0.02574
3092.31835,0.02568
3090.25818,0.02570
3088.19800,0.02573
3086.13783,0.02581
3084.07766,0.02581
3082.01749,0.02563
3079.95731,0.02556
3077.89714,0.02563
3075.83697,0.02558
3073.77680,0.02554
3071.71663,0.02560
3069.65645,0.02556
3067.59628,0.02535
3065.53611,0.02522
3063.47594,0.02533
3061.41577,0.02544
3059.35559,0.02530
3057.29542,0.02500
3055.23525,0.02480
3053.17508,0.02475
3051.11491,0.02477
3049.05473,0.02478
3046.99456,0.02473
3044.93439,0.02463
3042.87422,0.02448
3040.81404,0.02434
3038.75387,0.02428
3036.69370,0.02428
3034.63353,0.02425
3032.57336,0.02416
3030.51318,0.02406
3028.45301,0.02395
3026.39284,0.02387
3024.33267,0.02388
3022.27250,0.02393
3020.21232,0.02401
3018.15215,0.02407
3016.09198,0.02394
3014.03181,0.02366
3011.97163,0.02344
3009.91146,0.02338
3007.85129,0.02340
3005.79112,0.02340
3003.73095,0.02339
3001.67077,0.02338
2999.61060,0.02334
2997.55043,0.02326
2995.49026,0.02317
2993.43009,0.02302
2991.36991,0.02299
2989.30974,0.02315
2987.24957,0.02338
2985.18940,0.02355
2983.12923,0.02366
2981.06905,0.02360
2979.00888,0.02344
2976.94871,0.02349
2974.88854,0.02363
2972.82836,0.02360
2970.76819,0.02359
2968.70802,0.02370
2966.64785,0.02363
2964.58768,0.02344
2962.52750,0.02348
2960.46733,0.02372
2958.40716,0.02392
2956.34699,0.02404
2954.28682,0.02412
2952.22664,0.02417
2950.16647,0.02415
2948.10630,0.02405
2946.04613,0.02402
2943.98596,0.02408
2941.92578,0.02403
2939.86561,0.02388
2937.80544,0.02391
2935.74527,0.02416
2933.68509,0.02441
2931.62492,0.02454
2929.56475,0.02456
2927.50458,0.02446
2925.44441,0.02430
2923.38423,0.02426
2921.32406,0.02442
2919.26389,0.02457
2917.20372,0.02457
2915.14355,0.02465
2913.08337,0.02476
2911.02320,0.02468
2908.96303,0.02452
2906.90286,0.02449
2904.84268,0.02452
2902.78251,0.02452
2900.72234,0.02451
2898.66217,0.02447
2896.60200,0.02440
2894.54182,0.02440
2892.48165,0.02443
2890.42148,0.02445
2888.36131,0.02461
2886.30114,0.02479
2884.24096,0.02483
2882.18079,0.02478
2880.12062,0.02466
2878.06045,0.02455
2876.00028,0.02453
2873.94010,0.02452
2871.87993,0.02454
2869.81976,0.02455
2867.75959,0.02453
2865.69941,0.02456
2863.63924,0.02448
2861.57907,0.02433
2859.51890,0.02421
2857.45873,0.02407
2855.39855,0.02400
2853.33838,0.02398
2851.27821,0.02390
2849.21804,0.02386
2847.15787,0.02393
2845.09769,0.02399
2843.03752,0.02390
2840.97735,0.02378
2838.91718,0.02363
2836.85700,0.02340
2834.79683,0.02332
2832.73666,0.02343
2830.67649,0.02348
2828.61632,0.02339
2826.55614,0.02327
2824.49597,0.02311
2822.43580,0.02284
2820.37563,0.02262
2818.31546,0.02259
2816.25528,0.02276
2814.19511,0.02292
2812.13494,0.02286
2810.07477,0.02260
2808.01460,0.02236
2805.95442,0.02227
2803.89425,0.02219
2801.83408,0.02209
2799.77391,0.02208
2797.71373,0.02209
2795.65356,0.02201
2793.59339,0.02189
2791.53322,0.02178
2789.47305,0.02168
2787.41287,0.02161
2785.35270,0.02158
2783.29253,0.02159
2781.23236,0.02161
2779.17219,0.02165
2777.11201,0.02168
2775.05184,0.02151
2772.99167,0.02123
2770.93150,0.02101
2768.87133,0.02086
2766.81115,0.02080
2764.75098,0.02076
2762.69081,0.02066
2760.63064,0.02051
2758.57046,0.02048
2756.51029,0.02056
2754.45012,0.02057
2752.38995,0.02061
2750.32978,0.02061
2748.26960,0.02047
2746.20943,0.02031
2744.14926,0.02024
2742.08909,0.02026
2740.02892,0.02030
2737.96874,0.02028
2735.90857,0.02018
2733.84840,0.02004
2731.78823,0.02001
2729.72805,0.02008
2727.66788,0.02003
2725.60771,0.01981
2723.54754,0.01959
2721.48737,0.01955
2719.42719,0.01966
2717.36702,0.01979
2715.30685,0.01982
2713.24668,0.01973
2711.18651,0.01968
2709.12633,0.01967
2707.06616,0.01962
2705.00599,0.01956
2702.94582,0.01947
2700.88565,0.01943
2698.82547,0.01946
2696.76530,0.01940
2694.70513,0.01927
2692.64496,0.01922
2690.58478,0.01923
2688.52461,0.01920
2686.46444,0.01921
2684.40427,0.01930
2682.34410,0.01932
2680.28392,0.01930
2678.22375,0.01941
2676.16358,0.01945
2674.10341,0.01933
2672.04324,0.01920
2669.98306,0.01906
2667.92289,0.01895
2665.86272,0.01894
2663.80255,0.01892
2661.74238,0.01888
2659.68220,0.01891
2657.62203,0.01896
2655.56186,0.01893
2653.50169,0.01883
2651.44151,0.01876
2649.38134,0.01880
2647.32117,0.01888
2645.26100,0.01889
2643.20083,0.01881
2641.14065,0.01870
2639.08048,0.01866
2637.02031,0.01877
2634.96014,0.01894
2632.89997,0.01904
2630.83979,0.01906
2628.77962,0.01898
2626.71945,0.01879
2624.65928,0.01870
2622.59910,0.01869
2620.53893,0.01860
2618.47876,0.01857
2616.41859,0.01864
2614.35842,0.01882
2612.29824,0.01904
2610.23807,0.01911
2608.17790,0.01901
2606.11773,0.01880
2604.05756,0.01854
2601.99738,0.01846
2599.93721,0.01867
2597.87704,0.01891
2595.81687,0.01896
2593.75670,0.01893
2591.69652,0.01893
2589.63635,0.01891
2587.57618,0.01892
2585.51601,0.01897
2583.45583,0.01901
2581.39566,0.01903
2579.33549,0.01900
2577.27532,0.01891
2575.21515,0.01894
2573.15497,0.01905
2571.09480,0.01892
2569.03463,0.01873
2566.97446,0.01885
2564.91429,0.01906
2562.85411,0.01913
2560.79394,0.01917
2558.73377,0.01920
2556.67360,0.01916
2554.61342,0.01917
2552.55325,0.01924
2550.49308,0.01933
2548.43291,0.01945
2546.37274,0.01954
2544.31256,0.01944
2542.25239,0.01914
2540.19222,0.01883
2538.13205,0.01884
2536.07188,0.01911
2534.01170,0.01937
2531.95153,0.01952
2529.89136,0.01956
2527.83119,0.01958
2525.77102,0.01972
2523.71084,0.01975
2521.65067,0.01958
2519.59050,0.01956
2517.53033,0.01962
2515.47015,0.01956
2513.40998,0.01962
2511.34981,0.01994
2509.28964,0.02023
2507.22947,0.02023
2505.16929,0.02009
2503.10912,0.02000
2501.04895,0.01987
2498.98878,0.01965
2496.92861,0.01971
2494.86843,0.02012
2492.80826,0.02050
2490.74809,0.02068
2488.68792,0.02058
2486.62775,0.02036
2484.56757,0.02041
2482.50740,0.02059
2480.44723,0.02064
2478.38706,0.02071
2476.32688,0.02077
2474.26671,0.02080
2472.20654,0.02100
2470.14637,0.02125
2468.08620,0.02131
2466.02602,0.02108
2463.96585,0.02095
2461.90568,0.02123
2459.84551,0.02160
2457.78534,0.02150
2455.72516,0.02101
2453.66499,0.02077
2451.60482,0.02089
2449.54465,0.02112
2447.48447,0.02135
2445.42430,0.02143
2443.36413,0.02146
2441.30396,0.02165
2439.24379,0.02179
2437.18361,0.02162
2435.12344,0.02141
2433.06327,0.02137
2431.00310,0.02140
2428.94293,0.02144
2426.88275,0.02155
2424.82258,0.02158
2422.76241,0.02156
2420.70224,0.02153
2418.64207,0.02147
2416.58189,0.02157
2414.52172,0.02174
2412.46155,0.02156
2410.40138,0.02112
2408.34120,0.02087
2406.28103,0.02095
2404.22086,0.02120
2402.16069,0.02150
2400.10052,0.02162
2398.04034,0.02164
2395.98017,0.02162
2393.92000,0.02158
2391.85983,0.02142
2389.79966,0.02121
2387.73948,0.02102
2385.67931,0.02082
2383.61914,0.02058
2381.55897,0.02045
2379.49880,0.02050
2377.43862,0.02062
2375.37845,0.02052
2373.31828,0.02045
2371.25811,0.02073
2369.19793,0.02135
2367.13776,0.02184
2365.07759,0.02157
2363.01742,0.02049
2360.95725,0.01983
2358.89707,0.01932
2356.83690,0.01932
2354.77673,0.01962
2352.71656,0.01997
2350.65639,0.02066
2348.59621,0.02094
2346.53604,0.01984
2344.47587,0.01962
2342.41570,0.02006
2340.35552,0.02053
2338.29535,0.02056
2336.23518,0.02017
2334.17501,0.01989
2332.11484,0.01969
2330.05466,0.01954
2327.99449,0.01943
2325.93432,0.01962
2323.87415,0.01951
2321.81398,0.01949
2319.75380,0.01940
2317.69363,0.01947
2315.63346,0.01938
2313.57329,0.01913
2311.51312,0.01897
2309.45294,0.01898
2307.39277,0.01915
2305.33260,0.01939
2303.27243,0.01954
2301.21225,0.01943
2299.15208,0.01911
2297.09191,0.01880
2295.03174,0.01891
2292.97157,0.01933
2290.91139,0.01957
2288.85122,0.01949
2286.79105,0.01922
2284.73088,0.01894
2282.67071,0.01888
2280.61053,0.01900
2278.55036,0.01906
2276.49019,0.01906
2274.43002,0.01907
2272.36984,0.01886
2270.30967,0.01855
2268.24950,0.01858
2266.18933,0.01883
2264.12916,0.01896
2262.06898,0.01905
2260.00881,0.01910
2257.94864,0.01888
2255.88847,0.01862
2253.82830,0.01842
2251.76812,0.01798
2249.70795,0.01762
2247.64778,0.01785
2245.58761,0.01816
2243.52744,0.01790
2241.46726,0.01750
2239.40709,0.01761
2237.34692,0.01775
2235.28675,0.01762
2233.22657,0.01773
2231.16640,0.01791
2229.10623,0.01794
2227.04606,0.01807
2224.98589,0.01813
2222.92571,0.01771
2220.86554,0.01703
2218.80537,0.01678
2216.74520,0.01681
2214.68503,0.01701
2212.62485,0.01750
2210.56468,0.01768
2208.50451,0.01759
2206.44434,0.01734
2204.38417,0.01706
2202.32399,0.01716
2200.26382,0.01682
2198.20365,0.01644
2196.14348,0.01730
2194.08330,0.01774
2192.02313,0.01703
2189.96296,0.01675
2187.90279,0.01688
2185.84262,0.01659
2183.78244,0.01613
2181.72227,0.01614
2179.66210,0.01670
2177.60193,0.01710
2175.54176,0.01669
2173.48158,0.01608
2171.42141,0.01599
2169.36124,0.01582
2167.30107,0.01557
2165.24089,0.01584
2163.18072,0.01585
2161.12055,0.01471
2159.06038,0.01355
2157.00021,0.01390
2154.94003,0.01523
2152.87986,0.01642
2150.81969,0.01669
2148.75952,0.01585
2146.69935,0.01504
2144.63917,0.01518
2142.57900,0.01578
2140.51883,0.01611
2138.45866,0.01589
2136.39849,0.01563
2134.33831,0.01591
2132.27814,0.01613
2130.21797,0.01587
2128.15780,0.01588
2126.09762,0.01652
2124.03745,0.01696
2121.97728,0.01691
2119.91711,0.01687
2117.85694,0.01655
2115.79676,0.01576
2113.73659,0.01529
2111.67642,0.01551
2109.61625,0.01580
2107.55608,0.01585
2105.49590,0.01579
2103.43573,0.01557
2101.37556,0.01556
2099.31539,0.01631
2097.25521,0.01679
2095.19504,0.01656
2093.13487,0.01610
2091.07470,0.01586
2089.01453,0.01589
2086.95435,0.01583
2084.89418,0.01562
2082.83401,0.01581
2080.77384,0.01650
2078.71367,0.01693
2076.65349,0.01673
2074.59332,0.01641
2072.53315,0.01627
2070.47298,0.01612
2068.41281,0.01601
2066.35263,0.01598
2064.29246,0.01587
2062.23229,0.01555
2060.17212,0.01503
2058.11194,0.01478
2056.05177,0.01511
2053.99160,0.01590
2051.93143,0.01668
2049.87126,0.01686
2047.81108,0.01685
2045.75091,0.01739
2043.69074,0.01776
2041.63057,0.01739
2039.57040,0.01673
2037.51022,0.01622
2035.45005,0.01620
2033.38988,0.01623
2031.32971,0.01554
2029.26954,0.01477
2027.20936,0.01510
2025.14919,0.01616
2023.08902,0.01685
2021.02885,0.01686
2018.96867,0.01645
2016.90850,0.01613
2014.84833,0.01602
2012.78816,0.01577
2010.72799,0.01587
2008.66781,0.01673
2006.60764,0.01716
2004.54747,0.01624
2002.48730,0.01511
2000.42713,0.01490
1998.36695,0.01527
1996.30678,0.01554
1994.24661,0.01542
1992.18644,0.01505
1990.12626,0.01525
1988.06609,0.01601
1986.00592,0.01633
1983.94575,0.01613
1981.88558,0.01651
1979.82540,0.01775
1977.76523,0.01843
1975.70506,0.01749
1973.64489,0.01637
1971.58472,0.01647
1969.52454,0.01699
1967.46437,0.01720
1965.40420,0.01732
1963.34403,0.01722
1961.28386,0.01674
1959.22368,0.01622
1957.16351,0.01614
1955.10334,0.01650
1953.04317,0.01693
1950.98299,0.01705
1948.92282,0.01690
1946.86265,0.01671
1944.80248,0.01660
1942.74231,0.01671
1940.68213,0.01695
1938.62196,0.01700
1936.56179,0.01687
1934.50162,0.01682
1932.44145,0.01667
1930.38127,0.01659
1928.32110,0.01701
1926.26093,0.01744
1924.20076,0.01724
1922.14059,0.01672
1920.08041,0.01641
1918.02024,0.01644
1915.96007,0.01680
1913.89990,0.01728
1911.83972,0.01758
1909.77955,0.01772
1907.71938,0.01787
1905.65921,0.01802
1903.59904,0.01798
1901.53886,0.01765
1899.47869,0.01718
1897.41852,0.01702
1895.35835,0.01724
1893.29818,0.01744
1891.23800,0.01763
1889.17783,0.01792
1887.11766,0.01822
1885.05749,0.01841
1882.99731,0.01837
1880.93714,0.01823
1878.87697,0.01830
1876.81680,0.01854
1874.75663,0.01874
1872.69645,0.01893
1870.63628,0.01919
1868.57611,0.01937
1866.51594,0.01930
1864.45577,0.01918
1862.39559,0.01919
1860.33542,0.01918
1858.27525,0.01912
1856.21508,0.01906
1854.15491,0.01899
1852.09473,0.01895
1850.03456,0.01904
1847.97439,0.01919
1845.91422,0.01925
1843.85404,0.01925
1841.79387,0.01942
1839.73370,0.01968
1837.67353,0.01977
1835.61336,0.01963
1833.55318,0.01958
1831.49301,0.01983
1829.43284,0.02008
1827.37267,0.02009
1825.31250,0.02011
1823.25232,0.02026
1821.19215,0.02045
1819.13198,0.02059
1817.07181,0.02064
1815.01163,0.02056
1812.95146,0.02037
1810.89129,0.02014
1808.83112,0.02006
1806.77095,0.02019
1804.71077,0.02042
1802.65060,0.02062
1800.59043,0.02077
1798.53026,0.02076
1796.47009,0.02063
1794.40991,0.02058
1792.34974,0.02064
1790.28957,0.02066
1788.22940,0.02051
1786.16923,0.02027
1784.10905,0.02029
1782.04888,0.02061
1779.98871,0.02082
1777.92854,0.02084
1775.86836,0.02094
1773.80819,0.02118
1771.74802,0.02119
1769.68785,0.02088
1767.62768,0.02068
1765.56750,0.02073
1763.50733,0.02082
1761.44716,0.02078
1759.38699,0.02075
1757.32682,0.02087
1755.26664,0.02102
1753.20647,0.02112
1751.14630,0.02128
1749.08613,0.02152
1747.02596,0.02156
1744.96578,0.02144
1742.90561,0.02149
1740.84544,0.02168
1738.78527,0.02174
1736.72509,0.02177
1734.66492,0.02178
1732.60475,0.02162
1730.54458,0.02145
1728.48441,0.02130
1726.42423,0.02118
1724.36406,0.02106
1722.30389,0.02108
1720.24372,0.02138
1718.18355,0.02155
1716.12337,0.02108
1714.06320,0.02057
1712.00303,0.02038
1709.94286,0.02048
1707.88268,0.02075
1705.82251,0.02095
1703.76234,0.02101
1701.70217,0.02112
1699.64200,0.02127
1697.58182,0.02138
1695.52165,0.02152
1693.46148,0.02174
1691.40131,0.02207
1689.34114,0.02260
1687.28096,0.02332
1685.22079,0.02405
1683.16062,0.02438
1681.10045,0.02449
1679.04028,0.02482
1676.98010,0.02546
1674.91993,0.02626
1672.85976,0.02701
1670.79959,0.02760
1668.73941,0.02785
1666.67924,0.02794
1664.61907,0.02827
1662.55890,0.02862
1660.49873,0.02867
1658.43855,0.02873
1656.37838,0.02912
1654.31821,0.02950
1652.25804,0.02932
1650.19787,0.02928
1648.13769,0.02945
1646.07752,0.02922
1644.01735,0.02873
1641.95718,0.02858
1639.89701,0.02883
1637.83683,0.02910
1635.77666,0.02886
1633.71649,0.02830
1631.65632,0.02804
1629.59614,0.02803
1627.53597,0.02800
1625.47580,0.02789
1623.41563,0.02770
1621.35546,0.02752
1619.29528,0.02761
1617.23511,0.02776
1615.17494,0.02750
1613.11477,0.02714
1611.05460,0.02696
1608.99442,0.02683
1606.93425,0.02672
1604.87408,0.02669
1602.81391,0.02660
1600.75373,0.02637
1598.69356,0.02615
1596.63339,0.02598
1594.57322,0.02578
1592.51305,0.02551
1590.45287,0.02515
1588.39270,0.02484
1586.33253,0.02463
1584.27236,0.02443
1582.21219,0.02421
1580.15201,0.02416
1578.09184,0.02417
1576.03167,0.02372
1573.97150,0.02299
1571.91133,0.02276
1569.85115,0.02290
1567.79098,0.02281
1565.73081,0.02257
1563.67064,0.02253
1561.61046,0.02285
1559.55029,0.02292
1557.49012,0.02197
1555.42995,0.02121
1553.36978,0.02096
1551.30960,0.02089
1549.24943,0.02082
1547.18926,0.02079
1545.12909,0.02093
1543.06892,0.02130
1541.00874,0.02156
1538.94857,0.02098
1536.88840,0.02022
1534.82823,0.01989
1532.76805,0.01981
1530.70788,0.01978
1528.64771,0.01982
1526.58754,0.01967
1524.52737,0.01935
1522.46719,0.01909
1520.40702,0.01877
1518.34685,0.01848
1516.28668,0.01820
1514.22651,0.01784
1512.16633,0.01771
1510.10616,0.01802
1508.04599,0.01835
1505.98582,0.01804
1503.92565,0.01754
1501.86547,0.01738
1499.80530,0.01755
1497.74513,0.01770
1495.68496,0.01770
1493.62478,0.01781
1491.56461,0.01803
1489.50444,0.01798
1487.44427,0.01768
1485.38410,0.01751
1483.32392,0.01751
1481.26375,0.01756
1479.20358,0.01775
1477.14341,0.01810
1475.08324,0.01843
1473.02306,0.01850
1470.96289,0.01832
1468.90272,0.01824
1466.84255,0.01846
1464.78238,0.01872
1462.72220,0.01881
1460.66203,0.01902
1458.60186,0.01924
1456.54169,0.01897
1454.48151,0.01869
1452.42134,0.01878
1450.36117,0.01914
1448.30100,0.01954
1446.24083,0.01976
1444.18065,0.01986
1442.12048,0.01998
1440.06031,0.02015
1438.00014,0.02028
1435.93997,0.02024
1433.87979,0.02023
1431.81962,0.02046
1429.75945,0.02082
1427.69928,0.02114
1425.63910,0.02145
1423.57893,0.02177
1421.51876,0.02206
1419.45859,0.02226
1417.39842,0.02239
1415.33824,0.02264
1413.27807,0.02303
1411.21790,0.02339
1409.15773,0.02367
1407.09756,0.02392
1405.03738,0.02413
1402.97721,0.02428
1400.91704,0.02440
1398.85687,0.02435
1396.79670,0.02423
1394.73652,0.02422
1392.67635,0.02423
1390.61618,0.02424
1388.55601,0.02432
1386.49583,0.02441
1384.43566,0.02447
1382.37549,0.02450
1380.31532,0.02456
1378.25515,0.02471
1376.19497,0.02491
1374.13480,0.02497
1372.07463,0.02494
1370.01446,0.02503
1367.95429,0.02521
1365.89411,0.02533
1363.83394,0.02525
1361.77377,0.02504
1359.71360,0.02502
1357.65343,0.02512
1355.59325,0.02511
1353.53308,0.02493
1351.47291,0.02464
1349.41274,0.02427
1347.35256,0.02381
1345.29239,0.02335
1343.23222,0.02295
1341.17205,0.02252
1339.11188,0.02196
1337.05170,0.02151
1334.99153,0.02131
1332.93136,0.02116
1330.87119,0.02092
1328.81102,0.02065
1326.75084,0.02042
1324.69067,0.02017
1322.63050,0.01993
1320.57033,0.01970
1318.51015,0.01942
1316.44998,0.01918
1314.38981,0.01899
1312.32964,0.01881
1310.26947,0.01871
1308.20929,0.01864
1306.14912,0.01846
1304.08895,0.01826
1302.02878,0.01814
1299.96861,0.01807
1297.90843,0.01804
1295.84826,0.01806
1293.78809,0.01802
1291.72792,0.01781
1289.66775,0.01754
1287.60757,0.01739
1285.54740,0.01734
1283.48723,0.01730
1281.42706,0.01723
1279.36688,0.01715
1277.30671,0.01706
1275.24654,0.01700
1273.18637,0.01698
1271.12620,0.01696
1269.06602,0.01692
1267.00585,0.01685
1264.94568,0.01678
1262.88551,0.01678
1260.82534,0.01685
1258.76516,0.01696
1256.70499,0.01703
1254.64482,0.01695
1252.58465,0.01684
1250.52447,0.01682
1248.46430,0.01679
1246.40413,0.01667
1244.34396,0.01652
1242.28379,0.01641
1240.22361,0.01632
1238.16344,0.01630
1236.10327,0.01629
1234.04310,0.01618
1231.98293,0.01601
1229.92275,0.01579
1227.86258,0.01554
1225.80241,0.01544
1223.74224,0.01551
1221.68207,0.01555
1219.62189,0.01548
1217.56172,0.01536
1215.50155,0.01531
1213.44138,0.01528
1211.38120,0.01521
1209.32103,0.01519
1207.26086,0.01533
1205.20069,0.01562
1203.14052,0.01604
1201.08034,0.01663
1199.02017,0.01737
1196.96000,0.01827
1194.89983,0.01923
1192.83966,0.02028
1190.77948,0.02143
1188.71931,0.02270
1186.65914,0.02418
1184.59897,0.02591
1182.53880,0.02769
1180.47862,0.02945
1178.41845,0.03130
1176.35828,0.03294
1174.29811,0.03428
1172.23793,0.03563
1170.17776,0.03702
1168.11759,0.03827
1166.05742,0.03934
1163.99725,0.04035
1161.93707,0.04125
1159.87690,0.04205
1157.81673,0.04282
1155.75656,0.04344
1153.69639,0.04393
1151.63621,0.04446
1149.57604,0.04497
1147.51587,0.04520
1145.45570,0.04504
1143.39552,0.04469
1141.33535,0.04430
1139.27518,0.04378
1137.21501,0.04316
1135.15484,0.04249
1133.09466,0.04183
1131.03449,0.04121
1128.97432,0.04070
1126.91415,0.04034
1124.85398,0.04020
1122.79380,0.04038
1120.73363,0.04078
1118.67346,0.04117
1116.61329,0.04153
1114.55312,0.04208
1112.49294,0.04286
1110.43277,0.04373
1108.37260,0.04466
1106.31243,0.04578
1104.25225,0.04699
1102.19208,0.04811
1100.13191,0.04920
1098.07174,0.05035
1096.01157,0.05144
1093.95139,0.05247
1091.89122,0.05354
1089.83105,0.05466
1087.77088,0.05589
1085.71071,0.05709
1083.65053,0.05817
1081.59036,0.05920
1079.53019,0.06025
1077.47002,0.06130
1075.40985,0.06221
1073.34967,0.06290
1071.28950,0.06336
1069.22933,0.06352
1067.16916,0.06334
1065.10898,0.06286
1063.04881,0.06230
1060.98864,0.06180
1058.92847,0.06121
1056.86830,0.06042
1054.80812,0.05944
1052.74795,0.05821
1050.68778,0.05691
1048.62761,0.05571
1046.56744,0.05448
1044.50726,0.05318
1042.44709,0.05179
1040.38692,0.05026
1038.32675,0.04867
1036.26657,0.04705
1034.20640,0.04542
1032.14623,0.04388
1030.08606,0.04248
1028.02589,0.04110
1025.96571,0.03975
1023.90554,0.03856
1021.84537,0.03759
1019.78520,0.03670
1017.72503,0.03580
1015.66485,0.03504
1013.60468,0.03450
1011.54451,0.03399
1009.48434,0.03364
1007.42417,0.03364
1005.36399,0.03382
1003.30382,0.03409
1001.24365,0.03453
999.18348,0.03509
997.12330,0.03563
995.06313,0.03607
993.00296,0.03635
990.94279,0.03653
988.88262,0.03672
986.82244,0.03699
984.76227,0.03731
982.70210,0.03755
980.64193,0.03772
978.58176,0.03778
976.52158,0.03769
974.46141,0.03763
972.40124,0.03770
970.34107,0.03769
968.28089,0.03751
966.22072,0.03741
964.16055,0.03749
962.10038,0.03763
960.04021,0.03773
957.98003,0.03792
955.91986,0.03826
953.85969,0.03853
951.79952,0.03873
949.73935,0.03894
947.67917,0.03913
945.61900,0.03928
943.55883,0.03929
941.49866,0.03895
939.43849,0.03822
937.37831,0.03741
935.31814,0.03661
933.25797,0.03568
931.19780,0.03472
929.13762,0.03373
927.07745,0.03265
925.01728,0.03167
922.95711,0.03083
920.89694,0.02988
918.83676,0.02870
916.77659,0.02752
914.71642,0.02646
912.65625,0.02557
910.59608,0.02485
908.53590,0.02394
906.47573,0.02290
904.41556,0.02217
902.35539,0.02175
900.29522,0.02136
898.23504,0.02098
896.17487,0.02080
894.11470,0.02083
892.05453,0.02108
889.99435,0.02138
887.93418,0.02173
885.87401,0.02246
883.81384,0.02349
881.75367,0.02444
879.69349,0.02540
877.63332,0.02667
875.57315,0.02827
873.51298,0.03017
871.45281,0.03230
869.39263,0.03433
867.33246,0.03632
865.27229,0.03845
863.21212,0.04036
861.15194,0.04176
859.09177,0.04277
857.03160,0.04337
854.97143,0.04343
852.91126,0.04310
850.85108,0.04248
848.79091,0.04149
846.73074,0.04026
844.67057,0.03892
842.61040,0.03740
840.55022,0.03583
838.49005,0.03446
836.42988,0.03328
834.36971,0.03221
832.30954,0.03118
830.24936,0.03023
828.18919,0.02938
826.12902,0.02861
824.06885,0.02790
822.00867,0.02717
819.94850,0.02644
817.88833,0.02570
815.82816,0.02493
813.76799,0.02409
811.70781,0.02307
809.64764,0.02210
807.58747,0.02168
805.52730,0.02165
803.46713,0.02151
801.40695,0.02108
799.34678,0.02046
797.28661,0.01975
795.22644,0.01900
793.16627,0.01843
791.10609,0.01816
789.04592,0.01788
786.98575,0.01757
784.92558,0.01734
782.86540,0.01725
780.80523,0.01719
778.74506,0.01703
776.68489,0.01662
774.62472,0.01600
772.56454,0.01556
770.50437,0.01549
768.44420,0.01526
766.38403,0.01469
764.32386,0.01432
762.26368,0.01435
760.20351,0.01427
758.14334,0.01404
756.08317,0.01382
754.02299,0.01345
751.96282,0.01312
749.90265,0.01299
747.84248,0.01279
745.78231,0.01252
743.72213,0.01234
741.66196,0.01190
739.60179,0.01101
737.54162,0.01054
735.48145,0.01094
733.42127,0.01140
731.36110,0.01130
729.30093,0.01079
727.24076,0.01034
725.18059,0.01007
723.12041,0.00975
721.06024,0.00951
719.00007,0.00983
716.93990,0.01027
714.87972,0.01034
712.81955,0.01001
710.75938,0.00945
708.69921,0.00895
706.63904,0.00893
704.57886,0.00947
702.51869,0.00985
700.45852,0.00959
698.39835,0.00914
696.33818,0.00875
694.27800,0.00826
692.21783,0.00791
690.15766,0.00790
688.09749,0.00811
686.03731,0.00841
683.97714,0.00867
681.91697,0.00861
679.85680,0.00825
677.79663,0.00771
675.73645,0.00734
673.67628,0.00762
671.61611,0.00827
669.55594,0.00719
667.49577,0.00524
665.43559,0.00753
663.37542,0.00698
661.31525,0.00595
659.25508,0.00568
657.19491,0.00562
655.13473,0.00528
653.07456,0.00495
651.01439,0.00470
648.95422,0.00427
646.89404,0.00375
644.83387,0.00332
642.77370,0.00342
640.71353,0.00407
638.65336,0.00477
636.59318,0.00486
634.53301,0.00413
632.47284,0.00346
630.41267,0.00343
628.35250,0.00364
626.29232,0.00375
624.23215,0.00366
622.17198,0.00336
620.11181,0.00286
618.05164,0.00217
615.99146,0.00204
613.93129,0.00214
611.87112,0.00167
609.81095,0.00119
607.75077,0.00068
605.69060,0.00000
603.63043,-0.00027
601.57026,0.00027
599.51009,0.00000
