3996.73391,0.00000
3994.67373,0.00016
3992.61356,0.00046
3990.55339,0.00064
3988.49322,0.00055
3986.43305,0.00042
3984.37287,0.00055
3982.31270,0.00087
3980.25253,0.00103
3978.19236,0.00094
3976.13219,0.00081
3974.07201,0.00079
3972.01184,0.00079
3969.95167,0.00057
3967.89150,0.00024
3965.83133,0.00025
3963.77115,0.00069
3961.71098,0.00104
3959.65081,0.00099
3957.59064,0.00078
3955.53046,0.00058
3953.47029,0.00051
3951.41012,0.00082
3949.34995,0.00134
3947.28978,0.00150
3945.22960,0.00134
3943.16943,0.00140
3941.10926,0.00142
3939.04909,0.00104
3936.98892,0.00071
3934.92874,0.00090
3932.86857,0.00144
3930.80840,0.00168
3928.74823,0.00145
3926.68805,0.00125
3924.62788,0.00121
3922.56771,0.00106
3920.50754,0.00088
3918.44737,0.00093
3916.38719,0.00098
3914.32702,0.00086
3912.26685,0.00069
3910.20668,0.00056
3908.14651,0.00057
3906.08633,0.00094
3904.02616,0.00170
3901.96599,0.00232
3899.90582,0.00243
3897.84565,0.00223
3895.78547,0.00188
3893.72530,0.00157
3891.66513,0.00144
3889.60496,0.00125
3887.54478,0.00107
3885.48461,0.00126
3883.42444,0.00159
3881.36427,0.00181
3879.30410,0.00184
3877.24392,0.00141
3875.18375,0.00098
3873.12358,0.00102
3871.06341,0.00143
3869.00324,0.00202
3866.94306,0.00231
3864.88289,0.00220
3862.82272,0.00192
3860.76255,0.00155
3858.70237,0.00133
3856.64220,0.00156
3854.58203,0.00233
3852.52186,0.00288
3850.46169,0.00234
3848.40151,0.00151
3846.34134,0.00099
3844.28117,0.00076
3842.22100,0.00086
3840.16083,0.00130
3838.10065,0.00200
3836.04048,0.00233
3833.98031,0.00200
3831.92014,0.00160
3829.85997,0.00130
3827.79979,0.00098
3825.73962,0.00074
3823.67945,0.00068
3821.61928,0.00105
3819.55910,0.00167
3817.49893,0.00197
3815.43876,0.00213
3813.37859,0.00184
3811.31842,0.00109
3809.25824,0.00055
3807.19807,0.00056
3805.13790,0.00054
3803.07773,0.00018
3801.01756,0.00018
3798.95738,0.00057
3796.89721,0.00089
3794.83704,0.00099
3792.77687,0.00082
3790.71670,0.00064
3788.65652,0.00059
3786.59635,0.00056
3784.53618,0.00058
3782.47601,0.00062
3780.41583,0.00064
3778.35566,0.00065
3776.29549,0.00057
3774.23532,0.00042
3772.17515,0.00038
3770.11497,0.00056
3768.05480,0.00079
3765.99463,0.00086
3763.93446,0.00080
3761.87429,0.00073
3759.81411,0.00103
3757.75394,0.00162
3755.69377,0.00178
3753.63360,0.00173
3751.57342,0.00239
3749.51325,0.00332
3747.45308,0.00334
3745.39291,0.00333
3743.33274,0.00353
3741.27256,0.00285
3739.21239,0.00199
3737.15222,0.00236
3735.09205,0.00365
3733.03188,0.00391
3730.97170,0.00317
3728.91153,0.00275
3726.85136,0.00296
3724.79119,0.00340
3722.73102,0.00355
3720.67084,0.00318
3718.61067,0.00258
3716.55050,0.00211
3714.49033,0.00168
3712.43015,0.00145
3710.36998,0.00177
3708.30981,0.00213
3706.24964,0.00193
3704.18947,0.00142
3702.12929,0.00119
3700.06912,0.00147
3698.00895,0.00181
3695.94878,0.00171
3693.88861,0.00119
3691.82843,0.00090
3689.76826,0.00155
3687.70809,0.00237
3685.64792,0.00221
3683.58775,0.00163
3681.52757,0.00127
3679.46740,0.00106
3677.40723,0.00122
3675.34706,0.00218
3673.28688,0.00290
3671.22671,0.00265
3669.16654,0.00229
3667.10637,0.00217
3665.04620,0.00210
3662.98602,0.00202
3660.92585,0.00192
3658.86568,0.00187
3656.80551,0.00190
3654.74534,0.00179
3652.68516,0.00154
3650.62499,0.00201
3648.56482,0.00337
3646.50465,0.00395
3644.44447,0.00367
3642.38430,0.00347
3640.32413,0.00351
3638.26396,0.00353
3636.20379,0.00345
3634.14361,0.00325
3632.08344,0.00307
3630.02327,0.00348
3627.96310,0.00448
3625.90293,0.00493
3623.84275,0.00487
3621.78258,0.00504
3619.72241,0.00554
3617.66224,0.00586
3615.60207,0.00573
3613.54189,0.00561
3611.48172,0.00562
3609.42155,0.00553
3607.36138,0.00543
3605.30120,0.00523
3603.24103,0.00502
3601.18086,0.00531
3599.12069,0.00597
3597.06052,0.00638
3595.00034,0.00647
3592.94017,0.00647
3590.88000,0.00638
3588.81983,0.00648
3586.75966,0.00702
3584.69948,0.00736
3582.63931,0.00720
3580.57914,0.00675
3578.51897,0.00638
3576.45879,0.00644
3574.39862,0.00679
3572.33845,0.00701
3570.27828,0.00709
3568.21811,0.00745
3566.15793,0.00809
3564.09776,0.00834
3562.03759,0.00823
3559.97742,0.00821
3557.91725,0.00836
3555.85707,0.00868
3553.79690,0.00912
3551.73673,0.00932
3549.67656,0.00920
3547.61639,0.00931
3545.55621,0.00966
3543.49604,0.00960
3541.43587,0.00928
3539.37570,0.00937
3537.31552,0.00985
3535.25535,0.01015
3533.19518,0.00999
3531.13501,0.00983
3529.07484,0.01020
3527.01466,0.01094
3524.95449,0.01124
3522.89432,0.01089
3520.83415,0.01063
3518.77398,0.01071
3516.71380,0.01074
3514.65363,0.01060
3512.59346,0.01055
3510.53329,0.01068
3508.47312,0.01091
3506.41294,0.01114
3504.35277,0.01146
3502.29260,0.01183
3500.23243,0.01196
3498.17225,0.01196
3496.11208,0.01200
3494.05191,0.01204
3491.99174,0.01221
3489.93157,0.01257
3487.87139,0.01288
3485.81122,0.01287
3483.75105,0.01273
3481.69088,0.01284
3479.63071,0.01292
3477.57053,0.01275
3475.51036,0.01269
3473.45019,0.01277
3471.39002,0.01290
3469.32984,0.01308
3467.26967,0.01328
3465.20950,0.01354
3463.14933,0.01377
3461.08916,0.01383
3459.02898,0.01382
3456.96881,0.01392
3454.90864,0.01409
3452.84847,0.01422
3450.78830,0.01430
3448.72812,0.01441
3446.66795,0.01468
3444.60778,0.01485
3442.54761,0.01473
3440.48744,0.01465
3438.42726,0.01467
3436.36709,0.01460
3434.30692,0.01462
3432.24675,0.01480
3430.18657,0.01499
3428.12640,0.01511
3426.06623,0.01502
3424.00606,0.01486
3421.94589,0.01494
3419.88571,0.01519
3417.82554,0.01542
3415.76537,0.01551
3413.70520,0.01542
3411.64503,0.01540
3409.58485,0.01555
3407.52468,0.01562
3405.46451,0.01571
3403.40434,0.01599
3401.34416,0.01613
3399.28399,0.01626
3397.22382,0.01641
3395.16365,0.01667
3393.10348,0.01689
3391.04330,0.01704
3388.98313,0.01701
3386.92296,0.01685
3384.86279,0.01681
3382.80262,0.01679
3380.74244,0.01674
3378.68227,0.01675
3376.62210,0.01677
3374.56193,0.01679
3372.50176,0.01687
3370.44158,0.01695
3368.38141,0.01710
3366.32124,0.01725
3364.26107,0.01722
3362.20089,0.01706
3360.14072,0.01696
3358.08055,0.01707
3356.02038,0.01727
3353.96021,0.01725
3351.90003,0.01709
3349.83986,0.01702
3347.77969,0.01709
3345.71952,0.01720
3343.65935,0.01730
3341.59917,0.01748
3339.53900,0.01764
3337.47883,0.01761
3335.41866,0.01743
3333.35849,0.01723
3331.29831,0.01720
3329.23814,0.01734
3327.17797,0.01738
3325.11780,0.01720
3323.05762,0.01708
3320.99745,0.01725
3318.93728,0.01749
3316.87711,0.01762
3314.81694,0.01773
3312.75676,0.01796
3310.69659,0.01820
3308.63642,0.01807
3306.57625,0.01769
3304.51608,0.01758
3302.45590,0.01780
3300.39573,0.01806
3298.33556,0.01814
3296.27539,0.01800
3294.21521,0.01780
3292.15504,0.01773
3290.09487,0.01776
3288.03470,0.01769
3285.97453,0.01760
3283.91435,0.01772
3281.85418,0.01808
3279.79401,0.01849
3277.73384,0.01851
3275.67367,0.01809
3273.61349,0.01771
3271.55332,0.01758
3269.49315,0.01764
3267.43298,0.01781
3265.37281,0.01786
3263.31263,0.01781
3261.25246,0.01799
3259.19229,0.01819
3257.13212,0.01812
3255.07194,0.01801
3253.01177,0.01800
3250.95160,0.01792
3248.89143,0.01791
3246.83126,0.01808
3244.77108,0.01817
3242.71091,0.01814
3240.65074,0.01812
3238.59057,0.01807
3236.53040,0.01789
3234.47022,0.01776
3232.41005,0.01782
3230.34988,0.01787
3228.28971,0.01787
3226.22954,0.01787
3224.16936,0.01785
3222.10919,0.01789
3220.04902,0.01800
3217.98885,0.01808
3215.92867,0.01803
3213.86850,0.01794
3211.80833,0.01793
3209.74816,0.01787
3207.68799,0.01778
3205.62781,0.01771
3203.56764,0.01755
3201.50747,0.01744
3199.44730,0.01747
3197.38713,0.01743
3195.32695,0.01745
3193.26678,0.01749
3191.20661,0.01729
3189.14644,0.01711
3187.08626,0.01721
3185.02609,0.01741
3182.96592,0.01750
3180.90575,0.01750
3178.84558,0.01738
3176.78540,0.01718
3174.72523,0.01704
3172.66506,0.01697
3170.60489,0.01687
3168.54472,0.01671
3166.48454,0.01655
3164.42437,0.01651
3162.36420,0.01663
3160.30403,0.01681
3158.24386,0.01700
3156.18368,0.01716
3154.12351,0.01718
3152.06334,0.01697
3150.00317,0.01662
3147.94299,0.01639
3145.88282,0.01635
3143.82265,0.01640
3141.76248,0.01651
3139.70231,0.01654
3137.64213,0.01641
3135.58196,0.01621
3133.52179,0.01602
3131.46162,0.01597
3129.40145,0.01606
3127.34127,0.01616
3125.28110,0.01621
3123.22093,0.01617
3121.16076,0.01610
3119.10058,0.01610
3117.04041,0.01601
3114.98024,0.01595
3112.92007,0.01608
3110.85990,0.01615
3108.79972,0.01591
3106.73955,0.01556
3104.67938,0.01544
3102.61921,0.01548
3100.55904,0.01540
3098.49886,0.01537
3096.43869,0.01547
3094.37852,0.01554
3092.31835,0.01555
3090.25818,0.01534
3088.19800,0.01500
3086.13783,0.01491
3084.07766,0.01501
3082.01749,0.01509
3079.95731,0.01510
3077.89714,0.01504
3075.83697,0.01493
3073.77680,0.01483
3071.71663,0.01467
3069.65645,0.01440
3067.59628,0.01417
3065.53611,0.01413
3063.47594,0.01418
3061.41577,0.01413
3059.35559,0.01401
3057.29542,0.01397
3055.23525,0.01402
3053.17508,0.01407
3051.11491,0.01409
3049.05473,0.01399
3046.99456,0.01385
3044.93439,0.01381
3042.87422,0.01374
3040.81404,0.01352
3038.75387,0.01339
3036.69370,0.01342
3034.63353,0.01352
3032.57336,0.01367
3030.51318,0.01370
3028.45301,0.01358
3026.39284,0.01351
3024.33267,0.01339
3022.27250,0.01321
3020.21232,0.01317
3018.15215,0.01323
3016.09198,0.01317
3014.03181,0.01299
3011.97163,0.01294
3009.91146,0.01300
3007.85129,0.01295
3005.79112,0.01288
3003.73095,0.01284
3001.67077,0.01282
2999.61060,0.01289
2997.55043,0.01302
2995.49026,0.01299
2993.43009,0.01281
2991.36991,0.01264
2989.30974,0.01253
2987.24957,0.01243
2985.18940,0.01243
2983.12923,0.01256
2981.06905,0.01265
2979.00888,0.01257
2976.94871,0.01249
2974.88854,0.01252
2972.82836,0.01257
2970.76819,0.01251
2968.70802,0.01224
2966.64785,0.01189
2964.58768,0.01179
2962.52750,0.01196
2960.46733,0.01209
2958.40716,0.01197
2956.34699,0.01171
2954.28682,0.01157
2952.22664,0.01156
2950.16647,0.01151
2948.10630,0.01146
2946.04613,0.01152
2943.98596,0.01154
2941.92578,0.01145
2939.86561,0.01143
2937.80544,0.01144
2935.74527,0.01132
2933.68509,0.01111
2931.62492,0.01100
2929.56475,0.01093
2927.50458,0.01073
2925.44441,0.01054
2923.38423,0.01046
2921.32406,0.01018
2919.26389,0.00969
2917.20372,0.00942
2915.14355,0.00953
2913.08337,0.00988
2911.02320,0.01022
2908.96303,0.01047
2906.90286,0.01065
2904.84268,0.01065
2902.78251,0.01056
2900.72234,0.01060
2898.66217,0.01073
2896.60200,0.01090
2894.54182,0.01108
2892.48165,0.01110
2890.42148,0.01095
2888.36131,0.01079
2886.30114,0.01081
2884.24096,0.01098
2882.18079,0.01113
2880.12062,0.01114
2878.06045,0.01113
2876.00028,0.01114
2873.94010,0.01105
2871.87993,0.01086
2869.81976,0.01075
2867.75959,0.01069
2865.69941,0.01059
2863.63924,0.01048
2861.57907,0.01036
2859.51890,0.01021
2857.45873,0.01006
2855.39855,0.00981
2853.33838,0.00937
2851.27821,0.00895
2849.21804,0.00876
2847.15787,0.00884
2845.09769,0.00915
2843.03752,0.00950
2840.97735,0.00963
2838.91718,0.00959
2836.85700,0.00950
2834.79683,0.00944
2832.73666,0.00961
2830.67649,0.00978
2828.61632,0.00970
2826.55614,0.00961
2824.49597,0.00964
2822.43580,0.00966
2820.37563,0.00957
2818.31546,0.00945
2816.25528,0.00936
2814.19511,0.00918
2812.13494,0.00897
2810.07477,0.00887
2808.01460,0.00887
2805.95442,0.00888
2803.89425,0.00885
2801.83408,0.00876
2799.77391,0.00874
2797.71373,0.00880
2795.65356,0.00886
2793.59339,0.00885
2791.53322,0.00876
2789.47305,0.00863
2787.41287,0.00848
2785.35270,0.00834
2783.29253,0.00834
2781.23236,0.00841
2779.17219,0.00843
2777.11201,0.00842
2775.05184,0.00841
2772.99167,0.00835
2770.93150,0.00820
2768.87133,0.00812
2766.81115,0.00808
2764.75098,0.00799
2762.69081,0.00791
2760.63064,0.00774
2758.57046,0.00750
2756.51029,0.00754
2754.45012,0.00769
2752.38995,0.00763
2750.32978,0.00756
2748.26960,0.00758
2746.20943,0.00758
2744.14926,0.00746
2742.08909,0.00723
2740.02892,0.00712
2737.96874,0.00714
2735.90857,0.00706
2733.84840,0.00692
2731.78823,0.00692
2729.72805,0.00704
2727.66788,0.00718
2725.60771,0.00725
2723.54754,0.00717
2721.48737,0.00703
2719.42719,0.00691
2717.36702,0.00682
2715.30685,0.00681
2713.24668,0.00680
2711.18651,0.00674
2709.12633,0.00667
2707.06616,0.00664
2705.00599,0.00662
2702.94582,0.00658
2700.88565,0.00646
2698.82547,0.00644
2696.76530,0.00657
2694.70513,0.00657
2692.64496,0.00640
2690.58478,0.00622
2688.52461,0.00617
2686.46444,0.00623
2684.40427,0.00631
2682.34410,0.00638
2680.28392,0.00641
2678.22375,0.00633
2676.16358,0.00618
2674.10341,0.00603
2672.04324,0.00594
2669.98306,0.00591
2667.92289,0.00594
2665.86272,0.00599
2663.80255,0.00603
2661.74238,0.00602
2659.68220,0.00591
2657.62203,0.00581
2655.56186,0.00581
2653.50169,0.00585
2651.44151,0.00579
2649.38134,0.00562
2647.32117,0.00561
2645.26100,0.00579
2643.20083,0.00587
2641.14065,0.00587
2639.08048,0.00586
2637.02031,0.00574
2634.96014,0.00554
2632.89997,0.00539
2630.83979,0.00537
2628.77962,0.00543
2626.71945,0.00548
2624.65928,0.00550
2622.59910,0.00552
2620.53893,0.00547
2618.47876,0.00541
2616.41859,0.00551
2614.35842,0.00557
2612.29824,0.00544
2610.23807,0.00543
2608.17790,0.00557
2606.11773,0.00542
2604.05756,0.00504
2601.99738,0.00493
2599.93721,0.00515
2597.87704,0.00540
2595.81687,0.00550
2593.75670,0.00546
2591.69652,0.00547
2589.63635,0.00556
2587.57618,0.00561
2585.51601,0.00556
2583.45583,0.00552
2581.39566,0.00557
2579.33549,0.00564
2577.27532,0.00560
2575.21515,0.00538
2573.15497,0.00518
2571.09480,0.00521
2569.03463,0.00537
2566.97446,0.00549
2564.91429,0.00544
2562.85411,0.00530
2560.79394,0.00511
2558.73377,0.00503
2556.67360,0.00526
2554.61342,0.00558
2552.55325,0.00568
2550.49308,0.00565
2548.43291,0.00554
2546.37274,0.00543
2544.31256,0.00552
2542.25239,0.00569
2540.19222,0.00573
2538.13205,0.00583
2536.07188,0.00602
2534.01170,0.00598
2531.95153,0.00566
2529.89136,0.00534
2527.83119,0.00529
2525.77102,0.00543
2523.71084,0.00554
2521.65067,0.00567
2519.59050,0.00571
2517.53033,0.00555
2515.47015,0.00548
2513.40998,0.00552
2511.34981,0.00559
2509.28964,0.00563
2507.22947,0.00562
2505.16929,0.00589
2503.10912,0.00636
2501.04895,0.00650
2498.98878,0.00634
2496.92861,0.00628
2494.86843,0.00641
2492.80826,0.00633
2490.74809,0.00597
2488.68792,0.00589
2486.62775,0.00627
2484.56757,0.00666
2482.50740,0.00680
2480.44723,0.00655
2478.38706,0.00602
2476.32688,0.00582
2474.26671,0.00612
2472.20654,0.00647
2470.14637,0.00665
2468.08620,0.00680
2466.02602,0.00703
2463.96585,0.00704
2461.90568,0.00678
2459.84551,0.00672
2457.78534,0.00686
2455.72516,0.00683
2453.66499,0.00664
2451.60482,0.00648
2449.54465,0.00649
2447.48447,0.00664
2445.42430,0.00670
2443.36413,0.00655
2441.30396,0.00629
2439.24379,0.00630
2437.18361,0.00668
2435.12344,0.00696
2433.06327,0.00687
2431.00310,0.00660
2428.94293,0.00642
2426.88275,0.00637
2424.82258,0.00641
2422.76241,0.00657
2420.70224,0.00681
2418.64207,0.00694
2416.58189,0.00686
2414.52172,0.00661
2412.46155,0.00643
2410.40138,0.00656
2408.34120,0.00675
2406.28103,0.00680
2404.22086,0.00676
2402.16069,0.00666
2400.10052,0.00654
2398.04034,0.00546
2395.98017,0.00555
2393.92000,0.00626
2391.85983,0.00686
2389.79966,0.00737
2387.73948,0.00794
2385.67931,0.00844
2383.61914,0.00871
2381.55897,0.00878
2379.49880,0.00870
2377.43862,0.00849
2375.37845,0.00842
2373.31828,0.00828
2371.25811,0.00832
2369.19793,0.00861
2367.13776,0.00897
2365.07759,0.00950
2363.01742,0.01031
2360.95725,0.00985
2358.89707,0.00987
2356.83690,0.01036
2354.77673,0.01173
2352.71656,0.01280
2350.65639,0.01240
2348.59621,0.01131
2346.53604,0.01161
2344.47587,0.00997
2342.41570,0.00866
2340.35552,0.00847
2338.29535,0.00899
2336.23518,0.00942
2334.17501,0.00948
2332.11484,0.00970
2330.05466,0.01052
2327.99449,0.01180
2325.93432,0.01165
2323.87415,0.01129
2321.81398,0.01051
2319.75380,0.01031
2317.69363,0.00984
2315.63346,0.00947
2313.57329,0.00907
2311.51312,0.00873
2309.45294,0.00880
2307.39277,0.00903
2305.33260,0.00921
2303.27243,0.00919
2301.21225,0.00904
2299.15208,0.00859
2297.09191,0.00809
2295.03174,0.00803
2292.97157,0.00825
2290.91139,0.00828
2288.85122,0.00794
2286.79105,0.00740
2284.73088,0.00678
2282.67071,0.00604
2280.61053,0.00524
2278.55036,0.00463
2276.49019,0.00448
2274.43002,0.00476
2272.36984,0.00507
2270.30967,0.00527
2268.24950,0.00555
2266.18933,0.00572
2264.12916,0.00564
2262.06898,0.00574
2260.00881,0.00596
2257.94864,0.00554
2255.88847,0.00499
2253.82830,0.00532
2251.76812,0.00585
2249.70795,0.00552
2247.64778,0.00565
2245.58761,0.00576
2243.52744,0.00531
2241.46726,0.00478
2239.40709,0.00470
2237.34692,0.00520
2235.28675,0.00578
2233.22657,0.00567
2231.16640,0.00496
2229.10623,0.00455
2227.04606,0.00461
2224.98589,0.00427
2222.92571,0.00364
2220.86554,0.00356
2218.80537,0.00403
2216.74520,0.00431
2214.68503,0.00402
2212.62485,0.00367
2210.56468,0.00365
2208.50451,0.00366
2206.44434,0.00351
2204.38417,0.00373
2202.32399,0.00451
2200.26382,0.00499
2198.20365,0.00455
2196.14348,0.00380
2194.08330,0.00359
2192.02313,0.00376
2189.96296,0.00404
2187.90279,0.00451
2185.84262,0.00483
2183.78244,0.00453
2181.72227,0.00345
2179.66210,0.00210
2177.60193,0.00179
2175.54176,0.00261
2173.48158,0.00346
2171.42141,0.00403
2169.36124,0.00408
2167.30107,0.00381
2165.24089,0.00384
2163.18072,0.00406
2161.12055,0.00373
2159.06038,0.00250
2157.00021,0.00161
2154.94003,0.00149
2152.87986,0.00110
2150.81969,0.00107
2148.75952,0.00183
2146.69935,0.00235
2144.63917,0.00242
2142.57900,0.00215
2140.51883,0.00188
2138.45866,0.00195
2136.39849,0.00203
2134.33831,0.00220
2132.27814,0.00255
2130.21797,0.00315
2128.15780,0.00399
2126.09762,0.00431
2124.03745,0.00375
2121.97728,0.00304
2119.91711,0.00280
2117.85694,0.00273
2115.79676,0.00277
2113.73659,0.00343
2111.67642,0.00405
2109.61625,0.00379
2107.55608,0.00329
2105.49590,0.00300
2103.43573,0.00293
2101.37556,0.00299
2099.31539,0.00280
2097.25521,0.00281
2095.19504,0.00306
2093.13487,0.00328
2091.07470,0.00322
2089.01453,0.00301
2086.95435,0.00315
2084.89418,0.00359
2082.83401,0.00381
2080.77384,0.00358
2078.71367,0.00323
2076.65349,0.00312
2074.59332,0.00324
2072.53315,0.00337
2070.47298,0.00321
2068.41281,0.00281
2066.35263,0.00281
2064.29246,0.00301
2062.23229,0.00266
2060.17212,0.00228
2058.11194,0.00272
2056.05177,0.00344
2053.99160,0.00372
2051.93143,0.00345
2049.87126,0.00291
2047.81108,0.00251
2045.75091,0.00245
2043.69074,0.00300
2041.63057,0.00368
2039.57040,0.00343
2037.51022,0.00239
2035.45005,0.00173
2033.38988,0.00123
2031.32971,0.00024
2029.26954,0.00000
2027.20936,0.00084
2025.14919,0.00164
2023.08902,0.00188
2021.02885,0.00156
2018.96867,0.00139
2016.90850,0.00199
2014.84833,0.00241
2012.78816,0.00186
2010.72799,0.00135
2008.66781,0.00183
2006.60764,0.00273
2004.54747,0.00322
2002.48730,0.00307
2000.42713,0.00241
1998.36695,0.00194
1996.30678,0.00217
1994.24661,0.00275
1992.18644,0.00324
1990.12626,0.00338
1988.06609,0.00340
1986.00592,0.00345
1983.94575,0.00280
1981.88558,0.00157
1979.82540,0.00113
1977.76523,0.00171
1975.70506,0.00225
1973.64489,0.00265
1971.58472,0.00300
1969.52454,0.00306
1967.46437,0.00297
1965.40420,0.00267
1963.34403,0.00207
1961.28386,0.00144
1959.22368,0.00127
1957.16351,0.00194
1955.10334,0.00280
1953.04317,0.00287
1950.98299,0.00235
1948.92282,0.00193
1946.86265,0.00213
1944.80248,0.00300
1942.74231,0.00360
1940.68213,0.00339
1938.62196,0.00312
1936.56179,0.00314
1934.50162,0.00302
1932.44145,0.00258
1930.38127,0.00232
1928.32110,0.00241
1926.26093,0.00255
1924.20076,0.00267
1922.14059,0.00296
1920.08041,0.00330
1918.02024,0.00339
1915.96007,0.00332
1913.89990,0.00350
1911.83972,0.00377
1909.77955,0.00371
1907.71938,0.00339
1905.65921,0.00302
1903.59904,0.00270
1901.53886,0.00252
1899.47869,0.00265
1897.41852,0.00314
1895.35835,0.00369
1893.29818,0.00383
1891.23800,0.00360
1889.17783,0.00357
1887.11766,0.00391
1885.05749,0.00417
1882.99731,0.00412
1880.93714,0.00407
1878.87697,0.00419
1876.81680,0.00425
1874.75663,0.00412
1872.69645,0.00401
1870.63628,0.00402
1868.57611,0.00400
1866.51594,0.00382
1864.45577,0.00370
1862.39559,0.00390
1860.33542,0.00434
1858.27525,0.00466
1856.21508,0.00463
1854.15491,0.00436
1852.09473,0.00421
1850.03456,0.00440
1847.97439,0.00472
1845.91422,0.00495
1843.85404,0.00506
1841.79387,0.00505
1839.73370,0.00496
1837.67353,0.00485
1835.61336,0.00477
1833.55318,0.00468
1831.49301,0.00453
1829.43284,0.00456
1827.37267,0.00485
1825.31250,0.00506
1823.25232,0.00499
1821.19215,0.00481
1819.13198,0.00480
1817.07181,0.00501
1815.01163,0.00520
1812.95146,0.00529
1810.89129,0.00547
1808.83112,0.00565
1806.77095,0.00558
1804.71077,0.00544
1802.65060,0.00560
1800.59043,0.00587
1798.53026,0.00591
1796.47009,0.00580
1794.40991,0.00582
1792.34974,0.00601
1790.28957,0.00616
1788.22940,0.00613
1786.16923,0.00597
1784.10905,0.00575
1782.04888,0.00561
1779.98871,0.00560
1777.92854,0.00563
1775.86836,0.00564
1773.80819,0.00574
1771.74802,0.00606
1769.68785,0.00643
1767.62768,0.00655
1765.56750,0.00643
1763.50733,0.00639
1761.44716,0.00661
1759.38699,0.00681
1757.32682,0.00680
1755.26664,0.00668
1753.20647,0.00667
1751.14630,0.00698
1749.08613,0.00742
1747.02596,0.00755
1744.96578,0.00737
1742.90561,0.00707
1740.84544,0.00681
1738.78527,0.00668
1736.72509,0.00677
1734.66492,0.00723
1732.60475,0.00768
1730.54458,0.00750
1728.48441,0.00708
1726.42423,0.00676
1724.36406,0.00666
1722.30389,0.00668
1720.24372,0.00668
1718.18355,0.00698
1716.12337,0.00764
1714.06320,0.00782
1712.00303,0.00753
1709.94286,0.00719
1707.88268,0.00702
1705.82251,0.00712
1703.76234,0.00733
1701.70217,0.00753
1699.64200,0.00795
1697.58182,0.00842
1695.52165,0.00874
1693.46148,0.00887
1691.40131,0.00895
1689.34114,0.00905
1687.28096,0.00898
1685.22079,0.00900
1683.16062,0.00972
1681.10045,0.01040
1679.04028,0.01041
1676.98010,0.01025
1674.91993,0.01041
1672.85976,0.01068
1670.79959,0.01087
1668.73941,0.01118
1666.67924,0.01139
1664.61907,0.01144
1662.55890,0.01161
1660.49873,0.01180
1658.43855,0.01180
1656.37838,0.01171
1654.31821,0.01193
1652.25804,0.01246
1650.19787,0.01245
1648.13769,0.01226
1646.07752,0.01230
1644.01735,0.01223
1641.95718,0.01186
1639.89701,0.01141
1637.83683,0.01114
1635.77666,0.01111
1633.71649,0.01104
1631.65632,0.01078
1629.59614,0.01052
1627.53597,0.01034
1625.47580,0.01024
1623.41563,0.01025
1621.35546,0.01020
1619.29528,0.00982
1617.23511,0.00944
1615.17494,0.00945
1613.11477,0.00954
1611.05460,0.00943
1608.99442,0.00918
1606.93425,0.00893
1604.87408,0.00879
1602.81391,0.00875
1600.75373,0.00869
1598.69356,0.00844
1596.63339,0.00809
1594.57322,0.00789
1592.51305,0.00787
1590.45287,0.00775
1588.39270,0.00740
1586.33253,0.00705
1584.27236,0.00684
1582.21219,0.00667
1580.15201,0.00640
1578.09184,0.00617
1576.03167,0.00622
1573.97150,0.00637
1571.91133,0.00632
1569.85115,0.00624
1567.79098,0.00634
1565.73081,0.00647
1563.67064,0.00642
1561.61046,0.00628
1559.55029,0.00674
1557.49012,0.00771
1555.42995,0.00773
1553.36978,0.00722
1551.30960,0.00685
1549.24943,0.00657
1547.18926,0.00623
1545.12909,0.00598
1543.06892,0.00589
1541.00874,0.00591
1538.94857,0.00604
1536.88840,0.00601
1534.82823,0.00588
1532.76805,0.00584
1530.70788,0.00582
1528.64771,0.00583
1526.58754,0.00604
1524.52737,0.00621
1522.46719,0.00614
1520.40702,0.00607
1518.34685,0.00609
1516.28668,0.00612
1514.22651,0.00607
1512.16633,0.00601
1510.10616,0.00604
1508.04599,0.00603
1505.98582,0.00562
1503.92565,0.00497
1501.86547,0.00453
1499.80530,0.00436
1497.74513,0.00429
1495.68496,0.00409
1493.62478,0.00375
1491.56461,0.00368
1489.50444,0.00390
1487.44427,0.00380
1485.38410,0.00333
1483.32392,0.00298
1481.26375,0.00292
1479.20358,0.00303
1477.14341,0.00318
1475.08324,0.00340
1473.02306,0.00361
1470.96289,0.00360
1468.90272,0.00339
1466.84255,0.00324
1464.78238,0.00331
1462.72220,0.00348
1460.66203,0.00365
1458.60186,0.00410
1456.54169,0.00465
1454.48151,0.00452
1452.42134,0.00410
1450.36117,0.00384
1448.30100,0.00372
1446.24083,0.00357
1444.18065,0.00337
1442.12048,0.00329
1440.06031,0.00336
1438.00014,0.00360
1435.93997,0.00397
1433.87979,0.00412
1431.81962,0.00403
1429.75945,0.00401
1427.69928,0.00409
1425.63910,0.00426
1423.57893,0.00448
1421.51876,0.00488
1419.45859,0.00562
1417.39842,0.00617
1415.33824,0.00597
1413.27807,0.00556
1411.21790,0.00548
1409.15773,0.00563
1407.09756,0.00583
1405.03738,0.00607
1402.97721,0.00624
1400.91704,0.00630
1398.85687,0.00641
1396.79670,0.00655
1394.73652,0.00652
1392.67635,0.00635
1390.61618,0.00623
1388.55601,0.00630
1386.49583,0.00641
1384.43566,0.00628
1382.37549,0.00607
1380.31532,0.00601
1378.25515,0.00604
1376.19497,0.00609
1374.13480,0.00625
1372.07463,0.00642
1370.01446,0.00644
1367.95429,0.00636
1365.89411,0.00634
1363.83394,0.00652
1361.77377,0.00666
1359.71360,0.00644
1357.65343,0.00608
1355.59325,0.00588
1353.53308,0.00576
1351.47291,0.00558
1349.41274,0.00528
1347.35256,0.00494
1345.29239,0.00474
1343.23222,0.00481
1341.17205,0.00509
1339.11188,0.00521
1337.05170,0.00478
1334.99153,0.00411
1332.93136,0.00361
1330.87119,0.00338
1328.81102,0.00328
1326.75084,0.00318
1324.69067,0.00305
1322.63050,0.00296
1320.57033,0.00299
1318.51015,0.00304
1316.44998,0.00301
1314.38981,0.00286
1312.32964,0.00263
1310.26947,0.00239
1308.20929,0.00216
1306.14912,0.00192
1304.08895,0.00179
1302.02878,0.00181
1299.96861,0.00187
1297.90843,0.00185
1295.84826,0.00176
1293.78809,0.00169
1291.72792,0.00168
1289.66775,0.00173
1287.60757,0.00178
1285.54740,0.00172
1283.48723,0.00157
1281.42706,0.00152
1279.36688,0.00154
1277.30671,0.00153
1275.24654,0.00152
1273.18637,0.00160
1271.12620,0.00168
1269.06602,0.00158
1267.00585,0.00141
1264.94568,0.00133
1262.88551,0.00133
1260.82534,0.00135
1258.76516,0.00144
1256.70499,0.00152
1254.64482,0.00157
1252.58465,0.00162
1250.52447,0.00167
1248.46430,0.00162
1246.40413,0.00148
1244.34396,0.00134
1242.28379,0.00123
1240.22361,0.00118
1238.16344,0.00114
1236.10327,0.00112
1234.04310,0.00113
1231.98293,0.00113
1229.92275,0.00107
1227.86258,0.00100
1225.80241,0.00092
1223.74224,0.00075
1221.68207,0.00053
1219.62189,0.00038
1217.56172,0.00036
1215.50155,0.00043
1213.44138,0.00044
1211.38120,0.00045
1209.32103,0.00048
1207.26086,0.00045
1205.20069,0.00039
1203.14052,0.00044
1201.08034,0.00064
1199.02017,0.00095
1196.96000,0.00131
1194.89983,0.00165
1192.83966,0.00205
1190.77948,0.00260
1188.71931,0.00329
1186.65914,0.00402
1184.59897,0.00481
1182.53880,0.00570
1180.47862,0.00656
1178.41845,0.00734
1176.35828,0.00820
1174.29811,0.00906
1172.23793,0.00984
1170.17776,0.01066
1168.11759,0.01153
1166.05742,0.01234
1163.99725,0.01304
1161.93707,0.01366
1159.87690,0.01437
1157.81673,0.01522
1155.75656,0.01600
1153.69639,0.01664
1151.63621,0.01727
1149.57604,0.01784
1147.51587,0.01830
1145.45570,0.01873
1143.39552,0.01913
1141.33535,0.01945
1139.27518,0.01969
1137.21501,0.01978
1135.15484,0.01965
1133.09466,0.01941
1131.03449,0.01929
1128.97432,0.01938
1126.91415,0.01955
1124.85398,0.01969
1122.79380,0.01997
1120.73363,0.02048
1118.67346,0.02103
1116.61329,0.02152
1114.55312,0.02195
1112.49294,0.02239
1110.43277,0.02309
1108.37260,0.02399
1106.31243,0.02487
1104.25225,0.02573
1102.19208,0.02680
1100.13191,0.02795
1098.07174,0.02881
1096.01157,0.02941
1093.95139,0.03012
1091.89122,0.03095
1089.83105,0.03162
1087.77088,0.03225
1085.71071,0.03309
1083.65053,0.03403
1081.59036,0.03482
1079.53019,0.03547
1077.47002,0.03621
1075.40985,0.03694
1073.34967,0.03742
1071.28950,0.03782
1069.22933,0.03812
1067.16916,0.03816
1065.10898,0.03805
1063.04881,0.03801
1060.98864,0.03794
1058.92847,0.03749
1056.86830,0.03666
1054.80812,0.03573
1052.74795,0.03485
1050.68778,0.03398
1048.62761,0.03307
1046.56744,0.03195
1044.50726,0.03066
1042.44709,0.02936
1040.38692,0.02806
1038.32675,0.02671
1036.26657,0.02551
1034.20640,0.02460
1032.14623,0.02351
1030.08606,0.02205
1028.02589,0.02066
1025.96571,0.01955
1023.90554,0.01855
1021.84537,0.01771
1019.78520,0.01708
1017.72503,0.01647
1015.66485,0.01590
1013.60468,0.01571
1011.54451,0.01588
1009.48434,0.01610
1007.42417,0.01626
1005.36399,0.01650
1003.30382,0.01694
1001.24365,0.01755
999.18348,0.01828
997.12330,0.01902
995.06313,0.01953
993.00296,0.01982
990.94279,0.02009
988.88262,0.02038
986.82244,0.02062
984.76227,0.02094
982.70210,0.02128
980.64193,0.02139
978.58176,0.02148
976.52158,0.02167
974.46141,0.02152
972.40124,0.02107
970.34107,0.02084
968.28089,0.02084
966.22072,0.02060
964.16055,0.02007
962.10038,0.01964
960.04021,0.01953
957.98003,0.01947
955.91986,0.01914
953.85969,0.01881
951.79952,0.01869
949.73935,0.01873
947.67917,0.01872
945.61900,0.01842
943.55883,0.01804
941.49866,0.01775
939.43849,0.01739
937.37831,0.01690
935.31814,0.01636
933.25797,0.01580
931.19780,0.01525
929.13762,0.01470
927.07745,0.01403
925.01728,0.01340
922.95711,0.01290
920.89694,0.01224
918.83676,0.01146
916.77659,0.01082
914.71642,0.01026
912.65625,0.00987
910.59608,0.00958
908.53590,0.00906
906.47573,0.00833
904.41556,0.00769
902.35539,0.00733
900.29522,0.00717
898.23504,0.00707
896.17487,0.00706
894.11470,0.00730
892.05453,0.00772
889.99435,0.00804
887.93418,0.00841
885.87401,0.00901
883.81384,0.00959
881.75367,0.01009
879.69349,0.01077
877.63332,0.01167
875.57315,0.01278
873.51298,0.01392
871.45281,0.01500
869.39263,0.01628
867.33246,0.01773
865.27229,0.01910
863.21212,0.02032
861.15194,0.02132
859.09177,0.02217
857.03160,0.02289
854.97143,0.02310
852.91126,0.02265
850.85108,0.02213
848.79091,0.02184
846.73074,0.02137
844.67057,0.02062
842.61040,0.01970
840.55022,0.01864
838.49005,0.01752
836.42988,0.01653
834.36971,0.01590
832.30954,0.01547
830.24936,0.01486
828.18919,0.01405
826.12902,0.01330
824.06885,0.01262
822.00867,0.01197
819.94850,0.01161
817.88833,0.01133
815.82816,0.01074
813.76799,0.01004
811.70781,0.00945
809.64764,0.00905
807.58747,0.00896
805.52730,0.00887
803.46713,0.00864
801.40695,0.00869
799.34678,0.00884
797.28661,0.00857
795.22644,0.00817
793.16627,0.00785
791.10609,0.00740
789.04592,0.00701
786.98575,0.00693
784.92558,0.00707
782.86540,0.00708
780.80523,0.00681
778.74506,0.00651
776.68489,0.00644
774.62472,0.00662
772.56454,0.00673
770.50437,0.00649
768.44420,0.00598
766.38403,0.00547
764.32386,0.00506
762.26368,0.00487
760.20351,0.00497
758.14334,0.00491
756.08317,0.00459
754.02299,0.00465
751.96282,0.00505
749.90265,0.00516
747.84248,0.00493
745.78231,0.00466
743.72213,0.00451
741.66196,0.00453
739.60179,0.00477
737.54162,0.00510
735.48145,0.00511
733.42127,0.00459
731.36110,0.00403
729.30093,0.00378
727.24076,0.00384
725.18059,0.00404
723.12041,0.00451
721.06024,0.00436
719.00007,0.00422
716.93990,0.00427
714.87972,0.00400
712.81955,0.00393
710.75938,0.00410
708.69921,0.00428
706.63904,0.00468
704.57886,0.00525
702.51869,0.00551
700.45852,0.00545
698.39835,0.00534
696.33818,0.00488
694.27800,0.00414
692.21783,0.00394
690.15766,0.00430
688.09749,0.00451
686.03731,0.00450
683.97714,0.00454
681.91697,0.00435
679.85680,0.00384
677.79663,0.00372
675.73645,0.00462
673.67628,0.00521
671.61611,0.00228
669.55594,0.00000
667.49577,0.00419
665.43559,0.00099
663.37542,0.00335
661.31525,0.00449
659.25508,0.00385
657.19491,0.00319
655.13473,0.00238
653.07456,0.00204
651.01439,0.00325
648.95422,0.00509
646.89404,0.00536
644.83387,0.00412
642.77370,0.00259
640.71353,0.00191
638.65336,0.00224
636.59318,0.00282
634.53301,0.00314
632.47284,0.00297
630.41267,0.00202
628.35250,0.00093
626.29232,0.00045
624.23215,0.00042
622.17198,0.00000
620.11181,-0.00025
618.05164,0.00105
615.99146,0.00244
613.93129,0.00284
611.87112,0.00266
609.81095,0.00152
607.75077,0.00070
605.69060,0.00102
603.63043,0.00068
601.57026,-0.00035
599.51009,0.00000
