3996.73391,0.00064
3994.67373,0.00044
3992.61356,0.00014
3990.55339,0.00005
3988.49322,0.00027
3986.43305,0.00048
3984.37287,0.00049
3982.31270,0.00040
3980.25253,0.00020
3978.19236,0.00000
3976.13219,0.00003
3974.07201,0.00035
3972.01184,0.00060
3969.95167,0.00065
3967.89150,0.00058
3965.83133,0.00045
3963.77115,0.00056
3961.71098,0.00099
3959.65081,0.00122
3957.59064,0.00119
3955.53046,0.00116
3953.47029,0.00104
3951.41012,0.00072
3949.34995,0.00048
3947.28978,0.00049
3945.22960,0.00067
3943.16943,0.00093
3941.10926,0.00101
3939.04909,0.00079
3936.98892,0.00059
3934.92874,0.00080
3932.86857,0.00115
3930.80840,0.00109
3928.74823,0.00078
3926.68805,0.00056
3924.62788,0.00052
3922.56771,0.00064
3920.50754,0.00076
3918.44737,0.00072
3916.38719,0.00058
3914.32702,0.00052
3912.26685,0.00053
3910.20668,0.00057
3908.14651,0.00084
3906.08633,0.00126
3904.02616,0.00139
3901.96599,0.00114
3899.90582,0.00100
3897.84565,0.00124
3895.78547,0.00170
3893.72530,0.00209
3891.66513,0.00205
3889.60496,0.00166
3887.54478,0.00132
3885.48461,0.00111
3883.42444,0.00096
3881.36427,0.00074
3879.30410,0.00047
3877.24392,0.00029
3875.18375,0.00014
3873.12358,0.00026
3871.06341,0.00086
3869.00324,0.00127
3866.94306,0.00121
3864.88289,0.00119
3862.82272,0.00135
3860.76255,0.00144
3858.70237,0.00142
3856.64220,0.00144
3854.58203,0.00139
3852.52186,0.00099
3850.46169,0.00054
3848.40151,0.00044
3846.34134,0.00057
3844.28117,0.00066
3842.22100,0.00062
3840.16083,0.00074
3838.10065,0.00117
3836.04048,0.00148
3833.98031,0.00140
3831.92014,0.00115
3829.85997,0.00101
3827.79979,0.00092
3825.73962,0.00086
3823.67945,0.00114
3821.61928,0.00165
3819.55910,0.00182
3817.49893,0.00151
3815.43876,0.00085
3813.37859,0.00033
3811.31842,0.00040
3809.25824,0.00079
3807.19807,0.00103
3805.13790,0.00100
3803.07773,0.00066
3801.01756,0.00017
3798.95738,0.00000
3796.89721,0.00013
3794.83704,0.00028
3792.77687,0.00039
3790.71670,0.00046
3788.65652,0.00043
3786.59635,0.00020
3784.53618,0.00000
3782.47601,0.00018
3780.41583,0.00049
3778.35566,0.00045
3776.29549,0.00035
3774.23532,0.00057
3772.17515,0.00088
3770.11497,0.00094
3768.05480,0.00087
3765.99463,0.00094
3763.93446,0.00111
3761.87429,0.00123
3759.81411,0.00117
3757.75394,0.00114
3755.69377,0.00148
3753.63360,0.00185
3751.57342,0.00193
3749.51325,0.00196
3747.45308,0.00184
3745.39291,0.00134
3743.33274,0.00074
3741.27256,0.00065
3739.21239,0.00117
3737.15222,0.00192
3735.09205,0.00224
3733.03188,0.00196
3730.97170,0.00163
3728.91153,0.00122
3726.85136,0.00078
3724.79119,0.00072
3722.73102,0.00095
3720.67084,0.00097
3718.61067,0.00078
3716.55050,0.00081
3714.49033,0.00107
3712.43015,0.00105
3710.36998,0.00084
3708.30981,0.00090
3706.24964,0.00103
3704.18947,0.00118
3702.12929,0.00153
3700.06912,0.00189
3698.00895,0.00204
3695.94878,0.00207
3693.88861,0.00190
3691.82843,0.00137
3689.76826,0.00075
3687.70809,0.00077
3685.64792,0.00147
3683.58775,0.00208
3681.52757,0.00226
3679.46740,0.00213
3677.40723,0.00188
3675.34706,0.00178
3673.28688,0.00208
3671.22671,0.00235
3669.16654,0.00226
3667.10637,0.00237
3665.04620,0.00288
3662.98602,0.00345
3660.92585,0.00383
3658.86568,0.00413
3656.80551,0.00446
3654.74534,0.00468
3652.68516,0.00457
3650.62499,0.00422
3648.56482,0.00424
3646.50465,0.00489
3644.44447,0.00540
3642.38430,0.00556
3640.32413,0.00577
3638.26396,0.00634
3636.20379,0.00718
3634.14361,0.00811
3632.08344,0.00888
3630.02327,0.00898
3627.96310,0.00850
3625.90293,0.00854
3623.84275,0.00904
3621.78258,0.00935
3619.72241,0.00956
3617.66224,0.00999
3615.60207,0.01048
3613.54189,0.01103
3611.48172,0.01188
3609.42155,0.01289
3607.36138,0.01353
3605.30120,0.01362
3603.24103,0.01355
3601.18086,0.01371
3599.12069,0.01415
3597.06052,0.01470
3595.00034,0.01503
3592.94017,0.01521
3590.88000,0.01565
3588.81983,0.01619
3586.75966,0.01638
3584.69948,0.01647
3582.63931,0.01688
3580.57914,0.01733
3578.51897,0.01763
3576.45879,0.01795
3574.39862,0.01828
3572.33845,0.01853
3570.27828,0.01910
3568.21811,0.02014
3566.15793,0.02090
3564.09776,0.02096
3562.03759,0.02106
3559.97742,0.02138
3557.91725,0.02173
3555.85707,0.02231
3553.79690,0.02290
3551.73673,0.02306
3549.67656,0.02324
3547.61639,0.02381
3545.55621,0.02431
3543.49604,0.02447
3541.43587,0.02471
3539.37570,0.02529
3537.31552,0.02589
3535.25535,0.02633
3533.19518,0.02669
3531.13501,0.02699
3529.07484,0.02728
3527.01466,0.02757
3524.95449,0.02782
3522.89432,0.02828
3520.83415,0.02895
3518.77398,0.02952
3516.71380,0.02996
3514.65363,0.03038
3512.59346,0.03064
3510.53329,0.03084
3508.47312,0.03123
3506.41294,0.03158
3504.35277,0.03166
3502.29260,0.03186
3500.23243,0.03249
3498.17225,0.03313
3496.11208,0.03333
3494.05191,0.03327
3491.99174,0.03348
3489.93157,0.03385
3487.87139,0.03421
3485.81122,0.03480
3483.75105,0.03545
3481.69088,0.03585
3479.63071,0.03606
3477.57053,0.03615
3475.51036,0.03636
3473.45019,0.03693
3471.39002,0.03758
3469.32984,0.03790
3467.26967,0.03812
3465.20950,0.03851
3463.14933,0.03877
3461.08916,0.03886
3459.02898,0.03917
3456.96881,0.03956
3454.90864,0.03978
3452.84847,0.04011
3450.78830,0.04062
3448.72812,0.04083
3446.66795,0.04061
3444.60778,0.04049
3442.54761,0.04071
3440.48744,0.04113
3438.42726,0.04163
3436.36709,0.04221
3434.30692,0.04273
3432.24675,0.04305
3430.18657,0.04309
3428.12640,0.04322
3426.06623,0.04378
3424.00606,0.04428
3421.94589,0.04414
3419.88571,0.04367
3417.82554,0.04369
3415.76537,0.04423
3413.70520,0.04478
3411.64503,0.04507
3409.58485,0.04530
3407.52468,0.04572
3405.46451,0.04595
3403.40434,0.04571
3401.34416,0.04557
3399.28399,0.04603
3397.22382,0.04638
3395.16365,0.04643
3393.10348,0.04658
3391.04330,0.04680
3388.98313,0.04685
3386.92296,0.04696
3384.86279,0.04722
3382.80262,0.04733
3380.74244,0.04728
3378.68227,0.04729
3376.62210,0.04736
3374.56193,0.04761
3372.50176,0.04789
3370.44158,0.04799
3368.38141,0.04835
3366.32124,0.04912
3364.26107,0.04957
3362.20089,0.04952
3360.14072,0.04945
3358.08055,0.04945
3356.02038,0.04946
3353.96021,0.04950
3351.90003,0.04954
3349.83986,0.04974
3347.77969,0.05017
3345.71952,0.05039
3343.65935,0.05009
3341.59917,0.04969
3339.53900,0.04971
3337.47883,0.05002
3335.41866,0.05021
3333.35849,0.05026
3331.29831,0.05021
3329.23814,0.04994
3327.17797,0.04978
3325.11780,0.04998
3323.05762,0.05029
3320.99745,0.05040
3318.93728,0.05028
3316.87711,0.05023
3314.81694,0.05036
3312.75676,0.05034
3310.69659,0.05020
3308.63642,0.05032
3306.57625,0.05080
3304.51608,0.05113
3302.45590,0.05105
3300.39573,0.05100
3298.33556,0.05114
3296.27539,0.05120
3294.21521,0.05128
3292.15504,0.05143
3290.09487,0.05146
3288.03470,0.05137
3285.97453,0.05138
3283.91435,0.05161
3281.85418,0.05180
3279.79401,0.05182
3277.73384,0.05197
3275.67367,0.05221
3273.61349,0.05218
3271.55332,0.05187
3269.49315,0.05166
3267.43298,0.05164
3265.37281,0.05162
3263.31263,0.05170
3261.25246,0.05203
3259.19229,0.05242
3257.13212,0.05263
3255.07194,0.05245
3253.01177,0.05209
3250.95160,0.05194
3248.89143,0.05189
3246.83126,0.05178
3244.77108,0.05183
3242.71091,0.05202
3240.65074,0.05211
3238.59057,0.05207
3236.53040,0.05216
3234.47022,0.05243
3232.41005,0.05239
3230.34988,0.05181
3228.28971,0.05135
3226.22954,0.05147
3224.16936,0.05174
3222.10919,0.05183
3220.04902,0.05198
3217.98885,0.05213
3215.92867,0.05204
3213.86850,0.05190
3211.80833,0.05173
3209.74816,0.05157
3207.68799,0.05166
3205.62781,0.05182
3203.56764,0.05179
3201.50747,0.05167
3199.44730,0.05159
3197.38713,0.05148
3195.32695,0.05118
3193.26678,0.05091
3191.20661,0.05100
3189.14644,0.05137
3187.08626,0.05140
3185.02609,0.05091
3182.96592,0.05039
3180.90575,0.05021
3178.84558,0.05018
3176.78540,0.05010
3174.72523,0.05007
3172.66506,0.05006
3170.60489,0.04996
3168.54472,0.04987
3166.48454,0.04990
3164.42437,0.04995
3162.36420,0.04992
3160.30403,0.04989
3158.24386,0.04991
3156.18368,0.04993
3154.12351,0.04996
3152.06334,0.04990
3150.00317,0.04952
3147.94299,0.04906
3145.88282,0.04878
3143.82265,0.04863
3141.76248,0.04850
3139.70231,0.04826
3137.64213,0.04804
3135.58196,0.04790
3133.52179,0.04761
3131.46162,0.04727
3129.40145,0.04722
3127.34127,0.04728
3125.28110,0.04733
3123.22093,0.04737
3121.16076,0.04716
3119.10058,0.04679
3117.04041,0.04658
3114.98024,0.04641
3112.92007,0.04614
3110.85990,0.04595
3108.79972,0.04590
3106.73955,0.04577
3104.67938,0.04555
3102.61921,0.04545
3100.55904,0.04548
3098.49886,0.04545
3096.43869,0.04538
3094.37852,0.04532
3092.31835,0.04512
3090.25818,0.04486
3088.19800,0.04479
3086.13783,0.04479
3084.07766,0.04461
3082.01749,0.04426
3079.95731,0.04387
3077.89714,0.04362
3075.83697,0.04335
3073.77680,0.04301
3071.71663,0.04289
3069.65645,0.04288
3067.59628,0.04269
3065.53611,0.04239
3063.47594,0.04205
3061.41577,0.04163
3059.35559,0.04130
3057.29542,0.04123
3055.23525,0.04126
3053.17508,0.04117
3051.11491,0.04098
3049.05473,0.04079
3046.99456,0.04056
3044.93439,0.04026
3042.87422,0.03996
3040.81404,0.03968
3038.75387,0.03934
3036.69370,0.03912
3034.63353,0.03920
3032.57336,0.03931
3030.51318,0.03918
3028.45301,0.03892
3026.39284,0.03858
3024.33267,0.03808
3022.27250,0.03752
3020.21232,0.03721
3018.15215,0.03724
3016.09198,0.03729
3014.03181,0.03724
3011.97163,0.03718
3009.91146,0.03692
3007.85129,0.03633
3005.79112,0.03581
3003.73095,0.03563
3001.67077,0.03562
2999.61060,0.03564
2997.55043,0.03561
2995.49026,0.03548
2993.43009,0.03531
2991.36991,0.03504
2989.30974,0.03481
2987.24957,0.03484
2985.18940,0.03488
2983.12923,0.03465
2981.06905,0.03424
2979.00888,0.03383
2976.94871,0.03372
2974.88854,0.03395
2972.82836,0.03406
2970.76819,0.03399
2968.70802,0.03393
2966.64785,0.03374
2964.58768,0.03346
2962.52750,0.03337
2960.46733,0.03338
2958.40716,0.03339
2956.34699,0.03337
2954.28682,0.03320
2952.22664,0.03318
2950.16647,0.03327
2948.10630,0.03315
2946.04613,0.03287
2943.98596,0.03260
2941.92578,0.03247
2939.86561,0.03250
2937.80544,0.03257
2935.74527,0.03254
2933.68509,0.03239
2931.62492,0.03217
2929.56475,0.03200
2927.50458,0.03194
2925.44441,0.03186
2923.38423,0.03163
2921.32406,0.03135
2919.26389,0.03120
2917.20372,0.03114
2915.14355,0.03097
2913.08337,0.03059
2911.02320,0.03014
2908.96303,0.02974
2906.90286,0.02936
2904.84268,0.02926
2902.78251,0.02940
2900.72234,0.02932
2898.66217,0.02890
2896.60200,0.02847
2894.54182,0.02817
2892.48165,0.02799
2890.42148,0.02796
2888.36131,0.02785
2886.30114,0.02757
2884.24096,0.02734
2882.18079,0.02719
2880.12062,0.02709
2878.06045,0.02715
2876.00028,0.02722
2873.94010,0.02703
2871.87993,0.02673
2869.81976,0.02669
2867.75959,0.02677
2865.69941,0.02665
2863.63924,0.02638
2861.57907,0.02604
2859.51890,0.02568
2857.45873,0.02527
2855.39855,0.02492
2853.33838,0.02484
2851.27821,0.02481
2849.21804,0.02465
2847.15787,0.02448
2845.09769,0.02428
2843.03752,0.02396
2840.97735,0.02358
2838.91718,0.02326
2836.85700,0.02314
2834.79683,0.02317
2832.73666,0.02311
2830.67649,0.02290
2828.61632,0.02270
2826.55614,0.02240
2824.49597,0.02199
2822.43580,0.02172
2820.37563,0.02166
2818.31546,0.02175
2816.25528,0.02185
2814.19511,0.02168
2812.13494,0.02129
2810.07477,0.02107
2808.01460,0.02100
2805.95442,0.02088
2803.89425,0.02061
2801.83408,0.02026
2799.77391,0.01996
2797.71373,0.01976
2795.65356,0.01966
2793.59339,0.01956
2791.53322,0.01946
2789.47305,0.01944
2787.41287,0.01947
2785.35270,0.01937
2783.29253,0.01908
2781.23236,0.01885
2779.17219,0.01883
2777.11201,0.01879
2775.05184,0.01865
2772.99167,0.01863
2770.93150,0.01870
2768.87133,0.01862
2766.81115,0.01833
2764.75098,0.01794
2762.69081,0.01769
2760.63064,0.01776
2758.57046,0.01779
2756.51029,0.01750
2754.45012,0.01710
2752.38995,0.01693
2750.32978,0.01696
2748.26960,0.01695
2746.20943,0.01693
2744.14926,0.01685
2742.08909,0.01661
2740.02892,0.01650
2737.96874,0.01648
2735.90857,0.01624
2733.84840,0.01587
2731.78823,0.01566
2729.72805,0.01570
2727.66788,0.01578
2725.60771,0.01571
2723.54754,0.01556
2721.48737,0.01544
2719.42719,0.01534
2717.36702,0.01526
2715.30685,0.01520
2713.24668,0.01503
2711.18651,0.01473
2709.12633,0.01456
2707.06616,0.01462
2705.00599,0.01460
2702.94582,0.01442
2700.88565,0.01428
2698.82547,0.01416
2696.76530,0.01383
2694.70513,0.01345
2692.64496,0.01341
2690.58478,0.01355
2688.52461,0.01351
2686.46444,0.01335
2684.40427,0.01329
2682.34410,0.01323
2680.28392,0.01302
2678.22375,0.01282
2676.16358,0.01272
2674.10341,0.01261
2672.04324,0.01243
2669.98306,0.01229
2667.92289,0.01220
2665.86272,0.01206
2663.80255,0.01180
2661.74238,0.01163
2659.68220,0.01167
2657.62203,0.01181
2655.56186,0.01191
2653.50169,0.01182
2651.44151,0.01162
2649.38134,0.01153
2647.32117,0.01149
2645.26100,0.01143
2643.20083,0.01138
2641.14065,0.01138
2639.08048,0.01135
2637.02031,0.01119
2634.96014,0.01101
2632.89997,0.01086
2630.83979,0.01058
2628.77962,0.01023
2626.71945,0.00997
2624.65928,0.00984
2622.59910,0.00992
2620.53893,0.01008
2618.47876,0.01001
2616.41859,0.00985
2614.35842,0.00980
2612.29824,0.00973
2610.23807,0.00947
2608.17790,0.00916
2606.11773,0.00896
2604.05756,0.00887
2601.99738,0.00891
2599.93721,0.00899
2597.87704,0.00904
2595.81687,0.00911
2593.75670,0.00912
2591.69652,0.00900
2589.63635,0.00881
2587.57618,0.00867
2585.51601,0.00849
2583.45583,0.00825
2581.39566,0.00798
2579.33549,0.00776
2577.27532,0.00780
2575.21515,0.00811
2573.15497,0.00840
2571.09480,0.00831
2569.03463,0.00790
2566.97446,0.00774
2564.91429,0.00815
2562.85411,0.00847
2560.79394,0.00819
2558.73377,0.00800
2556.67360,0.00824
2554.61342,0.00824
2552.55325,0.00800
2550.49308,0.00802
2548.43291,0.00800
2546.37274,0.00795
2544.31256,0.00815
2542.25239,0.00824
2540.19222,0.00807
2538.13205,0.00802
2536.07188,0.00802
2534.01170,0.00801
2531.95153,0.00802
2529.89136,0.00796
2527.83119,0.00791
2525.77102,0.00778
2523.71084,0.00772
2521.65067,0.00785
2519.59050,0.00797
2517.53033,0.00800
2515.47015,0.00808
2513.40998,0.00812
2511.34981,0.00809
2509.28964,0.00806
2507.22947,0.00795
2505.16929,0.00805
2503.10912,0.00823
2501.04895,0.00832
2498.98878,0.00852
2496.92861,0.00853
2494.86843,0.00826
2492.80826,0.00820
2490.74809,0.00840
2488.68792,0.00854
2486.62775,0.00865
2484.56757,0.00862
2482.50740,0.00851
2480.44723,0.00846
2478.38706,0.00842
2476.32688,0.00847
2474.26671,0.00859
2472.20654,0.00863
2470.14637,0.00877
2468.08620,0.00898
2466.02602,0.00894
2463.96585,0.00877
2461.90568,0.00895
2459.84551,0.00932
2457.78534,0.00932
2455.72516,0.00913
2453.66499,0.00930
2451.60482,0.00949
2449.54465,0.00923
2447.48447,0.00901
2445.42430,0.00906
2443.36413,0.00892
2441.30396,0.00869
2439.24379,0.00864
2437.18361,0.00864
2435.12344,0.00875
2433.06327,0.00894
2431.00310,0.00888
2428.94293,0.00873
2426.88275,0.00870
2424.82258,0.00871
2422.76241,0.00881
2420.70224,0.00867
2418.64207,0.00837
2416.58189,0.00849
2414.52172,0.00880
2412.46155,0.00890
2410.40138,0.00895
2408.34120,0.00902
2406.28103,0.00906
2404.22086,0.00905
2402.16069,0.00915
2400.10052,0.00928
2398.04034,0.00856
2395.98017,0.00825
2393.92000,0.00845
2391.85983,0.00874
2389.79966,0.00893
2387.73948,0.00903
2385.67931,0.00912
2383.61914,0.00925
2381.55897,0.00954
2379.49880,0.00987
2377.43862,0.00970
2375.37845,0.00906
2373.31828,0.00884
2371.25811,0.00950
2369.19793,0.01038
2367.13776,0.01045
2365.07759,0.00969
2363.01742,0.00931
2360.95725,0.00908
2358.89707,0.00882
2356.83690,0.00819
2354.77673,0.00845
2352.71656,0.00947
2350.65639,0.00997
2348.59621,0.01029
2346.53604,0.01098
2344.47587,0.01001
2342.41570,0.00899
2340.35552,0.00830
2338.29535,0.00764
2336.23518,0.00760
2334.17501,0.00822
2332.11484,0.00920
2330.05466,0.01015
2327.99449,0.01074
2325.93432,0.01056
2323.87415,0.01025
2321.81398,0.00978
2319.75380,0.00966
2317.69363,0.00957
2315.63346,0.00954
2313.57329,0.00948
2311.51312,0.00921
2309.45294,0.00883
2307.39277,0.00852
2305.33260,0.00847
2303.27243,0.00879
2301.21225,0.00917
2299.15208,0.00901
2297.09191,0.00854
2295.03174,0.00830
2292.97157,0.00833
2290.91139,0.00843
2288.85122,0.00848
2286.79105,0.00838
2284.73088,0.00811
2282.67071,0.00784
2280.61053,0.00757
2278.55036,0.00714
2276.49019,0.00688
2274.43002,0.00720
2272.36984,0.00758
2270.30967,0.00739
2268.24950,0.00700
2266.18933,0.00695
2264.12916,0.00695
2262.06898,0.00661
2260.00881,0.00613
2257.94864,0.00613
2255.88847,0.00685
2253.82830,0.00759
2251.76812,0.00762
2249.70795,0.00681
2247.64778,0.00604
2245.58761,0.00572
2243.52744,0.00592
2241.46726,0.00609
2239.40709,0.00562
2237.34692,0.00518
2235.28675,0.00550
2233.22657,0.00629
2231.16640,0.00720
2229.10623,0.00730
2227.04606,0.00612
2224.98589,0.00501
2222.92571,0.00499
2220.86554,0.00514
2218.80537,0.00459
2216.74520,0.00414
2214.68503,0.00456
2212.62485,0.00524
2210.56468,0.00547
2208.50451,0.00511
2206.44434,0.00450
2204.38417,0.00435
2202.32399,0.00497
2200.26382,0.00580
2198.20365,0.00614
2196.14348,0.00644
2194.08330,0.00702
2192.02313,0.00732
2189.96296,0.00718
2187.90279,0.00668
2185.84262,0.00608
2183.78244,0.00603
2181.72227,0.00631
2179.66210,0.00539
2177.60193,0.00374
2175.54176,0.00365
2173.48158,0.00447
2171.42141,0.00489
2169.36124,0.00565
2167.30107,0.00586
2165.24089,0.00483
2163.18072,0.00431
2161.12055,0.00483
2159.06038,0.00558
2157.00021,0.00532
2154.94003,0.00421
2152.87986,0.00380
2150.81969,0.00409
2148.75952,0.00398
2146.69935,0.00350
2144.63917,0.00319
2142.57900,0.00302
2140.51883,0.00305
2138.45866,0.00319
2136.39849,0.00335
2134.33831,0.00354
2132.27814,0.00329
2130.21797,0.00279
2128.15780,0.00302
2126.09762,0.00396
2124.03745,0.00471
2121.97728,0.00454
2119.91711,0.00369
2117.85694,0.00346
2115.79676,0.00411
2113.73659,0.00466
2111.67642,0.00427
2109.61625,0.00340
2107.55608,0.00303
2105.49590,0.00336
2103.43573,0.00376
2101.37556,0.00393
2099.31539,0.00425
2097.25521,0.00437
2095.19504,0.00389
2093.13487,0.00314
2091.07470,0.00269
2089.01453,0.00304
2086.95435,0.00374
2084.89418,0.00389
2082.83401,0.00335
2080.77384,0.00310
2078.71367,0.00358
2076.65349,0.00359
2074.59332,0.00286
2072.53315,0.00272
2070.47298,0.00299
2068.41281,0.00266
2066.35263,0.00203
2064.29246,0.00175
2062.23229,0.00184
2060.17212,0.00201
2058.11194,0.00185
2056.05177,0.00177
2053.99160,0.00238
2051.93143,0.00285
2049.87126,0.00253
2047.81108,0.00208
2045.75091,0.00203
2043.69074,0.00232
2041.63057,0.00297
2039.57040,0.00328
2037.51022,0.00261
2035.45005,0.00203
2033.38988,0.00206
2031.32971,0.00215
2029.26954,0.00175
2027.20936,0.00071
2025.14919,0.00000
2023.08902,0.00010
2021.02885,0.00011
2018.96867,0.00005
2016.90850,0.00049
2014.84833,0.00109
2012.78816,0.00153
2010.72799,0.00180
2008.66781,0.00177
2006.60764,0.00130
2004.54747,0.00075
2002.48730,0.00067
2000.42713,0.00098
1998.36695,0.00115
1996.30678,0.00094
1994.24661,0.00076
1992.18644,0.00131
1990.12626,0.00240
1988.06609,0.00291
1986.00592,0.00292
1983.94575,0.00289
1981.88558,0.00245
1979.82540,0.00247
1977.76523,0.00313
1975.70506,0.00255
1973.64489,0.00092
1971.58472,0.00024
1969.52454,0.00086
1967.46437,0.00160
1965.40420,0.00139
1963.34403,0.00081
1961.28386,0.00097
1959.22368,0.00149
1957.16351,0.00182
1955.10334,0.00234
1953.04317,0.00246
1950.98299,0.00173
1948.92282,0.00117
1946.86265,0.00094
1944.80248,0.00035
1942.74231,0.00000
1940.68213,0.00044
1938.62196,0.00093
1936.56179,0.00125
1934.50162,0.00167
1932.44145,0.00202
1930.38127,0.00224
1928.32110,0.00237
1926.26093,0.00222
1924.20076,0.00171
1922.14059,0.00153
1920.08041,0.00205
1918.02024,0.00226
1915.96007,0.00188
1913.89990,0.00172
1911.83972,0.00177
1909.77955,0.00161
1907.71938,0.00146
1905.65921,0.00171
1903.59904,0.00212
1901.53886,0.00222
1899.47869,0.00204
1897.41852,0.00194
1895.35835,0.00186
1893.29818,0.00157
1891.23800,0.00129
1889.17783,0.00126
1887.11766,0.00141
1885.05749,0.00146
1882.99731,0.00122
1880.93714,0.00099
1878.87697,0.00125
1876.81680,0.00175
1874.75663,0.00193
1872.69645,0.00190
1870.63628,0.00190
1868.57611,0.00184
1866.51594,0.00175
1864.45577,0.00178
1862.39559,0.00187
1860.33542,0.00188
1858.27525,0.00172
1856.21508,0.00156
1854.15491,0.00152
1852.09473,0.00148
1850.03456,0.00152
1847.97439,0.00175
1845.91422,0.00190
1843.85404,0.00179
1841.79387,0.00170
1839.73370,0.00180
1837.67353,0.00183
1835.61336,0.00170
1833.55318,0.00144
1831.49301,0.00114
1829.43284,0.00105
1827.37267,0.00117
1825.31250,0.00124
1823.25232,0.00134
1821.19215,0.00160
1819.13198,0.00192
1817.07181,0.00214
1815.01163,0.00219
1812.95146,0.00211
1810.89129,0.00196
1808.83112,0.00186
1806.77095,0.00190
1804.71077,0.00201
1802.65060,0.00210
1800.59043,0.00202
1798.53026,0.00181
1796.47009,0.00187
1794.40991,0.00209
1792.34974,0.00200
1790.28957,0.00191
1788.22940,0.00223
1786.16923,0.00257
1784.10905,0.00251
1782.04888,0.00219
1779.98871,0.00195
1777.92854,0.00193
1775.86836,0.00198
1773.80819,0.00194
1771.74802,0.00195
1769.68785,0.00226
1767.62768,0.00258
1765.56750,0.00276
1763.50733,0.00293
1761.44716,0.00318
1759.38699,0.00355
1757.32682,0.00391
1755.26664,0.00420
1753.20647,0.00448
1751.14630,0.00472
1749.08613,0.00482
1747.02596,0.00493
1744.96578,0.00513
1742.90561,0.00527
1740.84544,0.00535
1738.78527,0.00555
1736.72509,0.00587
1734.66492,0.00597
1732.60475,0.00577
1730.54458,0.00574
1728.48441,0.00590
1726.42423,0.00611
1724.36406,0.00635
1722.30389,0.00657
1720.24372,0.00673
1718.18355,0.00679
1716.12337,0.00687
1714.06320,0.00701
1712.00303,0.00722
1709.94286,0.00751
1707.88268,0.00777
1705.82251,0.00800
1703.76234,0.00838
1701.70217,0.00878
1699.64200,0.00907
1697.58182,0.00950
1695.52165,0.01032
1693.46148,0.01140
1691.40131,0.01240
1689.34114,0.01320
1687.28096,0.01383
1685.22079,0.01435
1683.16062,0.01498
1681.10045,0.01597
1679.04028,0.01709
1676.98010,0.01794
1674.91993,0.01842
1672.85976,0.01880
1670.79959,0.01929
1668.73941,0.02006
1666.67924,0.02111
1664.61907,0.02209
1662.55890,0.02280
1660.49873,0.02341
1658.43855,0.02418
1656.37838,0.02494
1654.31821,0.02510
1652.25804,0.02470
1650.19787,0.02482
1648.13769,0.02516
1646.07752,0.02498
1644.01735,0.02475
1641.95718,0.02481
1639.89701,0.02488
1637.83683,0.02450
1635.77666,0.02360
1633.71649,0.02302
1631.65632,0.02310
1629.59614,0.02310
1627.53597,0.02268
1625.47580,0.02218
1623.41563,0.02163
1621.35546,0.02114
1619.29528,0.02087
1617.23511,0.02043
1615.17494,0.01991
1613.11477,0.01984
1611.05460,0.01996
1608.99442,0.01981
1606.93425,0.01947
1604.87408,0.01924
1602.81391,0.01913
1600.75373,0.01889
1598.69356,0.01841
1596.63339,0.01787
1594.57322,0.01750
1592.51305,0.01726
1590.45287,0.01701
1588.39270,0.01673
1586.33253,0.01648
1584.27236,0.01617
1582.21219,0.01579
1580.15201,0.01553
1578.09184,0.01527
1576.03167,0.01470
1573.97150,0.01424
1571.91133,0.01415
1569.85115,0.01392
1567.79098,0.01348
1565.73081,0.01323
1563.67064,0.01331
1561.61046,0.01354
1559.55029,0.01333
1557.49012,0.01260
1555.42995,0.01233
1553.36978,0.01248
1551.30960,0.01256
1549.24943,0.01244
1547.18926,0.01230
1545.12909,0.01224
1543.06892,0.01194
1541.00874,0.01109
1538.94857,0.01026
1536.88840,0.01020
1534.82823,0.01032
1532.76805,0.01003
1530.70788,0.00964
1528.64771,0.00936
1526.58754,0.00900
1524.52737,0.00866
1522.46719,0.00848
1520.40702,0.00846
1518.34685,0.00854
1516.28668,0.00844
1514.22651,0.00805
1512.16633,0.00764
1510.10616,0.00740
1508.04599,0.00697
1505.98582,0.00625
1503.92565,0.00602
1501.86547,0.00620
1499.80530,0.00629
1497.74513,0.00606
1495.68496,0.00566
1493.62478,0.00541
1491.56461,0.00524
1489.50444,0.00495
1487.44427,0.00469
1485.38410,0.00455
1483.32392,0.00453
1481.26375,0.00470
1479.20358,0.00505
1477.14341,0.00535
1475.08324,0.00528
1473.02306,0.00496
1470.96289,0.00492
1468.90272,0.00525
1466.84255,0.00566
1464.78238,0.00596
1462.72220,0.00614
1460.66203,0.00625
1458.60186,0.00627
1456.54169,0.00608
1454.48151,0.00580
1452.42134,0.00567
1450.36117,0.00569
1448.30100,0.00576
1446.24083,0.00587
1444.18065,0.00592
1442.12048,0.00587
1440.06031,0.00581
1438.00014,0.00578
1435.93997,0.00574
1433.87979,0.00581
1431.81962,0.00597
1429.75945,0.00609
1427.69928,0.00624
1425.63910,0.00648
1423.57893,0.00674
1421.51876,0.00701
1419.45859,0.00720
1417.39842,0.00728
1415.33824,0.00744
1413.27807,0.00768
1411.21790,0.00785
1409.15773,0.00792
1407.09756,0.00788
1405.03738,0.00765
1402.97721,0.00739
1400.91704,0.00730
1398.85687,0.00730
1396.79670,0.00714
1394.73652,0.00675
1392.67635,0.00641
1390.61618,0.00630
1388.55601,0.00622
1386.49583,0.00595
1384.43566,0.00571
1382.37549,0.00571
1380.31532,0.00579
1378.25515,0.00566
1376.19497,0.00535
1374.13480,0.00519
1372.07463,0.00521
1370.01446,0.00517
1367.95429,0.00507
1365.89411,0.00509
1363.83394,0.00514
1361.77377,0.00504
1359.71360,0.00491
1357.65343,0.00480
1355.59325,0.00462
1353.53308,0.00438
1351.47291,0.00415
1349.41274,0.00400
1347.35256,0.00388
1345.29239,0.00375
1343.23222,0.00370
1341.17205,0.00377
1339.11188,0.00384
1337.05170,0.00377
1334.99153,0.00365
1332.93136,0.00367
1330.87119,0.00374
1328.81102,0.00367
1326.75084,0.00352
1324.69067,0.00342
1322.63050,0.00344
1320.57033,0.00357
1318.51015,0.00371
1316.44998,0.00368
1314.38981,0.00353
1312.32964,0.00351
1310.26947,0.00362
1308.20929,0.00367
1306.14912,0.00364
1304.08895,0.00363
1302.02878,0.00373
1299.96861,0.00390
1297.90843,0.00403
1295.84826,0.00409
1293.78809,0.00408
1291.72792,0.00414
1289.66775,0.00428
1287.60757,0.00438
1285.54740,0.00441
1283.48723,0.00434
1281.42706,0.00417
1279.36688,0.00418
1277.30671,0.00443
1275.24654,0.00460
1273.18637,0.00462
1271.12620,0.00460
1269.06602,0.00457
1267.00585,0.00457
1264.94568,0.00462
1262.88551,0.00473
1260.82534,0.00492
1258.76516,0.00519
1256.70499,0.00547
1254.64482,0.00555
1252.58465,0.00539
1250.52447,0.00519
1248.46430,0.00512
1246.40413,0.00515
1244.34396,0.00512
1242.28379,0.00499
1240.22361,0.00485
1238.16344,0.00469
1236.10327,0.00453
1234.04310,0.00448
1231.98293,0.00439
1229.92275,0.00408
1227.86258,0.00373
1225.80241,0.00355
1223.74224,0.00343
1221.68207,0.00318
1219.62189,0.00277
1217.56172,0.00231
1215.50155,0.00187
1213.44138,0.00153
1211.38120,0.00135
1209.32103,0.00119
1207.26086,0.00092
1205.20069,0.00061
1203.14052,0.00036
1201.08034,0.00024
1199.02017,0.00012
1196.96000,0.00000
1194.89983,-0.00007
1192.83966,-0.00007
1190.77948,-0.00020
1188.71931,-0.00036
1186.65914,-0.00033
1184.59897,-0.00018
1182.53880,0.00012
1180.47862,0.00050
1178.41845,0.00076
1176.35828,0.00096
1174.29811,0.00124
1172.23793,0.00160
1170.17776,0.00191
1168.11759,0.00217
1166.05742,0.00249
1163.99725,0.00298
1161.93707,0.00350
1159.87690,0.00401
1157.81673,0.00470
1155.75656,0.00546
1153.69639,0.00613
1151.63621,0.00686
1149.57604,0.00768
1147.51587,0.00854
1145.45570,0.00955
1143.39552,0.01057
1141.33535,0.01140
1139.27518,0.01229
1137.21501,0.01339
1135.15484,0.01464
1133.09466,0.01610
1131.03449,0.01763
1128.97432,0.01921
1126.91415,0.02095
1124.85398,0.02266
1122.79380,0.02433
1120.73363,0.02607
1118.67346,0.02789
1116.61329,0.02965
1114.55312,0.03130
1112.49294,0.03303
1110.43277,0.03499
1108.37260,0.03701
1106.31243,0.03890
1104.25225,0.04073
1102.19208,0.04246
1100.13191,0.04382
1098.07174,0.04496
1096.01157,0.04640
1093.95139,0.04803
1091.89122,0.04944
1089.83105,0.05057
1087.77088,0.05162
1085.71071,0.05270
1083.65053,0.05384
1081.59036,0.05507
1079.53019,0.05619
1077.47002,0.05716
1075.40985,0.05810
1073.34967,0.05893
1071.28950,0.05958
1069.22933,0.06006
1067.16916,0.06037
1065.10898,0.06042
1063.04881,0.06013
1060.98864,0.05964
1058.92847,0.05897
1056.86830,0.05818
1054.80812,0.05724
1052.74795,0.05591
1050.68778,0.05420
1048.62761,0.05227
1046.56744,0.05021
1044.50726,0.04808
1042.44709,0.04593
1040.38692,0.04373
1038.32675,0.04143
1036.26657,0.03903
1034.20640,0.03667
1032.14623,0.03437
1030.08606,0.03221
1028.02589,0.03032
1025.96571,0.02861
1023.90554,0.02711
1021.84537,0.02584
1019.78520,0.02473
1017.72503,0.02382
1015.66485,0.02305
1013.60468,0.02255
1011.54451,0.02243
1009.48434,0.02256
1007.42417,0.02288
1005.36399,0.02349
1003.30382,0.02442
1001.24365,0.02559
999.18348,0.02683
997.12330,0.02819
995.06313,0.02969
993.00296,0.03129
990.94279,0.03285
988.88262,0.03405
986.82244,0.03504
984.76227,0.03597
982.70210,0.03656
980.64193,0.03673
978.58176,0.03660
976.52158,0.03628
974.46141,0.03572
972.40124,0.03474
970.34107,0.03335
968.28089,0.03184
966.22072,0.03023
964.16055,0.02836
962.10038,0.02631
960.04021,0.02429
957.98003,0.02245
955.91986,0.02071
953.85969,0.01914
951.79952,0.01793
949.73935,0.01663
947.67917,0.01490
945.61900,0.01338
943.55883,0.01229
941.49866,0.01113
939.43849,0.00991
937.37831,0.00894
935.31814,0.00824
933.25797,0.00764
931.19780,0.00699
929.13762,0.00625
927.07745,0.00555
925.01728,0.00511
922.95711,0.00481
920.89694,0.00442
918.83676,0.00396
916.77659,0.00345
914.71642,0.00297
912.65625,0.00268
910.59608,0.00255
908.53590,0.00241
906.47573,0.00222
904.41556,0.00211
902.35539,0.00215
900.29522,0.00237
898.23504,0.00272
896.17487,0.00300
894.11470,0.00319
892.05453,0.00354
889.99435,0.00416
887.93418,0.00489
885.87401,0.00544
883.81384,0.00588
881.75367,0.00664
879.69349,0.00765
877.63332,0.00864
875.57315,0.00947
873.51298,0.01005
871.45281,0.01064
869.39263,0.01143
867.33246,0.01202
865.27229,0.01235
863.21212,0.01262
861.15194,0.01278
859.09177,0.01303
857.03160,0.01346
854.97143,0.01383
852.91126,0.01402
850.85108,0.01400
848.79091,0.01358
846.73074,0.01247
844.67057,0.01117
842.61040,0.01056
840.55022,0.01023
838.49005,0.00998
836.42988,0.01027
834.36971,0.01032
832.30954,0.00947
830.24936,0.00835
828.18919,0.00731
826.12902,0.00664
824.06885,0.00653
822.00867,0.00622
819.94850,0.00538
817.88833,0.00450
815.82816,0.00409
813.76799,0.00417
811.70781,0.00427
809.64764,0.00395
807.58747,0.00326
805.52730,0.00278
803.46713,0.00254
801.40695,0.00235
799.34678,0.00230
797.28661,0.00230
795.22644,0.00208
793.16627,0.00185
791.10609,0.00201
789.04592,0.00219
786.98575,0.00186
784.92558,0.00141
782.86540,0.00150
780.80523,0.00195
778.74506,0.00212
776.68489,0.00180
774.62472,0.00163
772.56454,0.00197
770.50437,0.00217
768.44420,0.00198
766.38403,0.00169
764.32386,0.00148
762.26368,0.00129
760.20351,0.00101
758.14334,0.00106
756.08317,0.00143
754.02299,0.00136
751.96282,0.00083
749.90265,0.00031
747.84248,0.00000
745.78231,0.00026
743.72213,0.00093
741.66196,0.00094
739.60179,0.00056
737.54162,0.00067
735.48145,0.00075
733.42127,0.00041
731.36110,0.00024
729.30093,0.00043
727.24076,0.00071
725.18059,0.00120
723.12041,0.00179
721.06024,0.00147
719.00007,0.00062
716.93990,0.00037
714.87972,0.00079
712.81955,0.00110
710.75938,0.00095
708.69921,0.00091
706.63904,0.00120
704.57886,0.00131
702.51869,0.00101
700.45852,0.00095
698.39835,0.00126
696.33818,0.00126
694.27800,0.00122
692.21783,0.00162
690.15766,0.00184
688.09749,0.00143
686.03731,0.00071
683.97714,0.00034
681.91697,0.00077
679.85680,0.00136
677.79663,0.00177
675.73645,0.00264
673.67628,0.00337
671.61611,0.00240
669.55594,0.00257
667.49577,0.00493
665.43559,0.00297
663.37542,0.00314
661.31525,0.00272
659.25508,0.00155
657.19491,0.00101
655.13473,0.00160
653.07456,0.00298
651.01439,0.00410
648.95422,0.00433
646.89404,0.00426
644.83387,0.00445
642.77370,0.00384
640.71353,0.00226
638.65336,0.00164
636.59318,0.00299
634.53301,0.00466
632.47284,0.00482
630.41267,0.00355
628.35250,0.00232
626.29232,0.00176
624.23215,0.00104
622.17198,0.00072
620.11181,0.00205
618.05164,0.00497
615.99146,0.00630
613.93129,0.00491
611.87112,0.00394
609.81095,0.00364
607.75077,0.00332
605.69060,0.00411
603.63043,0.00432
601.57026,0.00224
599.51009,0.00000
