3996.73391,0.00000
3994.67373,0.00017
3992.61356,0.00023
3990.55339,0.00024
3988.49322,0.00041
3986.43305,0.00063
3984.37287,0.00071
3982.31270,0.00073
3980.25253,0.00070
3978.19236,0.00055
3976.13219,0.00048
3974.07201,0.00070
3972.01184,0.00099
3969.95167,0.00111
3967.89150,0.00099
3965.83133,0.00063
3963.77115,0.00040
3961.71098,0.00054
3959.65081,0.00070
3957.59064,0.00067
3955.53046,0.00063
3953.47029,0.00056
3951.41012,0.00053
3949.34995,0.00078
3947.28978,0.00108
3945.22960,0.00106
3943.16943,0.00083
3941.10926,0.00064
3939.04909,0.00053
3936.98892,0.00056
3934.92874,0.00074
3932.86857,0.00091
3930.80840,0.00086
3928.74823,0.00074
3926.68805,0.00073
3924.62788,0.00085
3922.56771,0.00093
3920.50754,0.00064
3918.44737,0.00012
3916.38719,0.00000
3914.32702,0.00051
3912.26685,0.00099
3910.20668,0.00101
3908.14651,0.00095
3906.08633,0.00105
3904.02616,0.00093
3901.96599,0.00049
3899.90582,0.00020
3897.84565,0.00035
3895.78547,0.00087
3893.72530,0.00138
3891.66513,0.00139
3889.60496,0.00091
3887.54478,0.00039
3885.48461,0.00017
3883.42444,0.00041
3881.36427,0.00084
3879.30410,0.00098
3877.24392,0.00087
3875.18375,0.00076
3873.12358,0.00078
3871.06341,0.00095
3869.00324,0.00118
3866.94306,0.00145
3864.88289,0.00162
3862.82272,0.00152
3860.76255,0.00143
3858.70237,0.00143
3856.64220,0.00142
3854.58203,0.00147
3852.52186,0.00132
3850.46169,0.00081
3848.40151,0.00036
3846.34134,0.00011
3844.28117,0.00014
3842.22100,0.00042
3840.16083,0.00077
3838.10065,0.00121
3836.04048,0.00160
3833.98031,0.00136
3831.92014,0.00055
3829.85997,0.00000
3827.79979,0.00007
3825.73962,0.00040
3823.67945,0.00099
3821.61928,0.00173
3819.55910,0.00186
3817.49893,0.00127
3815.43876,0.00064
3813.37859,0.00049
3811.31842,0.00071
3809.25824,0.00090
3807.19807,0.00093
3805.13790,0.00090
3803.07773,0.00106
3801.01756,0.00134
3798.95738,0.00123
3796.89721,0.00088
3794.83704,0.00086
3792.77687,0.00115
3790.71670,0.00132
3788.65652,0.00110
3786.59635,0.00067
3784.53618,0.00043
3782.47601,0.00061
3780.41583,0.00095
3778.35566,0.00105
3776.29549,0.00087
3774.23532,0.00070
3772.17515,0.00080
3770.11497,0.00127
3768.05480,0.00180
3765.99463,0.00202
3763.93446,0.00192
3761.87429,0.00155
3759.81411,0.00107
3757.75394,0.00084
3755.69377,0.00091
3753.63360,0.00095
3751.57342,0.00105
3749.51325,0.00141
3747.45308,0.00158
3745.39291,0.00128
3743.33274,0.00083
3741.27256,0.00090
3739.21239,0.00148
3737.15222,0.00191
3735.09205,0.00174
3733.03188,0.00146
3730.97170,0.00127
3728.91153,0.00083
3726.85136,0.00055
3724.79119,0.00110
3722.73102,0.00206
3720.67084,0.00221
3718.61067,0.00166
3716.55050,0.00122
3714.49033,0.00112
3712.43015,0.00125
3710.36998,0.00157
3708.30981,0.00193
3706.24964,0.00199
3704.18947,0.00186
3702.12929,0.00190
3700.06912,0.00212
3698.00895,0.00222
3695.94878,0.00209
3693.88861,0.00196
3691.82843,0.00192
3689.76826,0.00173
3687.70809,0.00123
3685.64792,0.00116
3683.58775,0.00171
3681.52757,0.00236
3679.46740,0.00260
3677.40723,0.00264
3675.34706,0.00268
3673.28688,0.00246
3671.22671,0.00212
3669.16654,0.00208
3667.10637,0.00235
3665.04620,0.00269
3662.98602,0.00319
3660.92585,0.00385
3658.86568,0.00447
3656.80551,0.00496
3654.74534,0.00523
3652.68516,0.00524
3650.62499,0.00509
3648.56482,0.00514
3646.50465,0.00553
3644.44447,0.00588
3642.38430,0.00590
3640.32413,0.00595
3638.26396,0.00650
3636.20379,0.00733
3634.14361,0.00816
3632.08344,0.00896
3630.02327,0.00940
3627.96310,0.00934
3625.90293,0.00950
3623.84275,0.00994
3621.78258,0.01019
3619.72241,0.01031
3617.66224,0.01075
3615.60207,0.01142
3613.54189,0.01185
3611.48172,0.01213
3609.42155,0.01249
3607.36138,0.01295
3605.30120,0.01339
3603.24103,0.01373
3601.18086,0.01402
3599.12069,0.01436
3597.06052,0.01492
3595.00034,0.01565
3592.94017,0.01630
3590.88000,0.01658
3588.81983,0.01654
3586.75966,0.01659
3584.69948,0.01714
3582.63931,0.01784
3580.57914,0.01834
3578.51897,0.01881
3576.45879,0.01939
3574.39862,0.01975
3572.33845,0.01976
3570.27828,0.01997
3568.21811,0.02075
3566.15793,0.02150
3564.09776,0.02181
3562.03759,0.02207
3559.97742,0.02240
3557.91725,0.02273
3555.85707,0.02309
3553.79690,0.02350
3551.73673,0.02398
3549.67656,0.02465
3547.61639,0.02532
3545.55621,0.02558
3543.49604,0.02546
3541.43587,0.02557
3539.37570,0.02608
3537.31552,0.02665
3535.25535,0.02722
3533.19518,0.02782
3531.13501,0.02831
3529.07484,0.02856
3527.01466,0.02861
3524.95449,0.02874
3522.89432,0.02919
3520.83415,0.02972
3518.77398,0.03011
3516.71380,0.03055
3514.65363,0.03108
3512.59346,0.03150
3510.53329,0.03180
3508.47312,0.03204
3506.41294,0.03225
3504.35277,0.03256
3502.29260,0.03312
3500.23243,0.03392
3498.17225,0.03457
3496.11208,0.03473
3494.05191,0.03471
3491.99174,0.03491
3489.93157,0.03530
3487.87139,0.03578
3485.81122,0.03618
3483.75105,0.03643
3481.69088,0.03681
3479.63071,0.03726
3477.57053,0.03752
3475.51036,0.03783
3473.45019,0.03840
3471.39002,0.03902
3469.32984,0.03962
3467.26967,0.04005
3465.20950,0.04013
3463.14933,0.04009
3461.08916,0.04021
3459.02898,0.04052
3456.96881,0.04092
3454.90864,0.04122
3452.84847,0.04148
3450.78830,0.04190
3448.72812,0.04224
3446.66795,0.04226
3444.60778,0.04226
3442.54761,0.04252
3440.48744,0.04289
3438.42726,0.04334
3436.36709,0.04390
3434.30692,0.04436
3432.24675,0.04458
3430.18657,0.04465
3428.12640,0.04463
3426.06623,0.04476
3424.00606,0.04502
3421.94589,0.04502
3419.88571,0.04477
3417.82554,0.04482
3415.76537,0.04534
3413.70520,0.04609
3411.64503,0.04665
3409.58485,0.04687
3407.52468,0.04707
3405.46451,0.04737
3403.40434,0.04746
3401.34416,0.04735
3399.28399,0.04745
3397.22382,0.04752
3395.16365,0.04754
3393.10348,0.04776
3391.04330,0.04804
3388.98313,0.04832
3386.92296,0.04881
3384.86279,0.04917
3382.80262,0.04908
3380.74244,0.04918
3378.68227,0.04962
3376.62210,0.04967
3374.56193,0.04952
3372.50176,0.04959
3370.44158,0.04969
3368.38141,0.04973
3366.32124,0.04977
3364.26107,0.04991
3362.20089,0.05017
3360.14072,0.05040
3358.08055,0.05053
3356.02038,0.05063
3353.96021,0.05072
3351.90003,0.05082
3349.83986,0.05107
3347.77969,0.05136
3345.71952,0.05119
3343.65935,0.05071
3341.59917,0.05060
3339.53900,0.05098
3337.47883,0.05130
3335.41866,0.05129
3333.35849,0.05130
3331.29831,0.05142
3329.23814,0.05153
3327.17797,0.05179
3325.11780,0.05211
3323.05762,0.05209
3320.99745,0.05171
3318.93728,0.05132
3316.87711,0.05132
3314.81694,0.05166
3312.75676,0.05191
3310.69659,0.05188
3308.63642,0.05191
3306.57625,0.05220
3304.51608,0.05244
3302.45590,0.05253
3300.39573,0.05265
3298.33556,0.05277
3296.27539,0.05288
3294.21521,0.05305
3292.15504,0.05320
3290.09487,0.05333
3288.03470,0.05344
3285.97453,0.05341
3283.91435,0.05337
3281.85418,0.05343
3279.79401,0.05346
3277.73384,0.05352
3275.67367,0.05364
3273.61349,0.05352
3271.55332,0.05326
3269.49315,0.05323
3267.43298,0.05334
3265.37281,0.05331
3263.31263,0.05339
3261.25246,0.05354
3259.19229,0.05344
3257.13212,0.05323
3255.07194,0.05311
3253.01177,0.05300
3250.95160,0.05289
3248.89143,0.05288
3246.83126,0.05302
3244.77108,0.05321
3242.71091,0.05327
3240.65074,0.05311
3238.59057,0.05288
3236.53040,0.05288
3234.47022,0.05313
3232.41005,0.05339
3230.34988,0.05342
3228.28971,0.05321
3226.22954,0.05292
3224.16936,0.05278
3222.10919,0.05289
3220.04902,0.05300
3217.98885,0.05278
3215.92867,0.05238
3213.86850,0.05223
3211.80833,0.05214
3209.74816,0.05192
3207.68799,0.05193
3205.62781,0.05222
3203.56764,0.05246
3201.50747,0.05240
3199.44730,0.05225
3197.38713,0.05235
3195.32695,0.05231
3193.26678,0.05190
3191.20661,0.05172
3189.14644,0.05199
3187.08626,0.05215
3185.02609,0.05196
3182.96592,0.05178
3180.90575,0.05176
3178.84558,0.05170
3176.78540,0.05156
3174.72523,0.05135
3172.66506,0.05098
3170.60489,0.05061
3168.54472,0.05050
3166.48454,0.05054
3164.42437,0.05050
3162.36420,0.05040
3160.30403,0.05031
3158.24386,0.05033
3156.18368,0.05045
3154.12351,0.05054
3152.06334,0.05041
3150.00317,0.04990
3147.94299,0.04934
3145.88282,0.04916
3143.82265,0.04916
3141.76248,0.04897
3139.70231,0.04873
3137.64213,0.04856
3135.58196,0.04840
3133.52179,0.04827
3131.46162,0.04821
3129.40145,0.04811
3127.34127,0.04782
3125.28110,0.04759
3123.22093,0.04764
3121.16076,0.04760
3119.10058,0.04727
3117.04041,0.04698
3114.98024,0.04674
3112.92007,0.04645
3110.85990,0.04637
3108.79972,0.04642
3106.73955,0.04631
3104.67938,0.04625
3102.61921,0.04629
3100.55904,0.04610
3098.49886,0.04580
3096.43869,0.04569
3094.37852,0.04559
3092.31835,0.04536
3090.25818,0.04524
3088.19800,0.04534
3086.13783,0.04544
3084.07766,0.04530
3082.01749,0.04502
3079.95731,0.04471
3077.89714,0.04437
3075.83697,0.04390
3073.77680,0.04346
3071.71663,0.04325
3069.65645,0.04304
3067.59628,0.04276
3065.53611,0.04258
3063.47594,0.04247
3061.41577,0.04227
3059.35559,0.04209
3057.29542,0.04203
3055.23525,0.04181
3053.17508,0.04150
3051.11491,0.04135
3049.05473,0.04129
3046.99456,0.04125
3044.93439,0.04115
3042.87422,0.04076
3040.81404,0.04018
3038.75387,0.03985
3036.69370,0.03989
3034.63353,0.03988
3032.57336,0.03972
3030.51318,0.03954
3028.45301,0.03917
3026.39284,0.03856
3024.33267,0.03800
3022.27250,0.03765
3020.21232,0.03754
3018.15215,0.03754
3016.09198,0.03752
3014.03181,0.03742
3011.97163,0.03720
3009.91146,0.03681
3007.85129,0.03648
3005.79112,0.03643
3003.73095,0.03642
3001.67077,0.03624
2999.61060,0.03592
2997.55043,0.03569
2995.49026,0.03568
2993.43009,0.03568
2991.36991,0.03546
2989.30974,0.03513
2987.24957,0.03504
2985.18940,0.03518
2983.12923,0.03517
2981.06905,0.03497
2979.00888,0.03477
2976.94871,0.03469
2974.88854,0.03466
2972.82836,0.03457
2970.76819,0.03453
2968.70802,0.03455
2966.64785,0.03445
2964.58768,0.03431
2962.52750,0.03431
2960.46733,0.03425
2958.40716,0.03409
2956.34699,0.03400
2954.28682,0.03393
2952.22664,0.03394
2950.16647,0.03401
2948.10630,0.03391
2946.04613,0.03377
2943.98596,0.03364
2941.92578,0.03349
2939.86561,0.03353
2937.80544,0.03377
2935.74527,0.03380
2933.68509,0.03345
2931.62492,0.03303
2929.56475,0.03284
2927.50458,0.03289
2925.44441,0.03291
2923.38423,0.03260
2921.32406,0.03232
2919.26389,0.03239
2917.20372,0.03238
2915.14355,0.03198
2913.08337,0.03149
2911.02320,0.03116
2908.96303,0.03085
2906.90286,0.03042
2904.84268,0.03015
2902.78251,0.03011
2900.72234,0.02999
2898.66217,0.02972
2896.60200,0.02950
2894.54182,0.02929
2892.48165,0.02903
2890.42148,0.02883
2888.36131,0.02866
2886.30114,0.02851
2884.24096,0.02850
2882.18079,0.02862
2880.12062,0.02861
2878.06045,0.02842
2876.00028,0.02824
2873.94010,0.02805
2871.87993,0.02783
2869.81976,0.02782
2867.75959,0.02783
2865.69941,0.02757
2863.63924,0.02721
2861.57907,0.02692
2859.51890,0.02659
2857.45873,0.02615
2855.39855,0.02575
2853.33838,0.02554
2851.27821,0.02545
2849.21804,0.02540
2847.15787,0.02517
2845.09769,0.02468
2843.03752,0.02435
2840.97735,0.02433
2838.91718,0.02423
2836.85700,0.02394
2834.79683,0.02374
2832.73666,0.02364
2830.67649,0.02336
2828.61632,0.02297
2826.55614,0.02276
2824.49597,0.02264
2822.43580,0.02255
2820.37563,0.02245
2818.31546,0.02224
2816.25528,0.02201
2814.19511,0.02183
2812.13494,0.02162
2810.07477,0.02158
2808.01460,0.02168
2805.95442,0.02163
2803.89425,0.02140
2801.83408,0.02108
2799.77391,0.02078
2797.71373,0.02072
2795.65356,0.02074
2793.59339,0.02058
2791.53322,0.02044
2789.47305,0.02040
2787.41287,0.02016
2785.35270,0.01979
2783.29253,0.01959
2781.23236,0.01961
2779.17219,0.01964
2777.11201,0.01962
2775.05184,0.01950
2772.99167,0.01930
2770.93150,0.01919
2768.87133,0.01919
2766.81115,0.01910
2764.75098,0.01876
2762.69081,0.01840
2760.63064,0.01836
2758.57046,0.01846
2756.51029,0.01829
2754.45012,0.01796
2752.38995,0.01774
2750.32978,0.01762
2748.26960,0.01751
2746.20943,0.01746
2744.14926,0.01742
2742.08909,0.01727
2740.02892,0.01719
2737.96874,0.01721
2735.90857,0.01720
2733.84840,0.01708
2731.78823,0.01677
2729.72805,0.01655
2727.66788,0.01656
2725.60771,0.01656
2723.54754,0.01639
2721.48737,0.01615
2719.42719,0.01608
2717.36702,0.01612
2715.30685,0.01599
2713.24668,0.01571
2711.18651,0.01549
2709.12633,0.01541
2707.06616,0.01541
2705.00599,0.01539
2702.94582,0.01524
2700.88565,0.01500
2698.82547,0.01485
2696.76530,0.01487
2694.70513,0.01484
2692.64496,0.01470
2690.58478,0.01456
2688.52461,0.01437
2686.46444,0.01416
2684.40427,0.01413
2682.34410,0.01426
2680.28392,0.01433
2678.22375,0.01413
2676.16358,0.01373
2674.10341,0.01343
2672.04324,0.01333
2669.98306,0.01332
2667.92289,0.01313
2665.86272,0.01280
2663.80255,0.01277
2661.74238,0.01296
2659.68220,0.01297
2657.62203,0.01286
2655.56186,0.01268
2653.50169,0.01241
2651.44151,0.01233
2649.38134,0.01239
2647.32117,0.01231
2645.26100,0.01216
2643.20083,0.01196
2641.14065,0.01176
2639.08048,0.01178
2637.02031,0.01183
2634.96014,0.01173
2632.89997,0.01159
2630.83979,0.01147
2628.77962,0.01135
2626.71945,0.01112
2624.65928,0.01085
2622.59910,0.01082
2620.53893,0.01101
2618.47876,0.01108
2616.41859,0.01101
2614.35842,0.01095
2612.29824,0.01066
2610.23807,0.01018
2608.17790,0.00995
2606.11773,0.01007
2604.05756,0.01018
2601.99738,0.01022
2599.93721,0.01023
2597.87704,0.01017
2595.81687,0.01011
2593.75670,0.00999
2591.69652,0.00984
2589.63635,0.00982
2587.57618,0.00972
2585.51601,0.00937
2583.45583,0.00920
2581.39566,0.00910
2579.33549,0.00872
2577.27532,0.00856
2575.21515,0.00902
2573.15497,0.00963
2571.09480,0.00964
2569.03463,0.00910
2566.97446,0.00875
2564.91429,0.00883
2562.85411,0.00894
2560.79394,0.00880
2558.73377,0.00866
2556.67360,0.00883
2554.61342,0.00903
2552.55325,0.00901
2550.49308,0.00895
2548.43291,0.00898
2546.37274,0.00912
2544.31256,0.00922
2542.25239,0.00914
2540.19222,0.00906
2538.13205,0.00898
2536.07188,0.00879
2534.01170,0.00868
2531.95153,0.00872
2529.89136,0.00886
2527.83119,0.00897
2525.77102,0.00899
2523.71084,0.00882
2521.65067,0.00864
2519.59050,0.00875
2517.53033,0.00902
2515.47015,0.00913
2513.40998,0.00899
2511.34981,0.00883
2509.28964,0.00867
2507.22947,0.00849
2505.16929,0.00859
2503.10912,0.00885
2501.04895,0.00899
2498.98878,0.00911
2496.92861,0.00925
2494.86843,0.00928
2492.80826,0.00928
2490.74809,0.00936
2488.68792,0.00927
2486.62775,0.00929
2484.56757,0.00978
2482.50740,0.01006
2480.44723,0.00985
2478.38706,0.00962
2476.32688,0.00951
2474.26671,0.00944
2472.20654,0.00942
2470.14637,0.00962
2468.08620,0.00999
2466.02602,0.01010
2463.96585,0.00986
2461.90568,0.00972
2459.84551,0.00990
2457.78534,0.01001
2455.72516,0.01004
2453.66499,0.01021
2451.60482,0.01014
2449.54465,0.00970
2447.48447,0.00958
2445.42430,0.00990
2443.36413,0.01005
2441.30396,0.01009
2439.24379,0.01036
2437.18361,0.01050
2435.12344,0.01019
2433.06327,0.00970
2431.00310,0.00930
2428.94293,0.00917
2426.88275,0.00943
2424.82258,0.00988
2422.76241,0.01010
2420.70224,0.00978
2418.64207,0.00933
2416.58189,0.00944
2414.52172,0.00993
2412.46155,0.01008
2410.40138,0.01002
2408.34120,0.01017
2406.28103,0.01031
2404.22086,0.01013
2402.16069,0.00989
2400.10052,0.00978
2398.04034,0.00921
2395.98017,0.00912
2393.92000,0.00939
2391.85983,0.00963
2389.79966,0.00980
2387.73948,0.01000
2385.67931,0.01021
2383.61914,0.01017
2381.55897,0.00996
2379.49880,0.01014
2377.43862,0.01058
2375.37845,0.01084
2373.31828,0.01046
2371.25811,0.00997
2369.19793,0.01001
2367.13776,0.00959
2365.07759,0.00819
2363.01742,0.00798
2360.95725,0.00781
2358.89707,0.00852
2356.83690,0.00917
2354.77673,0.01019
2352.71656,0.01098
2350.65639,0.00981
2348.59621,0.00942
2346.53604,0.01296
2344.47587,0.01291
2342.41570,0.01116
2340.35552,0.01009
2338.29535,0.00975
2336.23518,0.01010
2334.17501,0.01027
2332.11484,0.01032
2330.05466,0.01051
2327.99449,0.01145
2325.93432,0.01169
2323.87415,0.01199
2321.81398,0.01161
2319.75380,0.01160
2317.69363,0.01116
2315.63346,0.01120
2313.57329,0.01129
2311.51312,0.01077
2309.45294,0.01024
2307.39277,0.01008
2305.33260,0.01001
2303.27243,0.01005
2301.21225,0.01047
2299.15208,0.01055
2297.09191,0.01016
2295.03174,0.00986
2292.97157,0.00979
2290.91139,0.00972
2288.85122,0.00957
2286.79105,0.00946
2284.73088,0.00933
2282.67071,0.00909
2280.61053,0.00888
2278.55036,0.00861
2276.49019,0.00837
2274.43002,0.00850
2272.36984,0.00873
2270.30967,0.00861
2268.24950,0.00852
2266.18933,0.00846
2264.12916,0.00803
2262.06898,0.00757
2260.00881,0.00739
2257.94864,0.00719
2255.88847,0.00719
2253.82830,0.00749
2251.76812,0.00751
2249.70795,0.00692
2247.64778,0.00671
2245.58761,0.00709
2243.52744,0.00767
2241.46726,0.00798
2239.40709,0.00820
2237.34692,0.00869
2235.28675,0.00889
2233.22657,0.00855
2231.16640,0.00802
2229.10623,0.00748
2227.04606,0.00713
2224.98589,0.00719
2222.92571,0.00740
2220.86554,0.00723
2218.80537,0.00670
2216.74520,0.00621
2214.68503,0.00620
2212.62485,0.00667
2210.56468,0.00709
2208.50451,0.00742
2206.44434,0.00811
2204.38417,0.00856
2202.32399,0.00808
2200.26382,0.00744
2198.20365,0.00742
2196.14348,0.00778
2194.08330,0.00759
2192.02313,0.00695
2189.96296,0.00693
2187.90279,0.00741
2185.84262,0.00731
2183.78244,0.00652
2181.72227,0.00554
2179.66210,0.00443
2177.60193,0.00424
2175.54176,0.00547
2173.48158,0.00644
2171.42141,0.00684
2169.36124,0.00698
2167.30107,0.00580
2165.24089,0.00440
2163.18072,0.00458
2161.12055,0.00530
2159.06038,0.00584
2157.00021,0.00621
2154.94003,0.00593
2152.87986,0.00527
2150.81969,0.00468
2148.75952,0.00424
2146.69935,0.00429
2144.63917,0.00483
2142.57900,0.00485
2140.51883,0.00431
2138.45866,0.00431
2136.39849,0.00469
2134.33831,0.00454
2132.27814,0.00380
2130.21797,0.00323
2128.15780,0.00371
2126.09762,0.00482
2124.03745,0.00551
2121.97728,0.00563
2119.91711,0.00546
2117.85694,0.00534
2115.79676,0.00575
2113.73659,0.00648
2111.67642,0.00650
2109.61625,0.00598
2107.55608,0.00569
2105.49590,0.00550
2103.43573,0.00538
2101.37556,0.00520
2099.31539,0.00501
2097.25521,0.00519
2095.19504,0.00529
2093.13487,0.00504
2091.07470,0.00490
2089.01453,0.00534
2086.95435,0.00586
2084.89418,0.00565
2082.83401,0.00527
2080.77384,0.00531
2078.71367,0.00520
2076.65349,0.00465
2074.59332,0.00433
2072.53315,0.00454
2070.47298,0.00459
2068.41281,0.00416
2066.35263,0.00385
2064.29246,0.00426
2062.23229,0.00514
2060.17212,0.00576
2058.11194,0.00555
2056.05177,0.00456
2053.99160,0.00347
2051.93143,0.00270
2049.87126,0.00238
2047.81108,0.00261
2045.75091,0.00319
2043.69074,0.00346
2041.63057,0.00372
2039.57040,0.00444
2037.51022,0.00454
2035.45005,0.00385
2033.38988,0.00362
2031.32971,0.00352
2029.26954,0.00214
2027.20936,0.00030
2025.14919,0.00000
2023.08902,0.00117
2021.02885,0.00217
2018.96867,0.00279
2016.90850,0.00377
2014.84833,0.00432
2012.78816,0.00376
2010.72799,0.00258
2008.66781,0.00201
2006.60764,0.00228
2004.54747,0.00233
2002.48730,0.00202
2000.42713,0.00197
1998.36695,0.00201
1996.30678,0.00179
1994.24661,0.00186
1992.18644,0.00270
1990.12626,0.00350
1988.06609,0.00289
1986.00592,0.00165
1983.94575,0.00156
1981.88558,0.00259
1979.82540,0.00366
1977.76523,0.00373
1975.70506,0.00239
1973.64489,0.00102
1971.58472,0.00137
1969.52454,0.00313
1967.46437,0.00418
1965.40420,0.00344
1963.34403,0.00236
1961.28386,0.00206
1959.22368,0.00222
1957.16351,0.00254
1955.10334,0.00291
1953.04317,0.00341
1950.98299,0.00388
1948.92282,0.00364
1946.86265,0.00266
1944.80248,0.00177
1942.74231,0.00131
1940.68213,0.00110
1938.62196,0.00134
1936.56179,0.00186
1934.50162,0.00206
1932.44145,0.00204
1930.38127,0.00224
1928.32110,0.00275
1926.26093,0.00331
1924.20076,0.00353
1922.14059,0.00341
1920.08041,0.00318
1918.02024,0.00293
1915.96007,0.00283
1913.89990,0.00270
1911.83972,0.00226
1909.77955,0.00186
1907.71938,0.00189
1905.65921,0.00205
1903.59904,0.00201
1901.53886,0.00177
1899.47869,0.00144
1897.41852,0.00141
1895.35835,0.00168
1893.29818,0.00186
1891.23800,0.00199
1889.17783,0.00214
1887.11766,0.00215
1885.05749,0.00205
1882.99731,0.00187
1880.93714,0.00176
1878.87697,0.00198
1876.81680,0.00245
1874.75663,0.00280
1872.69645,0.00290
1870.63628,0.00277
1868.57611,0.00240
1866.51594,0.00201
1864.45577,0.00186
1862.39559,0.00204
1860.33542,0.00240
1858.27525,0.00250
1856.21508,0.00216
1854.15491,0.00174
1852.09473,0.00166
1850.03456,0.00204
1847.97439,0.00237
1845.91422,0.00220
1843.85404,0.00189
1841.79387,0.00207
1839.73370,0.00243
1837.67353,0.00258
1835.61336,0.00261
1833.55318,0.00251
1831.49301,0.00214
1829.43284,0.00178
1827.37267,0.00177
1825.31250,0.00184
1823.25232,0.00176
1821.19215,0.00173
1819.13198,0.00193
1817.07181,0.00225
1815.01163,0.00240
1812.95146,0.00224
1810.89129,0.00204
1808.83112,0.00213
1806.77095,0.00241
1804.71077,0.00256
1802.65060,0.00261
1800.59043,0.00265
1798.53026,0.00261
1796.47009,0.00260
1794.40991,0.00259
1792.34974,0.00235
1790.28957,0.00217
1788.22940,0.00244
1786.16923,0.00286
1784.10905,0.00301
1782.04888,0.00289
1779.98871,0.00266
1777.92854,0.00247
1775.86836,0.00243
1773.80819,0.00250
1771.74802,0.00267
1769.68785,0.00292
1767.62768,0.00309
1765.56750,0.00315
1763.50733,0.00324
1761.44716,0.00356
1759.38699,0.00416
1757.32682,0.00472
1755.26664,0.00496
1753.20647,0.00491
1751.14630,0.00485
1749.08613,0.00499
1747.02596,0.00533
1744.96578,0.00570
1742.90561,0.00601
1740.84544,0.00626
1738.78527,0.00642
1736.72509,0.00647
1734.66492,0.00642
1732.60475,0.00640
1730.54458,0.00658
1728.48441,0.00685
1726.42423,0.00700
1724.36406,0.00700
1722.30389,0.00697
1720.24372,0.00693
1718.18355,0.00694
1716.12337,0.00720
1714.06320,0.00756
1712.00303,0.00789
1709.94286,0.00826
1707.88268,0.00857
1705.82251,0.00882
1703.76234,0.00923
1701.70217,0.00974
1699.64200,0.01019
1697.58182,0.01062
1695.52165,0.01141
1693.46148,0.01260
1691.40131,0.01374
1689.34114,0.01461
1687.28096,0.01521
1685.22079,0.01576
1683.16062,0.01673
1681.10045,0.01801
1679.04028,0.01916
1676.98010,0.02004
1674.91993,0.02080
1672.85976,0.02152
1670.79959,0.02219
1668.73941,0.02302
1666.67924,0.02410
1664.61907,0.02517
1662.55890,0.02599
1660.49873,0.02658
1658.43855,0.02719
1656.37838,0.02787
1654.31821,0.02822
1652.25804,0.02801
1650.19787,0.02785
1648.13769,0.02773
1646.07752,0.02750
1644.01735,0.02750
1641.95718,0.02767
1639.89701,0.02762
1637.83683,0.02704
1635.77666,0.02597
1633.71649,0.02531
1631.65632,0.02529
1629.59614,0.02519
1627.53597,0.02476
1625.47580,0.02430
1623.41563,0.02381
1621.35546,0.02334
1619.29528,0.02297
1617.23511,0.02234
1615.17494,0.02165
1613.11477,0.02155
1611.05460,0.02170
1608.99442,0.02162
1606.93425,0.02132
1604.87408,0.02101
1602.81391,0.02074
1600.75373,0.02045
1598.69356,0.02006
1596.63339,0.01965
1594.57322,0.01936
1592.51305,0.01913
1590.45287,0.01884
1588.39270,0.01846
1586.33253,0.01806
1584.27236,0.01769
1582.21219,0.01735
1580.15201,0.01709
1578.09184,0.01680
1576.03167,0.01633
1573.97150,0.01598
1571.91133,0.01586
1569.85115,0.01546
1567.79098,0.01491
1565.73081,0.01473
1563.67064,0.01486
1561.61046,0.01492
1559.55029,0.01461
1557.49012,0.01408
1555.42995,0.01400
1553.36978,0.01413
1551.30960,0.01409
1549.24943,0.01387
1547.18926,0.01365
1545.12909,0.01344
1543.06892,0.01305
1541.00874,0.01213
1538.94857,0.01113
1536.88840,0.01112
1534.82823,0.01150
1532.76805,0.01148
1530.70788,0.01115
1528.64771,0.01076
1526.58754,0.01027
1524.52737,0.00980
1522.46719,0.00949
1520.40702,0.00941
1518.34685,0.00951
1516.28668,0.00946
1514.22651,0.00919
1512.16633,0.00905
1510.10616,0.00894
1508.04599,0.00817
1505.98582,0.00685
1503.92565,0.00640
1501.86547,0.00666
1499.80530,0.00693
1497.74513,0.00689
1495.68496,0.00647
1493.62478,0.00606
1491.56461,0.00583
1489.50444,0.00551
1487.44427,0.00519
1485.38410,0.00510
1483.32392,0.00512
1481.26375,0.00517
1479.20358,0.00528
1477.14341,0.00545
1475.08324,0.00557
1473.02306,0.00562
1470.96289,0.00574
1468.90272,0.00604
1466.84255,0.00637
1464.78238,0.00658
1462.72220,0.00673
1460.66203,0.00690
1458.60186,0.00696
1456.54169,0.00681
1454.48151,0.00675
1452.42134,0.00686
1450.36117,0.00688
1448.30100,0.00683
1446.24083,0.00685
1444.18065,0.00692
1442.12048,0.00689
1440.06031,0.00674
1438.00014,0.00659
1435.93997,0.00662
1433.87979,0.00686
1431.81962,0.00706
1429.75945,0.00714
1427.69928,0.00735
1425.63910,0.00772
1423.57893,0.00800
1421.51876,0.00817
1419.45859,0.00839
1417.39842,0.00865
1415.33824,0.00889
1413.27807,0.00909
1411.21790,0.00923
1409.15773,0.00922
1407.09756,0.00907
1405.03738,0.00883
1402.97721,0.00864
1400.91704,0.00859
1398.85687,0.00855
1396.79670,0.00834
1394.73652,0.00795
1392.67635,0.00755
1390.61618,0.00731
1388.55601,0.00720
1386.49583,0.00706
1384.43566,0.00691
1382.37549,0.00685
1380.31532,0.00685
1378.25515,0.00674
1376.19497,0.00649
1374.13480,0.00630
1372.07463,0.00626
1370.01446,0.00617
1367.95429,0.00598
1365.89411,0.00586
1363.83394,0.00582
1361.77377,0.00567
1359.71360,0.00539
1357.65343,0.00520
1355.59325,0.00513
1353.53308,0.00509
1351.47291,0.00502
1349.41274,0.00491
1347.35256,0.00473
1345.29239,0.00454
1343.23222,0.00445
1341.17205,0.00443
1339.11188,0.00435
1337.05170,0.00420
1334.99153,0.00407
1332.93136,0.00410
1330.87119,0.00427
1328.81102,0.00438
1326.75084,0.00436
1324.69067,0.00424
1322.63050,0.00417
1320.57033,0.00425
1318.51015,0.00437
1316.44998,0.00433
1314.38981,0.00416
1312.32964,0.00407
1310.26947,0.00413
1308.20929,0.00425
1306.14912,0.00432
1304.08895,0.00443
1302.02878,0.00462
1299.96861,0.00481
1297.90843,0.00494
1295.84826,0.00505
1293.78809,0.00514
1291.72792,0.00517
1289.66775,0.00522
1287.60757,0.00523
1285.54740,0.00514
1283.48723,0.00496
1281.42706,0.00472
1279.36688,0.00459
1277.30671,0.00478
1275.24654,0.00518
1273.18637,0.00549
1271.12620,0.00555
1269.06602,0.00545
1267.00585,0.00529
1264.94568,0.00521
1262.88551,0.00534
1260.82534,0.00566
1258.76516,0.00597
1256.70499,0.00614
1254.64482,0.00612
1252.58465,0.00601
1250.52447,0.00594
1248.46430,0.00587
1246.40413,0.00572
1244.34396,0.00553
1242.28379,0.00547
1240.22361,0.00549
1238.16344,0.00540
1236.10327,0.00530
1234.04310,0.00530
1231.98293,0.00516
1229.92275,0.00469
1227.86258,0.00414
1225.80241,0.00384
1223.74224,0.00364
1221.68207,0.00335
1219.62189,0.00292
1217.56172,0.00249
1215.50155,0.00217
1213.44138,0.00190
1211.38120,0.00166
1209.32103,0.00140
1207.26086,0.00108
1205.20069,0.00078
1203.14052,0.00060
1201.08034,0.00047
1199.02017,0.00023
1196.96000,0.00000
1194.89983,-0.00008
1192.83966,-0.00005
1190.77948,-0.00007
1188.71931,-0.00019
1186.65914,-0.00032
1184.59897,-0.00017
1182.53880,0.00036
1180.47862,0.00081
1178.41845,0.00104
1176.35828,0.00128
1174.29811,0.00154
1172.23793,0.00185
1170.17776,0.00230
1168.11759,0.00280
1166.05742,0.00324
1163.99725,0.00359
1161.93707,0.00393
1159.87690,0.00438
1157.81673,0.00505
1155.75656,0.00590
1153.69639,0.00683
1151.63621,0.00770
1149.57604,0.00850
1147.51587,0.00934
1145.45570,0.01027
1143.39552,0.01127
1141.33535,0.01228
1139.27518,0.01331
1137.21501,0.01442
1135.15484,0.01578
1133.09466,0.01735
1131.03449,0.01886
1128.97432,0.02031
1126.91415,0.02204
1124.85398,0.02388
1122.79380,0.02555
1120.73363,0.02726
1118.67346,0.02914
1116.61329,0.03103
1114.55312,0.03280
1112.49294,0.03456
1110.43277,0.03639
1108.37260,0.03818
1106.31243,0.03995
1104.25225,0.04177
1102.19208,0.04355
1100.13191,0.04510
1098.07174,0.04657
1096.01157,0.04818
1093.95139,0.04978
1091.89122,0.05113
1089.83105,0.05232
1087.77088,0.05343
1085.71071,0.05444
1083.65053,0.05545
1081.59036,0.05664
1079.53019,0.05792
1077.47002,0.05902
1075.40985,0.05982
1073.34967,0.06040
1071.28950,0.06080
1069.22933,0.06104
1067.16916,0.06125
1065.10898,0.06136
1063.04881,0.06126
1060.98864,0.06087
1058.92847,0.06020
1056.86830,0.05936
1054.80812,0.05838
1052.74795,0.05710
1050.68778,0.05546
1048.62761,0.05359
1046.56744,0.05159
1044.50726,0.04956
1042.44709,0.04745
1040.38692,0.04519
1038.32675,0.04286
1036.26657,0.04051
1034.20640,0.03811
1032.14623,0.03576
1030.08606,0.03370
1028.02589,0.03186
1025.96571,0.02995
1023.90554,0.02824
1021.84537,0.02697
1019.78520,0.02585
1017.72503,0.02479
1015.66485,0.02397
1013.60468,0.02354
1011.54451,0.02335
1009.48434,0.02325
1007.42417,0.02342
1005.36399,0.02392
1003.30382,0.02477
1001.24365,0.02608
999.18348,0.02757
997.12330,0.02884
995.06313,0.03004
993.00296,0.03156
990.94279,0.03319
988.88262,0.03439
986.82244,0.03533
984.76227,0.03615
982.70210,0.03660
980.64193,0.03670
978.58176,0.03641
976.52158,0.03583
974.46141,0.03519
972.40124,0.03424
970.34107,0.03278
968.28089,0.03124
966.22072,0.02984
964.16055,0.02822
962.10038,0.02617
960.04021,0.02398
957.98003,0.02204
955.91986,0.02039
953.85969,0.01894
951.79952,0.01763
949.73935,0.01610
947.67917,0.01422
945.61900,0.01279
943.55883,0.01192
941.49866,0.01079
939.43849,0.00937
937.37831,0.00831
935.31814,0.00780
933.25797,0.00731
931.19780,0.00652
929.13762,0.00576
927.07745,0.00524
925.01728,0.00470
922.95711,0.00406
920.89694,0.00357
918.83676,0.00329
916.77659,0.00299
914.71642,0.00267
912.65625,0.00244
910.59608,0.00215
908.53590,0.00189
906.47573,0.00179
904.41556,0.00181
902.35539,0.00176
900.29522,0.00177
898.23504,0.00216
896.17487,0.00252
894.11470,0.00258
892.05453,0.00293
889.99435,0.00372
887.93418,0.00441
885.87401,0.00483
883.81384,0.00526
881.75367,0.00601
879.69349,0.00703
877.63332,0.00792
875.57315,0.00855
873.51298,0.00916
871.45281,0.00999
869.39263,0.01096
867.33246,0.01163
865.27229,0.01185
863.21212,0.01182
861.15194,0.01193
859.09177,0.01243
857.03160,0.01298
854.97143,0.01323
852.91126,0.01313
850.85108,0.01274
848.79091,0.01236
846.73074,0.01191
844.67057,0.01136
842.61040,0.01108
840.55022,0.01086
838.49005,0.01039
836.42988,0.00979
834.36971,0.00897
832.30954,0.00802
830.24936,0.00717
828.18919,0.00650
826.12902,0.00624
824.06885,0.00631
822.00867,0.00612
819.94850,0.00549
817.88833,0.00473
815.82816,0.00420
813.76799,0.00394
811.70781,0.00368
809.64764,0.00331
807.58747,0.00302
805.52730,0.00276
803.46713,0.00207
801.40695,0.00144
799.34678,0.00150
797.28661,0.00175
795.22644,0.00185
793.16627,0.00196
791.10609,0.00223
789.04592,0.00211
786.98575,0.00142
784.92558,0.00110
782.86540,0.00165
780.80523,0.00233
778.74506,0.00257
776.68489,0.00231
774.62472,0.00195
772.56454,0.00197
770.50437,0.00185
768.44420,0.00147
766.38403,0.00125
764.32386,0.00118
762.26368,0.00096
760.20351,0.00058
758.14334,0.00061
756.08317,0.00111
754.02299,0.00130
751.96282,0.00109
749.90265,0.00090
747.84248,0.00060
745.78231,0.00032
743.72213,0.00033
741.66196,0.00051
739.60179,0.00064
737.54162,0.00071
735.48145,0.00104
733.42127,0.00140
731.36110,0.00134
729.30093,0.00102
727.24076,0.00084
725.18059,0.00116
723.12041,0.00146
721.06024,0.00127
719.00007,0.00049
716.93990,0.00046
714.87972,0.00109
712.81955,0.00156
710.75938,0.00139
708.69921,0.00100
706.63904,0.00108
704.57886,0.00162
702.51869,0.00213
700.45852,0.00226
698.39835,0.00204
696.33818,0.00150
694.27800,0.00108
692.21783,0.00120
690.15766,0.00135
688.09749,0.00102
686.03731,0.00033
683.97714,0.00000
681.91697,0.00044
679.85680,0.00080
677.79663,0.00066
675.73645,0.00099
673.67628,0.00127
671.61611,-0.00005
669.55594,0.00315
667.49577,0.00879
665.43559,0.00151
663.37542,0.00226
661.31525,0.00390
659.25508,0.00392
657.19491,0.00359
655.13473,0.00351
653.07456,0.00390
651.01439,0.00435
648.95422,0.00454
646.89404,0.00459
644.83387,0.00490
642.77370,0.00434
640.71353,0.00280
638.65336,0.00179
636.59318,0.00212
634.53301,0.00306
632.47284,0.00376
630.41267,0.00404
628.35250,0.00407
626.29232,0.00368
624.23215,0.00320
622.17198,0.00377
620.11181,0.00581
618.05164,0.00858
615.99146,0.01060
613.93129,0.00985
611.87112,0.00677
609.81095,0.00299
607.75077,0.00000
605.69060,-0.00059
603.63043,0.00153
601.57026,0.00161
599.51009,0.00000
