3996.73391,0.00041
3994.67373,0.00000
3992.61356,0.00022
3990.55339,0.00052
3988.49322,0.00042
3986.43305,0.00036
3984.37287,0.00057
3982.31270,0.00080
3980.25253,0.00090
3978.19236,0.00084
3976.13219,0.00072
3974.07201,0.00083
3972.01184,0.00105
3969.95167,0.00098
3967.89150,0.00078
3965.83133,0.00077
3963.77115,0.00093
3961.71098,0.00108
3959.65081,0.00107
3957.59064,0.00086
3955.53046,0.00068
3953.47029,0.00070
3951.41012,0.00091
3949.34995,0.00121
3947.28978,0.00130
3945.22960,0.00111
3943.16943,0.00104
3941.10926,0.00128
3939.04909,0.00146
3936.98892,0.00141
3934.92874,0.00131
3932.86857,0.00100
3930.80840,0.00043
3928.74823,0.00011
3926.68805,0.00029
3924.62788,0.00070
3922.56771,0.00100
3920.50754,0.00110
3918.44737,0.00111
3916.38719,0.00110
3914.32702,0.00114
3912.26685,0.00134
3910.20668,0.00145
3908.14651,0.00107
3906.08633,0.00048
3904.02616,0.00038
3901.96599,0.00063
3899.90582,0.00062
3897.84565,0.00056
3895.78547,0.00070
3893.72530,0.00095
3891.66513,0.00136
3889.60496,0.00177
3887.54478,0.00170
3885.48461,0.00133
3883.42444,0.00117
3881.36427,0.00131
3879.30410,0.00156
3877.24392,0.00169
3875.18375,0.00158
3873.12358,0.00131
3871.06341,0.00104
3869.00324,0.00095
3866.94306,0.00102
3864.88289,0.00135
3862.82272,0.00186
3860.76255,0.00190
3858.70237,0.00134
3856.64220,0.00085
3854.58203,0.00100
3852.52186,0.00150
3850.46169,0.00145
3848.40151,0.00108
3846.34134,0.00079
3844.28117,0.00071
3842.22100,0.00080
3840.16083,0.00091
3838.10065,0.00107
3836.04048,0.00141
3833.98031,0.00174
3831.92014,0.00190
3829.85997,0.00198
3827.79979,0.00191
3825.73962,0.00173
3823.67945,0.00165
3821.61928,0.00155
3819.55910,0.00128
3817.49893,0.00108
3815.43876,0.00119
3813.37859,0.00161
3811.31842,0.00199
3809.25824,0.00202
3807.19807,0.00158
3805.13790,0.00083
3803.07773,0.00032
3801.01756,0.00061
3798.95738,0.00119
3796.89721,0.00137
3794.83704,0.00142
3792.77687,0.00145
3790.71670,0.00134
3788.65652,0.00138
3786.59635,0.00170
3784.53618,0.00187
3782.47601,0.00155
3780.41583,0.00110
3778.35566,0.00122
3776.29549,0.00195
3774.23532,0.00251
3772.17515,0.00234
3770.11497,0.00190
3768.05480,0.00188
3765.99463,0.00194
3763.93446,0.00162
3761.87429,0.00121
3759.81411,0.00117
3757.75394,0.00147
3755.69377,0.00167
3753.63360,0.00172
3751.57342,0.00178
3749.51325,0.00160
3747.45308,0.00128
3745.39291,0.00132
3743.33274,0.00164
3741.27256,0.00175
3739.21239,0.00153
3737.15222,0.00126
3735.09205,0.00142
3733.03188,0.00197
3730.97170,0.00231
3728.91153,0.00239
3726.85136,0.00255
3724.79119,0.00265
3722.73102,0.00237
3720.67084,0.00208
3718.61067,0.00206
3716.55050,0.00210
3714.49033,0.00200
3712.43015,0.00185
3710.36998,0.00204
3708.30981,0.00243
3706.24964,0.00270
3704.18947,0.00253
3702.12929,0.00215
3700.06912,0.00223
3698.00895,0.00272
3695.94878,0.00312
3693.88861,0.00304
3691.82843,0.00243
3689.76826,0.00185
3687.70809,0.00194
3685.64792,0.00232
3683.58775,0.00262
3681.52757,0.00265
3679.46740,0.00234
3677.40723,0.00202
3675.34706,0.00208
3673.28688,0.00232
3671.22671,0.00255
3669.16654,0.00301
3667.10637,0.00349
3665.04620,0.00367
3662.98602,0.00368
3660.92585,0.00373
3658.86568,0.00390
3656.80551,0.00419
3654.74534,0.00446
3652.68516,0.00441
3650.62499,0.00439
3648.56482,0.00504
3646.50465,0.00553
3644.44447,0.00530
3642.38430,0.00502
3640.32413,0.00490
3638.26396,0.00477
3636.20379,0.00499
3634.14361,0.00585
3632.08344,0.00666
3630.02327,0.00681
3627.96310,0.00709
3625.90293,0.00785
3623.84275,0.00835
3621.78258,0.00850
3619.72241,0.00853
3617.66224,0.00843
3615.60207,0.00850
3613.54189,0.00912
3611.48172,0.00970
3609.42155,0.00973
3607.36138,0.00947
3605.30120,0.00937
3603.24103,0.00954
3601.18086,0.00981
3599.12069,0.01029
3597.06052,0.01106
3595.00034,0.01180
3592.94017,0.01200
3590.88000,0.01183
3588.81983,0.01183
3586.75966,0.01220
3584.69948,0.01265
3582.63931,0.01300
3580.57914,0.01335
3578.51897,0.01361
3576.45879,0.01365
3574.39862,0.01363
3572.33845,0.01361
3570.27828,0.01344
3568.21811,0.01330
3566.15793,0.01367
3564.09776,0.01445
3562.03759,0.01511
3559.97742,0.01556
3557.91725,0.01597
3555.85707,0.01618
3553.79690,0.01604
3551.73673,0.01593
3549.67656,0.01614
3547.61639,0.01638
3545.55621,0.01662
3543.49604,0.01709
3541.43587,0.01763
3539.37570,0.01804
3537.31552,0.01824
3535.25535,0.01832
3533.19518,0.01846
3531.13501,0.01876
3529.07484,0.01934
3527.01466,0.01993
3524.95449,0.01997
3522.89432,0.01957
3520.83415,0.01946
3518.77398,0.01993
3516.71380,0.02063
3514.65363,0.02116
3512.59346,0.02149
3510.53329,0.02168
3508.47312,0.02161
3506.41294,0.02132
3504.35277,0.02109
3502.29260,0.02134
3500.23243,0.02212
3498.17225,0.02281
3496.11208,0.02293
3494.05191,0.02274
3491.99174,0.02288
3489.93157,0.02332
3487.87139,0.02355
3485.81122,0.02372
3483.75105,0.02413
3481.69088,0.02448
3479.63071,0.02462
3477.57053,0.02476
3475.51036,0.02503
3473.45019,0.02530
3471.39002,0.02536
3469.32984,0.02533
3467.26967,0.02541
3465.20950,0.02545
3463.14933,0.02540
3461.08916,0.02547
3459.02898,0.02579
3456.96881,0.02618
3454.90864,0.02644
3452.84847,0.02661
3450.78830,0.02669
3448.72812,0.02672
3446.66795,0.02689
3444.60778,0.02697
3442.54761,0.02685
3440.48744,0.02692
3438.42726,0.02726
3436.36709,0.02751
3434.30692,0.02754
3432.24675,0.02771
3430.18657,0.02827
3428.12640,0.02886
3426.06623,0.02932
3424.00606,0.02959
3421.94589,0.02961
3419.88571,0.02967
3417.82554,0.02966
3415.76537,0.02952
3413.70520,0.02959
3411.64503,0.02970
3409.58485,0.02956
3407.52468,0.02951
3405.46451,0.02977
3403.40434,0.02976
3401.34416,0.02940
3399.28399,0.02954
3397.22382,0.02985
3395.16365,0.02993
3393.10348,0.02984
3391.04330,0.02993
3388.98313,0.03020
3386.92296,0.03042
3384.86279,0.03059
3382.80262,0.03072
3380.74244,0.03064
3378.68227,0.03049
3376.62210,0.03040
3374.56193,0.03041
3372.50176,0.03053
3370.44158,0.03053
3368.38141,0.03043
3366.32124,0.03045
3364.26107,0.03067
3362.20089,0.03086
3360.14072,0.03075
3358.08055,0.03057
3356.02038,0.03072
3353.96021,0.03111
3351.90003,0.03129
3349.83986,0.03104
3347.77969,0.03065
3345.71952,0.03052
3343.65935,0.03079
3341.59917,0.03101
3339.53900,0.03092
3337.47883,0.03097
3335.41866,0.03129
3333.35849,0.03158
3331.29831,0.03168
3329.23814,0.03145
3327.17797,0.03110
3325.11780,0.03106
3323.05762,0.03122
3320.99745,0.03117
3318.93728,0.03100
3316.87711,0.03100
3314.81694,0.03110
3312.75676,0.03094
3310.69659,0.03054
3308.63642,0.03040
3306.57625,0.03060
3304.51608,0.03090
3302.45590,0.03120
3300.39573,0.03134
3298.33556,0.03130
3296.27539,0.03115
3294.21521,0.03094
3292.15504,0.03065
3290.09487,0.03047
3288.03470,0.03059
3285.97453,0.03090
3283.91435,0.03109
3281.85418,0.03099
3279.79401,0.03089
3277.73384,0.03107
3275.67367,0.03133
3273.61349,0.03145
3271.55332,0.03146
3269.49315,0.03138
3267.43298,0.03131
3265.37281,0.03124
3263.31263,0.03110
3261.25246,0.03099
3259.19229,0.03103
3257.13212,0.03111
3255.07194,0.03119
3253.01177,0.03141
3250.95160,0.03150
3248.89143,0.03119
3246.83126,0.03072
3244.77108,0.03039
3242.71091,0.03010
3240.65074,0.02985
3238.59057,0.03001
3236.53040,0.03045
3234.47022,0.03059
3232.41005,0.03028
3230.34988,0.03007
3228.28971,0.03032
3226.22954,0.03067
3224.16936,0.03075
3222.10919,0.03049
3220.04902,0.03025
3217.98885,0.03031
3215.92867,0.03025
3213.86850,0.02985
3211.80833,0.02966
3209.74816,0.02972
3207.68799,0.02968
3205.62781,0.02976
3203.56764,0.02985
3201.50747,0.02961
3199.44730,0.02928
3197.38713,0.02923
3195.32695,0.02924
3193.26678,0.02916
3191.20661,0.02921
3189.14644,0.02929
3187.08626,0.02919
3185.02609,0.02888
3182.96592,0.02852
3180.90575,0.02828
3178.84558,0.02819
3176.78540,0.02830
3174.72523,0.02847
3172.66506,0.02841
3170.60489,0.02824
3168.54472,0.02834
3166.48454,0.02856
3164.42437,0.02853
3162.36420,0.02841
3160.30403,0.02842
3158.24386,0.02836
3156.18368,0.02803
3154.12351,0.02781
3152.06334,0.02773
3150.00317,0.02742
3147.94299,0.02707
3145.88282,0.02703
3143.82265,0.02714
3141.76248,0.02716
3139.70231,0.02713
3137.64213,0.02720
3135.58196,0.02715
3133.52179,0.02688
3131.46162,0.02680
3129.40145,0.02694
3127.34127,0.02700
3125.28110,0.02688
3123.22093,0.02661
3121.16076,0.02628
3119.10058,0.02603
3117.04041,0.02586
3114.98024,0.02579
3112.92007,0.02592
3110.85990,0.02594
3108.79972,0.02560
3106.73955,0.02527
3104.67938,0.02524
3102.61921,0.02531
3100.55904,0.02530
3098.49886,0.02533
3096.43869,0.02533
3094.37852,0.02517
3092.31835,0.02511
3090.25818,0.02522
3088.19800,0.02525
3086.13783,0.02513
3084.07766,0.02491
3082.01749,0.02459
3079.95731,0.02421
3077.89714,0.02399
3075.83697,0.02405
3073.77680,0.02422
3071.71663,0.02416
3069.65645,0.02377
3067.59628,0.02343
3065.53611,0.02337
3063.47594,0.02348
3061.41577,0.02365
3059.35559,0.02365
3057.29542,0.02345
3055.23525,0.02321
3053.17508,0.02289
3051.11491,0.02252
3049.05473,0.02221
3046.99456,0.02211
3044.93439,0.02238
3042.87422,0.02278
3040.81404,0.02292
3038.75387,0.02272
3036.69370,0.02239
3034.63353,0.02221
3032.57336,0.02226
3030.51318,0.02225
3028.45301,0.02205
3026.39284,0.02190
3024.33267,0.02192
3022.27250,0.02187
3020.21232,0.02164
3018.15215,0.02145
3016.09198,0.02143
3014.03181,0.02132
3011.97163,0.02106
3009.91146,0.02082
3007.85129,0.02069
3005.79112,0.02062
3003.73095,0.02052
3001.67077,0.02037
2999.61060,0.02015
2997.55043,0.01999
2995.49026,0.02002
2993.43009,0.02011
2991.36991,0.02008
2989.30974,0.02001
2987.24957,0.01992
2985.18940,0.01973
2983.12923,0.01963
2981.06905,0.01967
2979.00888,0.01977
2976.94871,0.01992
2974.88854,0.01998
2972.82836,0.01992
2970.76819,0.01980
2968.70802,0.01969
2966.64785,0.01959
2964.58768,0.01953
2962.52750,0.01957
2960.46733,0.01963
2958.40716,0.01941
2956.34699,0.01904
2954.28682,0.01902
2952.22664,0.01931
2950.16647,0.01930
2948.10630,0.01899
2946.04613,0.01889
2943.98596,0.01907
2941.92578,0.01926
2939.86561,0.01923
2937.80544,0.01901
2935.74527,0.01888
2933.68509,0.01881
2931.62492,0.01875
2929.56475,0.01885
2927.50458,0.01898
2925.44441,0.01894
2923.38423,0.01883
2921.32406,0.01865
2919.26389,0.01855
2917.20372,0.01854
2915.14355,0.01845
2913.08337,0.01825
2911.02320,0.01799
2908.96303,0.01778
2906.90286,0.01767
2904.84268,0.01749
2902.78251,0.01729
2900.72234,0.01717
2898.66217,0.01704
2896.60200,0.01695
2894.54182,0.01701
2892.48165,0.01711
2890.42148,0.01702
2888.36131,0.01692
2886.30114,0.01696
2884.24096,0.01686
2882.18079,0.01658
2880.12062,0.01639
2878.06045,0.01628
2876.00028,0.01612
2873.94010,0.01598
2871.87993,0.01590
2869.81976,0.01577
2867.75959,0.01556
2865.69941,0.01543
2863.63924,0.01539
2861.57907,0.01536
2859.51890,0.01540
2857.45873,0.01544
2855.39855,0.01532
2853.33838,0.01518
2851.27821,0.01504
2849.21804,0.01475
2847.15787,0.01443
2845.09769,0.01426
2843.03752,0.01424
2840.97735,0.01429
2838.91718,0.01436
2836.85700,0.01427
2834.79683,0.01402
2832.73666,0.01388
2830.67649,0.01374
2828.61632,0.01360
2826.55614,0.01358
2824.49597,0.01348
2822.43580,0.01328
2820.37563,0.01313
2818.31546,0.01304
2816.25528,0.01291
2814.19511,0.01272
2812.13494,0.01270
2810.07477,0.01288
2808.01460,0.01309
2805.95442,0.01311
2803.89425,0.01293
2801.83408,0.01284
2799.77391,0.01299
2797.71373,0.01310
2795.65356,0.01286
2793.59339,0.01247
2791.53322,0.01230
2789.47305,0.01229
2787.41287,0.01224
2785.35270,0.01213
2783.29253,0.01198
2781.23236,0.01190
2779.17219,0.01181
2777.11201,0.01161
2775.05184,0.01140
2772.99167,0.01134
2770.93150,0.01140
2768.87133,0.01147
2766.81115,0.01144
2764.75098,0.01125
2762.69081,0.01111
2760.63064,0.01122
2758.57046,0.01149
2756.51029,0.01174
2754.45012,0.01181
2752.38995,0.01165
2750.32978,0.01138
2748.26960,0.01130
2746.20943,0.01142
2744.14926,0.01141
2742.08909,0.01112
2740.02892,0.01081
2737.96874,0.01077
2735.90857,0.01081
2733.84840,0.01071
2731.78823,0.01068
2729.72805,0.01071
2727.66788,0.01067
2725.60771,0.01057
2723.54754,0.01037
2721.48737,0.01014
2719.42719,0.01015
2717.36702,0.01029
2715.30685,0.01027
2713.24668,0.01023
2711.18651,0.01021
2709.12633,0.01015
2707.06616,0.01016
2705.00599,0.01013
2702.94582,0.01000
2700.88565,0.01003
2698.82547,0.01013
2696.76530,0.01008
2694.70513,0.00998
2692.64496,0.00987
2690.58478,0.00968
2688.52461,0.00943
2686.46444,0.00926
2684.40427,0.00931
2682.34410,0.00949
2680.28392,0.00961
2678.22375,0.00951
2676.16358,0.00926
2674.10341,0.00902
2672.04324,0.00891
2669.98306,0.00906
2667.92289,0.00931
2665.86272,0.00941
2663.80255,0.00945
2661.74238,0.00939
2659.68220,0.00922
2657.62203,0.00922
2655.56186,0.00927
2653.50169,0.00908
2651.44151,0.00896
2649.38134,0.00892
2647.32117,0.00870
2645.26100,0.00854
2643.20083,0.00872
2641.14065,0.00892
2639.08048,0.00897
2637.02031,0.00890
2634.96014,0.00864
2632.89997,0.00836
2630.83979,0.00830
2628.77962,0.00839
2626.71945,0.00836
2624.65928,0.00824
2622.59910,0.00820
2620.53893,0.00818
2618.47876,0.00822
2616.41859,0.00839
2614.35842,0.00857
2612.29824,0.00864
2610.23807,0.00854
2608.17790,0.00827
2606.11773,0.00782
2604.05756,0.00740
2601.99738,0.00731
2599.93721,0.00749
2597.87704,0.00768
2595.81687,0.00772
2593.75670,0.00770
2591.69652,0.00775
2589.63635,0.00778
2587.57618,0.00764
2585.51601,0.00734
2583.45583,0.00719
2581.39566,0.00732
2579.33549,0.00736
2577.27532,0.00719
2575.21515,0.00702
2573.15497,0.00702
2571.09480,0.00723
2569.03463,0.00757
2566.97446,0.00799
2564.91429,0.00817
2562.85411,0.00793
2560.79394,0.00757
2558.73377,0.00721
2556.67360,0.00684
2554.61342,0.00661
2552.55325,0.00669
2550.49308,0.00697
2548.43291,0.00729
2546.37274,0.00757
2544.31256,0.00748
2542.25239,0.00701
2540.19222,0.00659
2538.13205,0.00652
2536.07188,0.00671
2534.01170,0.00688
2531.95153,0.00696
2529.89136,0.00682
2527.83119,0.00659
2525.77102,0.00679
2523.71084,0.00740
2521.65067,0.00763
2519.59050,0.00725
2517.53033,0.00701
2515.47015,0.00724
2513.40998,0.00753
2511.34981,0.00760
2509.28964,0.00730
2507.22947,0.00683
2505.16929,0.00663
2503.10912,0.00677
2501.04895,0.00704
2498.98878,0.00723
2496.92861,0.00736
2494.86843,0.00748
2492.80826,0.00740
2490.74809,0.00732
2488.68792,0.00743
2486.62775,0.00749
2484.56757,0.00730
2482.50740,0.00713
2480.44723,0.00711
2478.38706,0.00712
2476.32688,0.00719
2474.26671,0.00725
2472.20654,0.00722
2470.14637,0.00735
2468.08620,0.00773
2466.02602,0.00793
2463.96585,0.00793
2461.90568,0.00789
2459.84551,0.00794
2457.78534,0.00803
2455.72516,0.00781
2453.66499,0.00739
2451.60482,0.00717
2449.54465,0.00712
2447.48447,0.00712
2445.42430,0.00713
2443.36413,0.00719
2441.30396,0.00755
2439.24379,0.00804
2437.18361,0.00806
2435.12344,0.00768
2433.06327,0.00733
2431.00310,0.00706
2428.94293,0.00695
2426.88275,0.00703
2424.82258,0.00723
2422.76241,0.00759
2420.70224,0.00775
2418.64207,0.00752
2416.58189,0.00726
2414.52172,0.00707
2412.46155,0.00699
2410.40138,0.00727
2408.34120,0.00768
2406.28103,0.00777
2404.22086,0.00765
2402.16069,0.00744
2400.10052,0.00713
2398.04034,0.00655
2395.98017,0.00678
2393.92000,0.00715
2391.85983,0.00724
2389.79966,0.00751
2387.73948,0.00804
2385.67931,0.00833
2383.61914,0.00831
2381.55897,0.00832
2379.49880,0.00828
2377.43862,0.00797
2375.37845,0.00742
2373.31828,0.00746
2371.25811,0.00824
2369.19793,0.00890
2367.13776,0.00980
2365.07759,0.01078
2363.01742,0.01021
2360.95725,0.00968
2358.89707,0.00865
2356.83690,0.00778
2354.77673,0.00815
2352.71656,0.00979
2350.65639,0.01245
2348.59621,0.01322
2346.53604,0.01008
2344.47587,0.00852
2342.41570,0.00819
2340.35552,0.00789
2338.29535,0.00804
2336.23518,0.00858
2334.17501,0.00948
2332.11484,0.00995
2330.05466,0.01025
2327.99449,0.01087
2325.93432,0.01186
2323.87415,0.01130
2321.81398,0.01002
2319.75380,0.00945
2317.69363,0.00989
2315.63346,0.00975
2313.57329,0.00933
2311.51312,0.00915
2309.45294,0.00894
2307.39277,0.00889
2305.33260,0.00925
2303.27243,0.00963
2301.21225,0.00954
2299.15208,0.00931
2297.09191,0.00905
2295.03174,0.00872
2292.97157,0.00847
2290.91139,0.00841
2288.85122,0.00847
2286.79105,0.00842
2284.73088,0.00802
2282.67071,0.00738
2280.61053,0.00692
2278.55036,0.00690
2276.49019,0.00722
2274.43002,0.00762
2272.36984,0.00756
2270.30967,0.00690
2268.24950,0.00628
2266.18933,0.00620
2264.12916,0.00667
2262.06898,0.00721
2260.00881,0.00714
2257.94864,0.00690
2255.88847,0.00746
2253.82830,0.00825
2251.76812,0.00807
2249.70795,0.00725
2247.64778,0.00706
2245.58761,0.00720
2243.52744,0.00711
2241.46726,0.00671
2239.40709,0.00641
2237.34692,0.00641
2235.28675,0.00658
2233.22657,0.00672
2231.16640,0.00683
2229.10623,0.00657
2227.04606,0.00605
2224.98589,0.00613
2222.92571,0.00651
2220.86554,0.00626
2218.80537,0.00531
2216.74520,0.00474
2214.68503,0.00570
2212.62485,0.00686
2210.56468,0.00616
2208.50451,0.00513
2206.44434,0.00562
2204.38417,0.00631
2202.32399,0.00635
2200.26382,0.00701
2198.20365,0.00824
2196.14348,0.00805
2194.08330,0.00611
2192.02313,0.00480
2189.96296,0.00493
2187.90279,0.00545
2185.84262,0.00600
2183.78244,0.00596
2181.72227,0.00565
2179.66210,0.00598
2177.60193,0.00650
2175.54176,0.00696
2173.48158,0.00698
2171.42141,0.00655
2169.36124,0.00608
2167.30107,0.00487
2165.24089,0.00426
2163.18072,0.00513
2161.12055,0.00406
2159.06038,0.00113
2157.00021,0.00000
2154.94003,0.00070
2152.87986,0.00172
2150.81969,0.00241
2148.75952,0.00257
2146.69935,0.00302
2144.63917,0.00449
2142.57900,0.00483
2140.51883,0.00327
2138.45866,0.00200
2136.39849,0.00191
2134.33831,0.00292
2132.27814,0.00419
2130.21797,0.00467
2128.15780,0.00458
2126.09762,0.00453
2124.03745,0.00458
2121.97728,0.00457
2119.91711,0.00458
2117.85694,0.00490
2115.79676,0.00536
2113.73659,0.00573
2111.67642,0.00612
2109.61625,0.00638
2107.55608,0.00632
2105.49590,0.00574
2103.43573,0.00505
2101.37556,0.00538
2099.31539,0.00614
2097.25521,0.00565
2095.19504,0.00440
2093.13487,0.00431
2091.07470,0.00512
2089.01453,0.00548
2086.95435,0.00523
2084.89418,0.00513
2082.83401,0.00506
2080.77384,0.00462
2078.71367,0.00431
2076.65349,0.00414
2074.59332,0.00415
2072.53315,0.00473
2070.47298,0.00526
2068.41281,0.00513
2066.35263,0.00459
2064.29246,0.00416
2062.23229,0.00423
2060.17212,0.00424
2058.11194,0.00407
2056.05177,0.00429
2053.99160,0.00459
2051.93143,0.00469
2049.87126,0.00481
2047.81108,0.00459
2045.75091,0.00410
2043.69074,0.00419
2041.63057,0.00453
2039.57040,0.00453
2037.51022,0.00419
2035.45005,0.00314
2033.38988,0.00230
2031.32971,0.00258
2029.26954,0.00249
2027.20936,0.00136
2025.14919,0.00093
2023.08902,0.00200
2021.02885,0.00296
2018.96867,0.00248
2016.90850,0.00170
2014.84833,0.00203
2012.78816,0.00304
2010.72799,0.00346
2008.66781,0.00261
2006.60764,0.00171
2004.54747,0.00233
2002.48730,0.00379
2000.42713,0.00453
1998.36695,0.00419
1996.30678,0.00351
1994.24661,0.00352
1992.18644,0.00404
1990.12626,0.00365
1988.06609,0.00230
1986.00592,0.00167
1983.94575,0.00234
1981.88558,0.00278
1979.82540,0.00185
1977.76523,0.00084
1975.70506,0.00095
1973.64489,0.00107
1971.58472,0.00035
1969.52454,0.00006
1967.46437,0.00150
1965.40420,0.00357
1963.34403,0.00451
1961.28386,0.00413
1959.22368,0.00344
1957.16351,0.00298
1955.10334,0.00234
1953.04317,0.00146
1950.98299,0.00081
1948.92282,0.00102
1946.86265,0.00171
1944.80248,0.00183
1942.74231,0.00153
1940.68213,0.00174
1938.62196,0.00206
1936.56179,0.00159
1934.50162,0.00104
1932.44145,0.00141
1930.38127,0.00215
1928.32110,0.00252
1926.26093,0.00266
1924.20076,0.00273
1922.14059,0.00269
1920.08041,0.00241
1918.02024,0.00191
1915.96007,0.00155
1913.89990,0.00153
1911.83972,0.00161
1909.77955,0.00172
1907.71938,0.00199
1905.65921,0.00221
1903.59904,0.00236
1901.53886,0.00279
1899.47869,0.00323
1897.41852,0.00310
1895.35835,0.00235
1893.29818,0.00160
1891.23800,0.00139
1889.17783,0.00175
1887.11766,0.00217
1885.05749,0.00221
1882.99731,0.00208
1880.93714,0.00216
1878.87697,0.00254
1876.81680,0.00294
1874.75663,0.00311
1872.69645,0.00301
1870.63628,0.00269
1868.57611,0.00223
1866.51594,0.00202
1864.45577,0.00201
1862.39559,0.00205
1860.33542,0.00227
1858.27525,0.00252
1856.21508,0.00251
1854.15491,0.00229
1852.09473,0.00204
1850.03456,0.00180
1847.97439,0.00168
1845.91422,0.00189
1843.85404,0.00233
1841.79387,0.00253
1839.73370,0.00247
1837.67353,0.00242
1835.61336,0.00241
1833.55318,0.00228
1831.49301,0.00211
1829.43284,0.00224
1827.37267,0.00262
1825.31250,0.00280
1823.25232,0.00270
1821.19215,0.00254
1819.13198,0.00248
1817.07181,0.00249
1815.01163,0.00238
1812.95146,0.00212
1810.89129,0.00201
1808.83112,0.00216
1806.77095,0.00232
1804.71077,0.00242
1802.65060,0.00260
1800.59043,0.00277
1798.53026,0.00270
1796.47009,0.00250
1794.40991,0.00243
1792.34974,0.00258
1790.28957,0.00279
1788.22940,0.00292
1786.16923,0.00301
1784.10905,0.00300
1782.04888,0.00283
1779.98871,0.00268
1777.92854,0.00261
1775.86836,0.00250
1773.80819,0.00240
1771.74802,0.00250
1769.68785,0.00285
1767.62768,0.00317
1765.56750,0.00331
1763.50733,0.00331
1761.44716,0.00334
1759.38699,0.00356
1757.32682,0.00397
1755.26664,0.00439
1753.20647,0.00449
1751.14630,0.00437
1749.08613,0.00439
1747.02596,0.00457
1744.96578,0.00477
1742.90561,0.00492
1740.84544,0.00491
1738.78527,0.00481
1736.72509,0.00486
1734.66492,0.00496
1732.60475,0.00500
1730.54458,0.00521
1728.48441,0.00555
1726.42423,0.00570
1724.36406,0.00567
1722.30389,0.00559
1720.24372,0.00531
1718.18355,0.00482
1716.12337,0.00488
1714.06320,0.00565
1712.00303,0.00638
1709.94286,0.00668
1707.88268,0.00666
1705.82251,0.00661
1703.76234,0.00665
1701.70217,0.00680
1699.64200,0.00726
1697.58182,0.00799
1695.52165,0.00876
1693.46148,0.00935
1691.40131,0.00966
1689.34114,0.00975
1687.28096,0.00984
1685.22079,0.01004
1683.16062,0.01057
1681.10045,0.01130
1679.04028,0.01201
1676.98010,0.01257
1674.91993,0.01301
1672.85976,0.01348
1670.79959,0.01405
1668.73941,0.01470
1666.67924,0.01517
1664.61907,0.01529
1662.55890,0.01542
1660.49873,0.01594
1658.43855,0.01646
1656.37838,0.01644
1654.31821,0.01611
1652.25804,0.01627
1650.19787,0.01655
1648.13769,0.01650
1646.07752,0.01674
1644.01735,0.01739
1641.95718,0.01767
1639.89701,0.01743
1637.83683,0.01699
1635.77666,0.01676
1633.71649,0.01687
1631.65632,0.01691
1629.59614,0.01655
1627.53597,0.01606
1625.47580,0.01579
1623.41563,0.01559
1621.35546,0.01533
1619.29528,0.01490
1617.23511,0.01433
1615.17494,0.01408
1613.11477,0.01414
1611.05460,0.01404
1608.99442,0.01381
1606.93425,0.01364
1604.87408,0.01344
1602.81391,0.01313
1600.75373,0.01289
1598.69356,0.01276
1596.63339,0.01262
1594.57322,0.01236
1592.51305,0.01196
1590.45287,0.01160
1588.39270,0.01137
1586.33253,0.01122
1584.27236,0.01113
1582.21219,0.01104
1580.15201,0.01083
1578.09184,0.01041
1576.03167,0.01003
1573.97150,0.00994
1571.91133,0.00978
1569.85115,0.00940
1567.79098,0.00918
1565.73081,0.00925
1563.67064,0.00940
1561.61046,0.00930
1559.55029,0.00872
1557.49012,0.00834
1555.42995,0.00859
1553.36978,0.00889
1551.30960,0.00899
1549.24943,0.00898
1547.18926,0.00881
1545.12909,0.00823
1543.06892,0.00728
1541.00874,0.00666
1538.94857,0.00694
1536.88840,0.00736
1534.82823,0.00732
1532.76805,0.00700
1530.70788,0.00676
1528.64771,0.00655
1526.58754,0.00631
1524.52737,0.00615
1522.46719,0.00608
1520.40702,0.00602
1518.34685,0.00583
1516.28668,0.00572
1514.22651,0.00582
1512.16633,0.00575
1510.10616,0.00522
1508.04599,0.00447
1505.98582,0.00424
1503.92565,0.00460
1501.86547,0.00489
1499.80530,0.00478
1497.74513,0.00445
1495.68496,0.00418
1493.62478,0.00395
1491.56461,0.00356
1489.50444,0.00327
1487.44427,0.00347
1485.38410,0.00384
1483.32392,0.00401
1481.26375,0.00402
1479.20358,0.00393
1477.14341,0.00367
1475.08324,0.00331
1473.02306,0.00336
1470.96289,0.00388
1468.90272,0.00421
1466.84255,0.00418
1464.78238,0.00421
1462.72220,0.00441
1460.66203,0.00426
1458.60186,0.00370
1456.54169,0.00366
1454.48151,0.00429
1452.42134,0.00470
1450.36117,0.00473
1448.30100,0.00470
1446.24083,0.00479
1444.18065,0.00496
1442.12048,0.00509
1440.06031,0.00501
1438.00014,0.00476
1435.93997,0.00464
1433.87979,0.00475
1431.81962,0.00490
1429.75945,0.00503
1427.69928,0.00511
1425.63910,0.00509
1423.57893,0.00509
1421.51876,0.00525
1419.45859,0.00551
1417.39842,0.00591
1415.33824,0.00632
1413.27807,0.00656
1411.21790,0.00656
1409.15773,0.00640
1407.09756,0.00620
1405.03738,0.00608
1402.97721,0.00599
1400.91704,0.00578
1398.85687,0.00540
1396.79670,0.00501
1394.73652,0.00487
1392.67635,0.00504
1390.61618,0.00523
1388.55601,0.00522
1386.49583,0.00509
1384.43566,0.00499
1382.37549,0.00492
1380.31532,0.00482
1378.25515,0.00460
1376.19497,0.00428
1374.13480,0.00408
1372.07463,0.00409
1370.01446,0.00416
1367.95429,0.00420
1365.89411,0.00419
1363.83394,0.00402
1361.77377,0.00377
1359.71360,0.00360
1357.65343,0.00351
1355.59325,0.00348
1353.53308,0.00349
1351.47291,0.00342
1349.41274,0.00329
1347.35256,0.00314
1345.29239,0.00297
1343.23222,0.00280
1341.17205,0.00266
1339.11188,0.00267
1337.05170,0.00291
1334.99153,0.00318
1332.93136,0.00323
1330.87119,0.00309
1328.81102,0.00304
1326.75084,0.00317
1324.69067,0.00325
1322.63050,0.00316
1320.57033,0.00300
1318.51015,0.00293
1316.44998,0.00296
1314.38981,0.00293
1312.32964,0.00284
1310.26947,0.00279
1308.20929,0.00277
1306.14912,0.00274
1304.08895,0.00268
1302.02878,0.00264
1299.96861,0.00262
1297.90843,0.00263
1295.84826,0.00267
1293.78809,0.00279
1291.72792,0.00292
1289.66775,0.00291
1287.60757,0.00277
1285.54740,0.00273
1283.48723,0.00280
1281.42706,0.00294
1279.36688,0.00309
1277.30671,0.00310
1275.24654,0.00304
1273.18637,0.00305
1271.12620,0.00317
1269.06602,0.00335
1267.00585,0.00338
1264.94568,0.00323
1262.88551,0.00313
1260.82534,0.00327
1258.76516,0.00355
1256.70499,0.00367
1254.64482,0.00361
1252.58465,0.00355
1250.52447,0.00350
1248.46430,0.00341
1246.40413,0.00338
1244.34396,0.00344
1242.28379,0.00347
1240.22361,0.00342
1238.16344,0.00325
1236.10327,0.00300
1234.04310,0.00279
1231.98293,0.00262
1229.92275,0.00238
1227.86258,0.00219
1225.80241,0.00209
1223.74224,0.00197
1221.68207,0.00177
1219.62189,0.00157
1217.56172,0.00139
1215.50155,0.00121
1213.44138,0.00104
1211.38120,0.00085
1209.32103,0.00059
1207.26086,0.00040
1205.20069,0.00039
1203.14052,0.00045
1201.08034,0.00039
1199.02017,0.00022
1196.96000,0.00017
1194.89983,0.00024
1192.83966,0.00020
1190.77948,0.00016
1188.71931,0.00017
1186.65914,0.00007
1184.59897,0.00000
1182.53880,0.00017
1180.47862,0.00042
1178.41845,0.00059
1176.35828,0.00073
1174.29811,0.00087
1172.23793,0.00120
1170.17776,0.00173
1168.11759,0.00211
1166.05742,0.00222
1163.99725,0.00239
1161.93707,0.00281
1159.87690,0.00322
1157.81673,0.00342
1155.75656,0.00365
1153.69639,0.00409
1151.63621,0.00465
1149.57604,0.00503
1147.51587,0.00528
1145.45570,0.00563
1143.39552,0.00601
1141.33535,0.00637
1139.27518,0.00679
1137.21501,0.00727
1135.15484,0.00774
1133.09466,0.00826
1131.03449,0.00886
1128.97432,0.00946
1126.91415,0.01019
1124.85398,0.01113
1122.79380,0.01219
1120.73363,0.01321
1118.67346,0.01421
1116.61329,0.01527
1114.55312,0.01623
1112.49294,0.01699
1110.43277,0.01772
1108.37260,0.01856
1106.31243,0.01945
1104.25225,0.02038
1102.19208,0.02130
1100.13191,0.02207
1098.07174,0.02285
1096.01157,0.02373
1093.95139,0.02451
1091.89122,0.02506
1089.83105,0.02547
1087.77088,0.02603
1085.71071,0.02681
1083.65053,0.02754
1081.59036,0.02803
1079.53019,0.02828
1077.47002,0.02846
1075.40985,0.02874
1073.34967,0.02915
1071.28950,0.02955
1069.22933,0.02983
1067.16916,0.02980
1065.10898,0.02955
1063.04881,0.02943
1060.98864,0.02947
1058.92847,0.02929
1056.86830,0.02880
1054.80812,0.02829
1052.74795,0.02781
1050.68778,0.02726
1048.62761,0.02651
1046.56744,0.02561
1044.50726,0.02468
1042.44709,0.02377
1040.38692,0.02273
1038.32675,0.02157
1036.26657,0.02041
1034.20640,0.01926
1032.14623,0.01822
1030.08606,0.01734
1028.02589,0.01652
1025.96571,0.01580
1023.90554,0.01509
1021.84537,0.01417
1019.78520,0.01334
1017.72503,0.01287
1015.66485,0.01253
1013.60468,0.01230
1011.54451,0.01230
1009.48434,0.01236
1007.42417,0.01228
1005.36399,0.01225
1003.30382,0.01247
1001.24365,0.01299
999.18348,0.01373
997.12330,0.01448
995.06313,0.01511
993.00296,0.01550
990.94279,0.01581
988.88262,0.01633
986.82244,0.01697
984.76227,0.01739
982.70210,0.01749
980.64193,0.01729
978.58176,0.01678
976.52158,0.01622
974.46141,0.01567
972.40124,0.01498
970.34107,0.01420
968.28089,0.01337
966.22072,0.01245
964.16055,0.01139
962.10038,0.01036
960.04021,0.00957
957.98003,0.00888
955.91986,0.00791
953.85969,0.00670
951.79952,0.00587
949.73935,0.00548
947.67917,0.00503
945.61900,0.00448
943.55883,0.00401
941.49866,0.00354
939.43849,0.00303
937.37831,0.00254
935.31814,0.00222
933.25797,0.00215
931.19780,0.00203
929.13762,0.00162
927.07745,0.00121
925.01728,0.00094
922.95711,0.00071
920.89694,0.00072
918.83676,0.00094
916.77659,0.00100
914.71642,0.00096
912.65625,0.00099
910.59608,0.00086
908.53590,0.00041
906.47573,0.00002
904.41556,0.00000
902.35539,0.00022
900.29522,0.00062
898.23504,0.00094
896.17487,0.00101
894.11470,0.00112
892.05453,0.00139
889.99435,0.00150
887.93418,0.00133
885.87401,0.00118
883.81384,0.00140
881.75367,0.00190
879.69349,0.00228
877.63332,0.00258
875.57315,0.00315
873.51298,0.00362
871.45281,0.00372
869.39263,0.00376
867.33246,0.00386
865.27229,0.00401
863.21212,0.00442
861.15194,0.00474
859.09177,0.00469
857.03160,0.00486
854.97143,0.00534
852.91126,0.00556
850.85108,0.00545
848.79091,0.00516
846.73074,0.00481
844.67057,0.00462
842.61040,0.00457
840.55022,0.00425
838.49005,0.00362
836.42988,0.00319
834.36971,0.00298
832.30954,0.00264
830.24936,0.00235
828.18919,0.00255
826.12902,0.00305
824.06885,0.00311
822.00867,0.00276
819.94850,0.00247
817.88833,0.00200
815.82816,0.00161
813.76799,0.00167
811.70781,0.00169
809.64764,0.00147
807.58747,0.00136
805.52730,0.00129
803.46713,0.00098
801.40695,0.00082
799.34678,0.00120
797.28661,0.00160
795.22644,0.00143
793.16627,0.00095
791.10609,0.00070
789.04592,0.00046
786.98575,0.00012
784.92558,0.00028
782.86540,0.00092
780.80523,0.00133
778.74506,0.00120
776.68489,0.00082
774.62472,0.00049
772.56454,0.00029
770.50437,0.00036
768.44420,0.00040
766.38403,0.00023
764.32386,0.00020
762.26368,0.00008
760.20351,-0.00006
758.14334,0.00040
756.08317,0.00109
754.02299,0.00145
751.96282,0.00158
749.90265,0.00135
747.84248,0.00112
745.78231,0.00120
743.72213,0.00108
741.66196,0.00048
739.60179,0.00000
737.54162,0.00058
735.48145,0.00139
733.42127,0.00116
731.36110,0.00054
729.30093,0.00014
727.24076,0.00007
725.18059,0.00035
723.12041,0.00083
721.06024,0.00016
719.00007,0.00001
716.93990,0.00043
714.87972,0.00077
712.81955,0.00088
710.75938,0.00069
708.69921,0.00034
706.63904,0.00025
704.57886,0.00063
702.51869,0.00122
700.45852,0.00163
698.39835,0.00183
696.33818,0.00223
694.27800,0.00288
692.21783,0.00314
690.15766,0.00260
688.09749,0.00179
686.03731,0.00135
683.97714,0.00140
681.91697,0.00226
679.85680,0.00341
677.79663,0.00348
675.73645,0.00290
673.67628,0.00332
671.61611,0.00448
669.55594,0.00213
667.49577,0.00013
665.43559,0.00552
663.37542,0.00524
661.31525,0.00386
659.25508,0.00354
657.19491,0.00347
655.13473,0.00312
653.07456,0.00273
651.01439,0.00251
648.95422,0.00281
646.89404,0.00389
644.83387,0.00441
642.77370,0.00396
640.71353,0.00321
638.65336,0.00240
636.59318,0.00170
634.53301,0.00134
632.47284,0.00117
630.41267,0.00100
628.35250,0.00088
626.29232,0.00117
624.23215,0.00172
622.17198,0.00140
620.11181,0.00088
618.05164,0.00205
615.99146,0.00322
613.93129,0.00185
611.87112,0.00000
609.81095,-0.00064
607.75077,-0.00001
605.69060,0.00027
603.63043,0.00041
601.57026,0.00070
599.51009,0.00000
