3996.73391,-0.00129
3994.67373,-0.00121
3992.61356,-0.00100
3990.55339,-0.00066
3988.49322,-0.00042
3986.43305,-0.00039
3984.37287,-0.00040
3982.31270,-0.00028
3980.25253,-0.00021
3978.19236,-0.00031
3976.13219,-0.00049
3974.07201,-0.00059
3972.01184,-0.00053
3969.95167,-0.00033
3967.89150,-0.00003
3965.83133,0.00021
3963.77115,0.00023
3961.71098,0.00014
3959.65081,0.00016
3957.59064,0.00030
3955.53046,0.00051
3953.47029,0.00074
3951.41012,0.00073
3949.34995,0.00030
3947.28978,0.00000
3945.22960,0.00023
3943.16943,0.00050
3941.10926,0.00062
3939.04909,0.00078
3936.98892,0.00077
3934.92874,0.00044
3932.86857,0.00018
3930.80840,0.00050
3928.74823,0.00112
3926.68805,0.00146
3924.62788,0.00127
3922.56771,0.00059
3920.50754,-0.00004
3918.44737,-0.00010
3916.38719,0.00057
3914.32702,0.00144
3912.26685,0.00188
3910.20668,0.00200
3908.14651,0.00202
3906.08633,0.00174
3904.02616,0.00090
3901.96599,0.00038
3899.90582,0.00103
3897.84565,0.00179
3895.78547,0.00169
3893.72530,0.00110
3891.66513,0.00075
3889.60496,0.00078
3887.54478,0.00087
3885.48461,0.00103
3883.42444,0.00108
3881.36427,0.00101
3879.30410,0.00114
3877.24392,0.00128
3875.18375,0.00112
3873.12358,0.00073
3871.06341,0.00043
3869.00324,0.00072
3866.94306,0.00119
3864.88289,0.00129
3862.82272,0.00118
3860.76255,0.00106
3858.70237,0.00069
3856.64220,0.00000
3854.58203,0.00021
3852.52186,0.00190
3850.46169,0.00309
3848.40151,0.00263
3846.34134,0.00190
3844.28117,0.00173
3842.22100,0.00178
3840.16083,0.00173
3838.10065,0.00170
3836.04048,0.00198
3833.98031,0.00238
3831.92014,0.00274
3829.85997,0.00310
3827.79979,0.00319
3825.73962,0.00292
3823.67945,0.00264
3821.61928,0.00273
3819.55910,0.00272
3817.49893,0.00268
3815.43876,0.00315
3813.37859,0.00366
3811.31842,0.00354
3809.25824,0.00329
3807.19807,0.00323
3805.13790,0.00319
3803.07773,0.00335
3801.01756,0.00377
3798.95738,0.00403
3796.89721,0.00419
3794.83704,0.00466
3792.77687,0.00519
3790.71670,0.00544
3788.65652,0.00557
3786.59635,0.00578
3784.53618,0.00595
3782.47601,0.00608
3780.41583,0.00631
3778.35566,0.00643
3776.29549,0.00629
3774.23532,0.00604
3772.17515,0.00576
3770.11497,0.00541
3768.05480,0.00500
3765.99463,0.00467
3763.93446,0.00437
3761.87429,0.00398
3759.81411,0.00356
3757.75394,0.00307
3755.69377,0.00265
3753.63360,0.00238
3751.57342,0.00198
3749.51325,0.00108
3747.45308,0.00024
3745.39291,0.00000
3743.33274,0.00110
3741.27256,0.00213
3739.21239,0.00203
3737.15222,0.00191
3735.09205,0.00212
3733.03188,0.00242
3730.97170,0.00288
3728.91153,0.00329
3726.85136,0.00331
3724.79119,0.00313
3722.73102,0.00328
3720.67084,0.00382
3718.61067,0.00400
3716.55050,0.00367
3714.49033,0.00355
3712.43015,0.00423
3710.36998,0.00508
3708.30981,0.00550
3706.24964,0.00561
3704.18947,0.00550
3702.12929,0.00541
3700.06912,0.00555
3698.00895,0.00580
3695.94878,0.00603
3693.88861,0.00620
3691.82843,0.00637
3689.76826,0.00640
3687.70809,0.00638
3685.64792,0.00642
3683.58775,0.00625
3681.52757,0.00591
3679.46740,0.00557
3677.40723,0.00545
3675.34706,0.00564
3673.28688,0.00566
3671.22671,0.00556
3669.16654,0.00592
3667.10637,0.00632
3665.04620,0.00638
3662.98602,0.00641
3660.92585,0.00649
3658.86568,0.00649
3656.80551,0.00652
3654.74534,0.00656
3652.68516,0.00664
3650.62499,0.00694
3648.56482,0.00726
3646.50465,0.00777
3644.44447,0.00781
3642.38430,0.00762
3640.32413,0.00780
3638.26396,0.00821
3636.20379,0.00847
3634.14361,0.00851
3632.08344,0.00850
3630.02327,0.00879
3627.96310,0.00940
3625.90293,0.00975
3623.84275,0.00974
3621.78258,0.00981
3619.72241,0.01002
3617.66224,0.01009
3615.60207,0.00990
3613.54189,0.00966
3611.48172,0.00961
3609.42155,0.01003
3607.36138,0.01072
3605.30120,0.01137
3603.24103,0.01200
3601.18086,0.01257
3599.12069,0.01298
3597.06052,0.01328
3595.00034,0.01358
3592.94017,0.01386
3590.88000,0.01413
3588.81983,0.01426
3586.75966,0.01438
3584.69948,0.01477
3582.63931,0.01524
3580.57914,0.01566
3578.51897,0.01609
3576.45879,0.01648
3574.39862,0.01667
3572.33845,0.01672
3570.27828,0.01672
3568.21811,0.01659
3566.15793,0.01668
3564.09776,0.01731
3562.03759,0.01798
3559.97742,0.01848
3557.91725,0.01888
3555.85707,0.01911
3553.79690,0.01926
3551.73673,0.01942
3549.67656,0.01943
3547.61639,0.01917
3545.55621,0.01904
3543.49604,0.01945
3541.43587,0.02019
3539.37570,0.02092
3537.31552,0.02149
3535.25535,0.02189
3533.19518,0.02222
3531.13501,0.02231
3529.07484,0.02203
3527.01466,0.02173
3524.95449,0.02190
3522.89432,0.02252
3520.83415,0.02322
3518.77398,0.02374
3516.71380,0.02412
3514.65363,0.02439
3512.59346,0.02448
3510.53329,0.02445
3508.47312,0.02459
3506.41294,0.02487
3504.35277,0.02496
3502.29260,0.02489
3500.23243,0.02526
3498.17225,0.02603
3496.11208,0.02652
3494.05191,0.02665
3491.99174,0.02686
3489.93157,0.02722
3487.87139,0.02741
3485.81122,0.02739
3483.75105,0.02752
3481.69088,0.02782
3479.63071,0.02815
3477.57053,0.02853
3475.51036,0.02887
3473.45019,0.02907
3471.39002,0.02927
3469.32984,0.02962
3467.26967,0.03000
3465.20950,0.03020
3463.14933,0.03025
3461.08916,0.03032
3459.02898,0.03054
3456.96881,0.03083
3454.90864,0.03112
3452.84847,0.03129
3450.78830,0.03136
3448.72812,0.03142
3446.66795,0.03141
3444.60778,0.03137
3442.54761,0.03142
3440.48744,0.03157
3438.42726,0.03183
3436.36709,0.03201
3434.30692,0.03216
3432.24675,0.03242
3430.18657,0.03267
3428.12640,0.03285
3426.06623,0.03301
3424.00606,0.03319
3421.94589,0.03343
3419.88571,0.03362
3417.82554,0.03387
3415.76537,0.03417
3413.70520,0.03441
3411.64503,0.03451
3409.58485,0.03447
3407.52468,0.03451
3405.46451,0.03466
3403.40434,0.03474
3401.34416,0.03478
3399.28399,0.03392
3397.22382,0.03391
3395.16365,0.03402
3393.10348,0.03414
3391.04330,0.03451
3388.98313,0.03505
3386.92296,0.03540
3384.86279,0.03544
3382.80262,0.03544
3380.74244,0.03565
3378.68227,0.03601
3376.62210,0.03636
3374.56193,0.03671
3372.50176,0.03687
3370.44158,0.03673
3368.38141,0.03647
3366.32124,0.03627
3364.26107,0.03629
3362.20089,0.03653
3360.14072,0.03678
3358.08055,0.03696
3356.02038,0.03707
3353.96021,0.03717
3351.90003,0.03727
3349.83986,0.03734
3347.77969,0.03745
3345.71952,0.03759
3343.65935,0.03766
3341.59917,0.03766
3339.53900,0.03754
3337.47883,0.03744
3335.41866,0.03752
3333.35849,0.03777
3331.29831,0.03818
3329.23814,0.03855
3327.17797,0.03859
3325.11780,0.03840
3323.05762,0.03833
3320.99745,0.03845
3318.93728,0.03852
3316.87711,0.03844
3314.81694,0.03823
3312.75676,0.03794
3310.69659,0.03779
3308.63642,0.03788
3306.57625,0.03809
3304.51608,0.03840
3302.45590,0.03875
3300.39573,0.03892
3298.33556,0.03888
3296.27539,0.03881
3294.21521,0.03870
3292.15504,0.03854
3290.09487,0.03859
3288.03470,0.03890
3285.97453,0.03919
3283.91435,0.03933
3281.85418,0.03938
3279.79401,0.03924
3277.73384,0.03895
3275.67367,0.03876
3273.61349,0.03883
3271.55332,0.03914
3269.49315,0.03954
3267.43298,0.03979
3265.37281,0.03977
3263.31263,0.03963
3261.25246,0.03955
3259.19229,0.03961
3257.13212,0.03963
3255.07194,0.03951
3253.01177,0.03949
3250.95160,0.03973
3248.89143,0.04004
3246.83126,0.04021
3244.77108,0.04019
3242.71091,0.04016
3240.65074,0.04017
3238.59057,0.04013
3236.53040,0.04011
3234.47022,0.04015
3232.41005,0.04027
3230.34988,0.04036
3228.28971,0.04026
3226.22954,0.04017
3224.16936,0.04016
3222.10919,0.04004
3220.04902,0.03990
3217.98885,0.04005
3215.92867,0.04036
3213.86850,0.04044
3211.80833,0.04030
3209.74816,0.04017
3207.68799,0.04016
3205.62781,0.04029
3203.56764,0.04045
3201.50747,0.04045
3199.44730,0.04034
3197.38713,0.04022
3195.32695,0.04011
3193.26678,0.04014
3191.20661,0.04042
3189.14644,0.04060
3187.08626,0.04034
3185.02609,0.03997
3182.96592,0.03992
3180.90575,0.04005
3178.84558,0.04001
3176.78540,0.03995
3174.72523,0.04003
3172.66506,0.04006
3170.60489,0.04000
3168.54472,0.03993
3166.48454,0.03989
3164.42437,0.04001
3162.36420,0.04021
3160.30403,0.04030
3158.24386,0.04024
3156.18368,0.04002
3154.12351,0.03964
3152.06334,0.03944
3150.00317,0.03958
3147.94299,0.03970
3145.88282,0.03961
3143.82265,0.03939
3141.76248,0.03924
3139.70231,0.03930
3137.64213,0.03946
3135.58196,0.03945
3133.52179,0.03920
3131.46162,0.03895
3129.40145,0.03889
3127.34127,0.03888
3125.28110,0.03877
3123.22093,0.03850
3121.16076,0.03823
3119.10058,0.03809
3117.04041,0.03806
3114.98024,0.03805
3112.92007,0.03809
3110.85990,0.03811
3108.79972,0.03802
3106.73955,0.03783
3104.67938,0.03766
3102.61921,0.03757
3100.55904,0.03752
3098.49886,0.03748
3096.43869,0.03741
3094.37852,0.03735
3092.31835,0.03736
3090.25818,0.03736
3088.19800,0.03732
3086.13783,0.03730
3084.07766,0.03716
3082.01749,0.03686
3079.95731,0.03667
3077.89714,0.03672
3075.83697,0.03674
3073.77680,0.03665
3071.71663,0.03656
3069.65645,0.03643
3067.59628,0.03616
3065.53611,0.03593
3063.47594,0.03596
3061.41577,0.03612
3059.35559,0.03611
3057.29542,0.03586
3055.23525,0.03558
3053.17508,0.03547
3051.11491,0.03541
3049.05473,0.03525
3046.99456,0.03508
3044.93439,0.03492
3042.87422,0.03470
3040.81404,0.03450
3038.75387,0.03440
3036.69370,0.03430
3034.63353,0.03416
3032.57336,0.03405
3030.51318,0.03392
3028.45301,0.03370
3026.39284,0.03349
3024.33267,0.03345
3022.27250,0.03353
3020.21232,0.03350
3018.15215,0.03326
3016.09198,0.03281
3014.03181,0.03232
3011.97163,0.03203
3009.91146,0.03202
3007.85129,0.03210
3005.79112,0.03198
3003.73095,0.03177
3001.67077,0.03166
2999.61060,0.03172
2997.55043,0.03159
2995.49026,0.03134
2993.43009,0.03110
2991.36991,0.03102
2989.30974,0.03094
2987.24957,0.03089
2985.18940,0.03096
2983.12923,0.03092
2981.06905,0.03074
2979.00888,0.03061
2976.94871,0.03050
2974.88854,0.03032
2972.82836,0.03018
2970.76819,0.03021
2968.70802,0.03016
2966.64785,0.02997
2964.58768,0.02986
2962.52750,0.02991
2960.46733,0.02998
2958.40716,0.03002
2956.34699,0.03002
2954.28682,0.02992
2952.22664,0.02974
2950.16647,0.02949
2948.10630,0.02920
2946.04613,0.02911
2943.98596,0.02915
2941.92578,0.02900
2939.86561,0.02873
2937.80544,0.02865
2935.74527,0.02881
2933.68509,0.02902
2931.62492,0.02916
2929.56475,0.02919
2927.50458,0.02921
2925.44441,0.02922
2923.38423,0.02927
2921.32406,0.02954
2919.26389,0.02993
2917.20372,0.03007
2915.14355,0.02985
2913.08337,0.02940
2911.02320,0.02881
2908.96303,0.02831
2906.90286,0.02799
2904.84268,0.02772
2902.78251,0.02754
2900.72234,0.02750
2898.66217,0.02744
2896.60200,0.02723
2894.54182,0.02701
2892.48165,0.02687
2890.42148,0.02678
2888.36131,0.02678
2886.30114,0.02680
2884.24096,0.02671
2882.18079,0.02655
2880.12062,0.02641
2878.06045,0.02626
2876.00028,0.02614
2873.94010,0.02604
2871.87993,0.02594
2869.81976,0.02579
2867.75959,0.02569
2865.69941,0.02568
2863.63924,0.02563
2861.57907,0.02560
2859.51890,0.02561
2857.45873,0.02563
2855.39855,0.02582
2853.33838,0.02603
2851.27821,0.02613
2849.21804,0.02618
2847.15787,0.02610
2845.09769,0.02576
2843.03752,0.02528
2840.97735,0.02483
2838.91718,0.02443
2836.85700,0.02419
2834.79683,0.02411
2832.73666,0.02408
2830.67649,0.02399
2828.61632,0.02380
2826.55614,0.02364
2824.49597,0.02361
2822.43580,0.02359
2820.37563,0.02343
2818.31546,0.02326
2816.25528,0.02326
2814.19511,0.02335
2812.13494,0.02336
2810.07477,0.02320
2808.01460,0.02294
2805.95442,0.02275
2803.89425,0.02268
2801.83408,0.02264
2799.77391,0.02256
2797.71373,0.02251
2795.65356,0.02245
2793.59339,0.02234
2791.53322,0.02222
2789.47305,0.02219
2787.41287,0.02216
2785.35270,0.02209
2783.29253,0.02201
2781.23236,0.02186
2779.17219,0.02171
2777.11201,0.02170
2775.05184,0.02165
2772.99167,0.02140
2770.93150,0.02115
2768.87133,0.02108
2766.81115,0.02109
2764.75098,0.02101
2762.69081,0.02089
2760.63064,0.02081
2758.57046,0.02079
2756.51029,0.02074
2754.45012,0.02065
2752.38995,0.02066
2750.32978,0.02068
2748.26960,0.02054
2746.20943,0.02038
2744.14926,0.02025
2742.08909,0.02015
2740.02892,0.02008
2737.96874,0.02000
2735.90857,0.01988
2733.84840,0.01975
2731.78823,0.01968
2729.72805,0.01967
2727.66788,0.01963
2725.60771,0.01953
2723.54754,0.01940
2721.48737,0.01922
2719.42719,0.01904
2717.36702,0.01897
2715.30685,0.01896
2713.24668,0.01890
2711.18651,0.01883
2709.12633,0.01877
2707.06616,0.01864
2705.00599,0.01851
2702.94582,0.01839
2700.88565,0.01827
2698.82547,0.01822
2696.76530,0.01825
2694.70513,0.01825
2692.64496,0.01820
2690.58478,0.01806
2688.52461,0.01789
2686.46444,0.01779
2684.40427,0.01777
2682.34410,0.01773
2680.28392,0.01769
2678.22375,0.01769
2676.16358,0.01760
2674.10341,0.01744
2672.04324,0.01726
2669.98306,0.01703
2667.92289,0.01692
2665.86272,0.01703
2663.80255,0.01712
2661.74238,0.01704
2659.68220,0.01684
2657.62203,0.01672
2655.56186,0.01666
2653.50169,0.01663
2651.44151,0.01659
2649.38134,0.01645
2647.32117,0.01626
2645.26100,0.01615
2643.20083,0.01601
2641.14065,0.01576
2639.08048,0.01560
2637.02031,0.01574
2634.96014,0.01596
2632.89997,0.01592
2630.83979,0.01569
2628.77962,0.01551
2626.71945,0.01548
2624.65928,0.01552
2622.59910,0.01552
2620.53893,0.01549
2618.47876,0.01549
2616.41859,0.01555
2614.35842,0.01559
2612.29824,0.01553
2610.23807,0.01533
2608.17790,0.01514
2606.11773,0.01514
2604.05756,0.01520
2601.99738,0.01524
2599.93721,0.01531
2597.87704,0.01527
2595.81687,0.01505
2593.75670,0.01479
2591.69652,0.01475
2589.63635,0.01501
2587.57618,0.01520
2585.51601,0.01517
2583.45583,0.01501
2581.39566,0.01488
2579.33549,0.01495
2577.27532,0.01510
2575.21515,0.01513
2573.15497,0.01499
2571.09480,0.01466
2569.03463,0.01448
2566.97446,0.01464
2564.91429,0.01481
2562.85411,0.01481
2560.79394,0.01481
2558.73377,0.01478
2556.67360,0.01473
2554.61342,0.01471
2552.55325,0.01471
2550.49308,0.01477
2548.43291,0.01485
2546.37274,0.01483
2544.31256,0.01471
2542.25239,0.01464
2540.19222,0.01463
2538.13205,0.01461
2536.07188,0.01463
2534.01170,0.01469
2531.95153,0.01467
2529.89136,0.01459
2527.83119,0.01462
2525.77102,0.01485
2523.71084,0.01509
2521.65067,0.01511
2519.59050,0.01503
2517.53033,0.01501
2515.47015,0.01498
2513.40998,0.01488
2511.34981,0.01481
2509.28964,0.01496
2507.22947,0.01521
2505.16929,0.01526
2503.10912,0.01513
2501.04895,0.01503
2498.98878,0.01488
2496.92861,0.01475
2494.86843,0.01495
2492.80826,0.01526
2490.74809,0.01530
2488.68792,0.01516
2486.62775,0.01507
2484.56757,0.01507
2482.50740,0.01523
2480.44723,0.01547
2478.38706,0.01550
2476.32688,0.01533
2474.26671,0.01531
2472.20654,0.01548
2470.14637,0.01551
2468.08620,0.01535
2466.02602,0.01529
2463.96585,0.01549
2461.90568,0.01573
2459.84551,0.01581
2457.78534,0.01574
2455.72516,0.01568
2453.66499,0.01565
2451.60482,0.01555
2449.54465,0.01556
2447.48447,0.01578
2445.42430,0.01599
2443.36413,0.01607
2441.30396,0.01609
2439.24379,0.01610
2437.18361,0.01602
2435.12344,0.01580
2433.06327,0.01555
2431.00310,0.01540
2428.94293,0.01558
2426.88275,0.01592
2424.82258,0.01589
2422.76241,0.01570
2420.70224,0.01564
2418.64207,0.01559
2416.58189,0.01563
2414.52172,0.01580
2412.46155,0.01575
2410.40138,0.01548
2408.34120,0.01536
2406.28103,0.01545
2404.22086,0.01560
2402.16069,0.01574
2400.10052,0.01575
2398.04034,0.01543
2395.98017,0.01539
2393.92000,0.01546
2391.85983,0.01540
2389.79966,0.01529
2387.73948,0.01527
2385.67931,0.01522
2383.61914,0.01483
2381.55897,0.01414
2379.49880,0.01355
2377.43862,0.01325
2375.37845,0.01303
2373.31828,0.01320
2371.25811,0.01380
2369.19793,0.01460
2367.13776,0.01553
2365.07759,0.01609
2363.01742,0.01560
2360.95725,0.01557
2358.89707,0.01506
2356.83690,0.01491
2354.77673,0.01493
2352.71656,0.01494
2350.65639,0.01612
2348.59621,0.01694
2346.53604,0.01493
2344.47587,0.01475
2342.41570,0.01561
2340.35552,0.01577
2338.29535,0.01531
2336.23518,0.01495
2334.17501,0.01498
2332.11484,0.01478
2330.05466,0.01436
2327.99449,0.01374
2325.93432,0.01365
2323.87415,0.01307
2321.81398,0.01261
2319.75380,0.01217
2317.69363,0.01249
2315.63346,0.01257
2313.57329,0.01218
2311.51312,0.01193
2309.45294,0.01206
2307.39277,0.01241
2305.33260,0.01276
2303.27243,0.01317
2301.21225,0.01340
2299.15208,0.01332
2297.09191,0.01301
2295.03174,0.01295
2292.97157,0.01330
2290.91139,0.01368
2288.85122,0.01387
2286.79105,0.01388
2284.73088,0.01379
2282.67071,0.01384
2280.61053,0.01406
2278.55036,0.01426
2276.49019,0.01435
2274.43002,0.01424
2272.36984,0.01382
2270.30967,0.01344
2268.24950,0.01344
2266.18933,0.01373
2264.12916,0.01402
2262.06898,0.01411
2260.00881,0.01398
2257.94864,0.01358
2255.88847,0.01302
2253.82830,0.01265
2251.76812,0.01239
2249.70795,0.01221
2247.64778,0.01270
2245.58761,0.01339
2243.52744,0.01336
2241.46726,0.01297
2239.40709,0.01307
2237.34692,0.01330
2235.28675,0.01299
2233.22657,0.01284
2231.16640,0.01345
2229.10623,0.01392
2227.04606,0.01364
2224.98589,0.01306
2222.92571,0.01255
2220.86554,0.01227
2218.80537,0.01258
2216.74520,0.01312
2214.68503,0.01300
2212.62485,0.01230
2210.56468,0.01173
2208.50451,0.01162
2206.44434,0.01215
2204.38417,0.01294
2202.32399,0.01314
2200.26382,0.01245
2198.20365,0.01194
2196.14348,0.01241
2194.08330,0.01263
2192.02313,0.01208
2189.96296,0.01160
2187.90279,0.01126
2185.84262,0.01107
2183.78244,0.01152
2181.72227,0.01228
2179.66210,0.01278
2177.60193,0.01291
2175.54176,0.01264
2173.48158,0.01213
2171.42141,0.01182
2169.36124,0.01153
2167.30107,0.01089
2165.24089,0.01058
2163.18072,0.01106
2161.12055,0.01193
2159.06038,0.01193
2157.00021,0.01078
2154.94003,0.01048
2152.87986,0.01135
2150.81969,0.01176
2148.75952,0.01105
2146.69935,0.01025
2144.63917,0.01014
2142.57900,0.01045
2140.51883,0.01092
2138.45866,0.01096
2136.39849,0.01045
2134.33831,0.01033
2132.27814,0.01069
2130.21797,0.01083
2128.15780,0.01078
2126.09762,0.01074
2124.03745,0.01077
2121.97728,0.01096
2119.91711,0.01104
2117.85694,0.01050
2115.79676,0.00971
2113.73659,0.00955
2111.67642,0.00990
2109.61625,0.01019
2107.55608,0.01027
2105.49590,0.00994
2103.43573,0.00953
2101.37556,0.00969
2099.31539,0.01066
2097.25521,0.01104
2095.19504,0.01087
2093.13487,0.01026
2091.07470,0.00966
2089.01453,0.00949
2086.95435,0.00992
2084.89418,0.01057
2082.83401,0.01084
2080.77384,0.01102
2078.71367,0.01133
2076.65349,0.01144
2074.59332,0.01132
2072.53315,0.01126
2070.47298,0.01123
2068.41281,0.01141
2066.35263,0.01170
2064.29246,0.01130
2062.23229,0.01037
2060.17212,0.00980
2058.11194,0.00976
2056.05177,0.01006
2053.99160,0.01056
2051.93143,0.01109
2049.87126,0.01162
2047.81108,0.01203
2045.75091,0.01221
2043.69074,0.01196
2041.63057,0.01168
2039.57040,0.01191
2037.51022,0.01216
2035.45005,0.01216
2033.38988,0.01202
2031.32971,0.01122
2029.26954,0.01025
2027.20936,0.01029
2025.14919,0.01089
2023.08902,0.01136
2021.02885,0.01153
2018.96867,0.01128
2016.90850,0.01121
2014.84833,0.01163
2012.78816,0.01193
2010.72799,0.01225
2008.66781,0.01298
2006.60764,0.01319
2004.54747,0.01204
2002.48730,0.01057
2000.42713,0.00987
1998.36695,0.00969
1996.30678,0.00961
1994.24661,0.00969
1992.18644,0.00958
1990.12626,0.00902
1988.06609,0.00861
1986.00592,0.00886
1983.94575,0.00976
1981.88558,0.01119
1979.82540,0.01299
1977.76523,0.01420
1975.70506,0.01368
1973.64489,0.01234
1971.58472,0.01172
1969.52454,0.01165
1967.46437,0.01142
1965.40420,0.01086
1963.34403,0.01058
1961.28386,0.01077
1959.22368,0.01054
1957.16351,0.00968
1955.10334,0.00902
1953.04317,0.00904
1950.98299,0.00937
1948.92282,0.00982
1946.86265,0.01029
1944.80248,0.01036
1942.74231,0.01015
1940.68213,0.01008
1938.62196,0.01019
1936.56179,0.01030
1934.50162,0.01027
1932.44145,0.00985
1930.38127,0.00931
1928.32110,0.00914
1926.26093,0.00908
1924.20076,0.00877
1922.14059,0.00842
1920.08041,0.00842
1918.02024,0.00880
1915.96007,0.00918
1913.89990,0.00950
1911.83972,0.00967
1909.77955,0.00954
1907.71938,0.00928
1905.65921,0.00913
1903.59904,0.00914
1901.53886,0.00922
1899.47869,0.00919
1897.41852,0.00905
1895.35835,0.00890
1893.29818,0.00883
1891.23800,0.00884
1889.17783,0.00878
1887.11766,0.00882
1885.05749,0.00908
1882.99731,0.00922
1880.93714,0.00903
1878.87697,0.00874
1876.81680,0.00861
1874.75663,0.00869
1872.69645,0.00904
1870.63628,0.00951
1868.57611,0.00977
1866.51594,0.00955
1864.45577,0.00915
1862.39559,0.00887
1860.33542,0.00872
1858.27525,0.00872
1856.21508,0.00885
1854.15491,0.00891
1852.09473,0.00891
1850.03456,0.00889
1847.97439,0.00873
1845.91422,0.00830
1843.85404,0.00783
1841.79387,0.00773
1839.73370,0.00795
1837.67353,0.00812
1835.61336,0.00803
1833.55318,0.00812
1831.49301,0.00868
1829.43284,0.00909
1827.37267,0.00893
1825.31250,0.00866
1823.25232,0.00866
1821.19215,0.00883
1819.13198,0.00881
1817.07181,0.00851
1815.01163,0.00825
1812.95146,0.00808
1810.89129,0.00779
1808.83112,0.00748
1806.77095,0.00742
1804.71077,0.00744
1802.65060,0.00738
1800.59043,0.00746
1798.53026,0.00762
1796.47009,0.00771
1794.40991,0.00790
1792.34974,0.00801
1790.28957,0.00773
1788.22940,0.00722
1786.16923,0.00677
1784.10905,0.00680
1782.04888,0.00731
1779.98871,0.00758
1777.92854,0.00748
1775.86836,0.00761
1773.80819,0.00803
1771.74802,0.00791
1769.68785,0.00704
1767.62768,0.00646
1765.56750,0.00655
1763.50733,0.00682
1761.44716,0.00679
1759.38699,0.00658
1757.32682,0.00657
1755.26664,0.00668
1753.20647,0.00681
1751.14630,0.00698
1749.08613,0.00705
1747.02596,0.00698
1744.96578,0.00699
1742.90561,0.00723
1740.84544,0.00741
1738.78527,0.00737
1736.72509,0.00743
1734.66492,0.00770
1732.60475,0.00785
1730.54458,0.00789
1728.48441,0.00778
1726.42423,0.00763
1724.36406,0.00757
1722.30389,0.00784
1720.24372,0.00864
1718.18355,0.00922
1716.12337,0.00852
1714.06320,0.00772
1712.00303,0.00742
1709.94286,0.00760
1707.88268,0.00802
1705.82251,0.00805
1703.76234,0.00777
1701.70217,0.00800
1699.64200,0.00841
1697.58182,0.00842
1695.52165,0.00824
1693.46148,0.00823
1691.40131,0.00849
1689.34114,0.00911
1687.28096,0.01021
1685.22079,0.01147
1683.16062,0.01144
1681.10045,0.01067
1679.04028,0.01062
1676.98010,0.01141
1674.91993,0.01245
1672.85976,0.01335
1670.79959,0.01397
1668.73941,0.01391
1666.67924,0.01356
1664.61907,0.01370
1662.55890,0.01384
1660.49873,0.01339
1658.43855,0.01312
1656.37838,0.01386
1654.31821,0.01493
1652.25804,0.01469
1650.19787,0.01428
1648.13769,0.01437
1646.07752,0.01423
1644.01735,0.01358
1641.95718,0.01337
1639.89701,0.01402
1637.83683,0.01504
1635.77666,0.01522
1633.71649,0.01449
1631.65632,0.01402
1629.59614,0.01408
1627.53597,0.01430
1625.47580,0.01443
1623.41563,0.01427
1621.35546,0.01387
1619.29528,0.01401
1617.23511,0.01452
1615.17494,0.01423
1613.11477,0.01358
1611.05460,0.01345
1608.99442,0.01359
1606.93425,0.01348
1604.87408,0.01331
1602.81391,0.01324
1600.75373,0.01317
1598.69356,0.01319
1596.63339,0.01328
1594.57322,0.01325
1592.51305,0.01301
1590.45287,0.01265
1588.39270,0.01235
1586.33253,0.01219
1584.27236,0.01204
1582.21219,0.01186
1580.15201,0.01193
1578.09184,0.01222
1576.03167,0.01188
1573.97150,0.01081
1571.91133,0.01018
1569.85115,0.00995
1567.79098,0.00924
1565.73081,0.00833
1563.67064,0.00809
1561.61046,0.00910
1559.55029,0.00992
1557.49012,0.00817
1555.42995,0.00612
1553.36978,0.00524
1551.30960,0.00512
1549.24943,0.00514
1547.18926,0.00528
1545.12909,0.00590
1543.06892,0.00697
1541.00874,0.00778
1538.94857,0.00708
1536.88840,0.00580
1534.82823,0.00519
1532.76805,0.00496
1530.70788,0.00458
1528.64771,0.00435
1526.58754,0.00414
1524.52737,0.00389
1522.46719,0.00372
1520.40702,0.00326
1518.34685,0.00286
1516.28668,0.00257
1514.22651,0.00214
1512.16633,0.00196
1510.10616,0.00256
1508.04599,0.00351
1505.98582,0.00370
1503.92565,0.00313
1501.86547,0.00273
1499.80530,0.00313
1497.74513,0.00377
1495.68496,0.00393
1493.62478,0.00411
1491.56461,0.00462
1489.50444,0.00481
1487.44427,0.00455
1485.38410,0.00439
1483.32392,0.00443
1481.26375,0.00455
1479.20358,0.00474
1477.14341,0.00509
1475.08324,0.00549
1473.02306,0.00561
1470.96289,0.00521
1468.90272,0.00476
1466.84255,0.00480
1464.78238,0.00495
1462.72220,0.00488
1460.66203,0.00522
1458.60186,0.00564
1456.54169,0.00497
1454.48151,0.00419
1452.42134,0.00405
1450.36117,0.00452
1448.30100,0.00513
1446.24083,0.00540
1444.18065,0.00545
1442.12048,0.00551
1440.06031,0.00566
1438.00014,0.00576
1435.93997,0.00559
1433.87979,0.00547
1431.81962,0.00564
1429.75945,0.00590
1427.69928,0.00597
1425.63910,0.00602
1423.57893,0.00611
1421.51876,0.00615
1419.45859,0.00605
1417.39842,0.00592
1415.33824,0.00615
1413.27807,0.00660
1411.21790,0.00691
1409.15773,0.00700
1407.09756,0.00711
1405.03738,0.00717
1402.97721,0.00712
1400.91704,0.00699
1398.85687,0.00661
1396.79670,0.00618
1394.73652,0.00609
1392.67635,0.00611
1390.61618,0.00618
1388.55601,0.00637
1386.49583,0.00653
1384.43566,0.00658
1382.37549,0.00655
1380.31532,0.00650
1378.25515,0.00658
1376.19497,0.00682
1374.13480,0.00683
1372.07463,0.00656
1370.01446,0.00648
1367.95429,0.00665
1365.89411,0.00682
1363.83394,0.00673
1361.77377,0.00641
1359.71360,0.00638
1357.65343,0.00662
1355.59325,0.00681
1353.53308,0.00689
1351.47291,0.00692
1349.41274,0.00687
1347.35256,0.00672
1345.29239,0.00652
1343.23222,0.00628
1341.17205,0.00593
1339.11188,0.00551
1337.05170,0.00547
1334.99153,0.00580
1332.93136,0.00604
1330.87119,0.00602
1328.81102,0.00594
1326.75084,0.00592
1324.69067,0.00590
1322.63050,0.00588
1320.57033,0.00586
1318.51015,0.00573
1316.44998,0.00558
1314.38981,0.00555
1312.32964,0.00560
1310.26947,0.00569
1308.20929,0.00577
1306.14912,0.00581
1304.08895,0.00588
1302.02878,0.00595
1299.96861,0.00594
1297.90843,0.00591
1295.84826,0.00593
1293.78809,0.00594
1291.72792,0.00585
1289.66775,0.00572
1287.60757,0.00567
1285.54740,0.00570
1283.48723,0.00582
1281.42706,0.00594
1279.36688,0.00600
1277.30671,0.00603
1275.24654,0.00606
1273.18637,0.00610
1271.12620,0.00611
1269.06602,0.00608
1267.00585,0.00604
1264.94568,0.00602
1262.88551,0.00606
1260.82534,0.00612
1258.76516,0.00616
1256.70499,0.00615
1254.64482,0.00606
1252.58465,0.00597
1250.52447,0.00590
1248.46430,0.00579
1246.40413,0.00560
1244.34396,0.00542
1242.28379,0.00538
1240.22361,0.00537
1238.16344,0.00535
1236.10327,0.00535
1234.04310,0.00529
1231.98293,0.00520
1229.92275,0.00511
1227.86258,0.00491
1225.80241,0.00469
1223.74224,0.00466
1221.68207,0.00470
1219.62189,0.00471
1217.56172,0.00469
1215.50155,0.00455
1213.44138,0.00430
1211.38120,0.00416
1209.32103,0.00413
1207.26086,0.00405
1205.20069,0.00404
1203.14052,0.00415
1201.08034,0.00422
1199.02017,0.00415
1196.96000,0.00426
1194.89983,0.00441
1192.83966,0.00447
1190.77948,0.00445
1188.71931,0.00442
1186.65914,0.00449
1184.59897,0.00476
1182.53880,0.00516
1180.47862,0.00558
1178.41845,0.00592
1176.35828,0.00606
1174.29811,0.00618
1172.23793,0.00651
1170.17776,0.00693
1168.11759,0.00725
1166.05742,0.00756
1163.99725,0.00798
1161.93707,0.00850
1159.87690,0.00902
1157.81673,0.00960
1155.75656,0.01013
1153.69639,0.01059
1151.63621,0.01119
1149.57604,0.01196
1147.51587,0.01264
1145.45570,0.01319
1143.39552,0.01374
1141.33535,0.01436
1139.27518,0.01505
1137.21501,0.01575
1135.15484,0.01649
1133.09466,0.01741
1131.03449,0.01837
1128.97432,0.01922
1126.91415,0.02002
1124.85398,0.02094
1122.79380,0.02204
1120.73363,0.02318
1118.67346,0.02417
1116.61329,0.02516
1114.55312,0.02639
1112.49294,0.02770
1110.43277,0.02876
1108.37260,0.02964
1106.31243,0.03061
1104.25225,0.03168
1102.19208,0.03266
1100.13191,0.03361
1098.07174,0.03457
1096.01157,0.03546
1093.95139,0.03628
1091.89122,0.03711
1089.83105,0.03797
1087.77088,0.03887
1085.71071,0.03969
1083.65053,0.04036
1081.59036,0.04108
1079.53019,0.04190
1077.47002,0.04270
1075.40985,0.04340
1073.34967,0.04401
1071.28950,0.04450
1069.22933,0.04485
1067.16916,0.04506
1065.10898,0.04504
1063.04881,0.04482
1060.98864,0.04438
1058.92847,0.04377
1056.86830,0.04305
1054.80812,0.04219
1052.74795,0.04114
1050.68778,0.03977
1048.62761,0.03811
1046.56744,0.03649
1044.50726,0.03506
1042.44709,0.03353
1040.38692,0.03175
1038.32675,0.02981
1036.26657,0.02778
1034.20640,0.02574
1032.14623,0.02399
1030.08606,0.02270
1028.02589,0.02161
1025.96571,0.02061
1023.90554,0.01959
1021.84537,0.01852
1019.78520,0.01766
1017.72503,0.01715
1015.66485,0.01693
1013.60468,0.01696
1011.54451,0.01718
1009.48434,0.01765
1007.42417,0.01833
1005.36399,0.01902
1003.30382,0.01983
1001.24365,0.02093
999.18348,0.02221
997.12330,0.02355
995.06313,0.02475
993.00296,0.02570
990.94279,0.02666
988.88262,0.02766
986.82244,0.02852
984.76227,0.02917
982.70210,0.02962
980.64193,0.03001
978.58176,0.03026
976.52158,0.03022
974.46141,0.03008
972.40124,0.02984
970.34107,0.02921
968.28089,0.02821
966.22072,0.02713
964.16055,0.02604
962.10038,0.02490
960.04021,0.02380
957.98003,0.02286
955.91986,0.02206
953.85969,0.02123
951.79952,0.02030
949.73935,0.01931
947.67917,0.01846
945.61900,0.01780
943.55883,0.01707
941.49866,0.01627
939.43849,0.01566
937.37831,0.01527
935.31814,0.01485
933.25797,0.01419
931.19780,0.01342
929.13762,0.01271
927.07745,0.01218
925.01728,0.01185
922.95711,0.01160
920.89694,0.01134
918.83676,0.01104
916.77659,0.01064
914.71642,0.01006
912.65625,0.00956
910.59608,0.00941
908.53590,0.00939
906.47573,0.00921
904.41556,0.00902
902.35539,0.00904
900.29522,0.00918
898.23504,0.00931
896.17487,0.00949
894.11470,0.00974
892.05453,0.01010
889.99435,0.01060
887.93418,0.01116
885.87401,0.01174
883.81384,0.01238
881.75367,0.01306
879.69349,0.01365
877.63332,0.01418
875.57315,0.01460
873.51298,0.01499
871.45281,0.01567
869.39263,0.01658
867.33246,0.01737
865.27229,0.01796
863.21212,0.01845
861.15194,0.01879
859.09177,0.01913
857.03160,0.01948
854.97143,0.01949
852.91126,0.01925
850.85108,0.01913
848.79091,0.01899
846.73074,0.01864
844.67057,0.01833
842.61040,0.01806
840.55022,0.01754
838.49005,0.01663
836.42988,0.01562
834.36971,0.01497
832.30954,0.01455
830.24936,0.01408
828.18919,0.01366
826.12902,0.01326
824.06885,0.01278
822.00867,0.01250
819.94850,0.01246
817.88833,0.01217
815.82816,0.01145
813.76799,0.01068
811.70781,0.01006
809.64764,0.00960
807.58747,0.00955
805.52730,0.00979
803.46713,0.00980
801.40695,0.00948
799.34678,0.00888
797.28661,0.00829
795.22644,0.00805
793.16627,0.00803
791.10609,0.00795
789.04592,0.00763
786.98575,0.00717
784.92558,0.00699
782.86540,0.00719
780.80523,0.00737
778.74506,0.00716
776.68489,0.00676
774.62472,0.00637
772.56454,0.00608
770.50437,0.00619
768.44420,0.00636
766.38403,0.00619
764.32386,0.00611
762.26368,0.00617
760.20351,0.00611
758.14334,0.00612
756.08317,0.00614
754.02299,0.00597
751.96282,0.00576
749.90265,0.00557
747.84248,0.00525
745.78231,0.00490
743.72213,0.00475
741.66196,0.00454
739.60179,0.00417
737.54162,0.00417
735.48145,0.00457
733.42127,0.00496
731.36110,0.00500
729.30093,0.00488
727.24076,0.00488
725.18059,0.00473
723.12041,0.00458
721.06024,0.00411
719.00007,0.00437
716.93990,0.00465
714.87972,0.00457
712.81955,0.00452
710.75938,0.00461
708.69921,0.00459
706.63904,0.00450
704.57886,0.00472
702.51869,0.00516
700.45852,0.00534
698.39835,0.00493
696.33818,0.00438
694.27800,0.00442
692.21783,0.00469
690.15766,0.00446
688.09749,0.00419
686.03731,0.00461
683.97714,0.00554
681.91697,0.00615
679.85680,0.00603
677.79663,0.00555
675.73645,0.00538
673.67628,0.00593
671.61611,0.00665
669.55594,0.00388
667.49577,0.00005
665.43559,0.00532
663.37542,0.00555
661.31525,0.00458
659.25508,0.00424
657.19491,0.00415
655.13473,0.00421
653.07456,0.00437
651.01439,0.00404
648.95422,0.00318
646.89404,0.00295
644.83387,0.00333
642.77370,0.00366
640.71353,0.00351
638.65336,0.00333
636.59318,0.00342
634.53301,0.00319
632.47284,0.00256
630.41267,0.00194
628.35250,0.00153
626.29232,0.00185
624.23215,0.00309
622.17198,0.00381
620.11181,0.00284
618.05164,0.00083
615.99146,0.00000
613.93129,0.00075
611.87112,0.00135
609.81095,0.00068
607.75077,-0.00018
605.69060,-0.00023
603.63043,-0.00012
601.57026,-0.00032
599.51009,0.00000
