3996.73391,-0.00059
3994.67373,-0.00076
3992.61356,-0.00055
3990.55339,-0.00014
3988.49322,0.00000
3986.43305,-0.00004
3984.37287,-0.00003
3982.31270,-0.00004
3980.25253,-0.00014
3978.19236,-0.00020
3976.13219,-0.00020
3974.07201,-0.00007
3972.01184,0.00016
3969.95167,0.00039
3967.89150,0.00066
3965.83133,0.00085
3963.77115,0.00079
3961.71098,0.00061
3959.65081,0.00053
3957.59064,0.00057
3955.53046,0.00074
3953.47029,0.00093
3951.41012,0.00078
3949.34995,0.00022
3947.28978,0.00000
3945.22960,0.00047
3943.16943,0.00090
3941.10926,0.00101
3939.04909,0.00110
3936.98892,0.00108
3934.92874,0.00073
3932.86857,0.00047
3930.80840,0.00086
3928.74823,0.00146
3926.68805,0.00172
3924.62788,0.00162
3922.56771,0.00123
3920.50754,0.00083
3918.44737,0.00067
3916.38719,0.00108
3914.32702,0.00187
3912.26685,0.00237
3910.20668,0.00239
3908.14651,0.00216
3906.08633,0.00173
3904.02616,0.00105
3901.96599,0.00077
3899.90582,0.00137
3897.84565,0.00202
3895.78547,0.00213
3893.72530,0.00190
3891.66513,0.00158
3889.60496,0.00133
3887.54478,0.00120
3885.48461,0.00128
3883.42444,0.00142
3881.36427,0.00142
3879.30410,0.00144
3877.24392,0.00148
3875.18375,0.00130
3873.12358,0.00090
3871.06341,0.00073
3869.00324,0.00115
3866.94306,0.00157
3864.88289,0.00161
3862.82272,0.00159
3860.76255,0.00159
3858.70237,0.00116
3856.64220,0.00017
3854.58203,0.00000
3852.52186,0.00139
3850.46169,0.00272
3848.40151,0.00269
3846.34134,0.00232
3844.28117,0.00220
3842.22100,0.00206
3840.16083,0.00180
3838.10065,0.00173
3836.04048,0.00214
3833.98031,0.00263
3831.92014,0.00289
3829.85997,0.00306
3827.79979,0.00307
3825.73962,0.00286
3823.67945,0.00274
3821.61928,0.00302
3819.55910,0.00316
3817.49893,0.00323
3815.43876,0.00374
3813.37859,0.00426
3811.31842,0.00415
3809.25824,0.00371
3807.19807,0.00330
3805.13790,0.00310
3803.07773,0.00340
3801.01756,0.00404
3798.95738,0.00433
3796.89721,0.00438
3794.83704,0.00480
3792.77687,0.00521
3790.71670,0.00510
3788.65652,0.00489
3786.59635,0.00496
3784.53618,0.00512
3782.47601,0.00546
3780.41583,0.00605
3778.35566,0.00635
3776.29549,0.00610
3774.23532,0.00564
3772.17515,0.00522
3770.11497,0.00487
3768.05480,0.00465
3765.99463,0.00465
3763.93446,0.00458
3761.87429,0.00420
3759.81411,0.00364
3757.75394,0.00298
3755.69377,0.00238
3753.63360,0.00190
3751.57342,0.00138
3749.51325,0.00078
3747.45308,0.00035
3745.39291,0.00000
3743.33274,0.00070
3741.27256,0.00172
3739.21239,0.00185
3737.15222,0.00164
3735.09205,0.00168
3733.03188,0.00224
3730.97170,0.00319
3728.91153,0.00365
3726.85136,0.00359
3724.79119,0.00352
3722.73102,0.00337
3720.67084,0.00354
3718.61067,0.00353
3716.55050,0.00362
3714.49033,0.00413
3712.43015,0.00459
3710.36998,0.00506
3708.30981,0.00514
3706.24964,0.00516
3704.18947,0.00522
3702.12929,0.00548
3700.06912,0.00592
3698.00895,0.00613
3695.94878,0.00615
3693.88861,0.00612
3691.82843,0.00641
3689.76826,0.00650
3687.70809,0.00651
3685.64792,0.00653
3683.58775,0.00667
3681.52757,0.00661
3679.46740,0.00618
3677.40723,0.00565
3675.34706,0.00573
3673.28688,0.00589
3671.22671,0.00571
3669.16654,0.00577
3667.10637,0.00618
3665.04620,0.00654
3662.98602,0.00672
3660.92585,0.00668
3658.86568,0.00655
3656.80551,0.00660
3654.74534,0.00689
3652.68516,0.00732
3650.62499,0.00778
3648.56482,0.00799
3646.50465,0.00833
3644.44447,0.00832
3642.38430,0.00833
3640.32413,0.00867
3638.26396,0.00896
3636.20379,0.00904
3634.14361,0.00905
3632.08344,0.00932
3630.02327,0.00986
3627.96310,0.01039
3625.90293,0.01048
3623.84275,0.01057
3621.78258,0.01071
3619.72241,0.01055
3617.66224,0.01026
3615.60207,0.01006
3613.54189,0.01020
3611.48172,0.01025
3609.42155,0.01058
3607.36138,0.01131
3605.30120,0.01191
3603.24103,0.01257
3601.18086,0.01313
3599.12069,0.01349
3597.06052,0.01367
3595.00034,0.01418
3592.94017,0.01462
3590.88000,0.01517
3588.81983,0.01534
3586.75966,0.01522
3584.69948,0.01537
3582.63931,0.01582
3580.57914,0.01636
3578.51897,0.01684
3576.45879,0.01720
3574.39862,0.01747
3572.33845,0.01781
3570.27828,0.01804
3568.21811,0.01788
3566.15793,0.01773
3564.09776,0.01818
3562.03759,0.01881
3559.97742,0.01931
3557.91725,0.01968
3555.85707,0.01999
3553.79690,0.02026
3551.73673,0.02039
3549.67656,0.02035
3547.61639,0.02019
3545.55621,0.02017
3543.49604,0.02057
3541.43587,0.02119
3539.37570,0.02175
3537.31552,0.02209
3535.25535,0.02235
3533.19518,0.02279
3531.13501,0.02335
3529.07484,0.02365
3527.01466,0.02355
3524.95449,0.02347
3522.89432,0.02382
3520.83415,0.02444
3518.77398,0.02495
3516.71380,0.02529
3514.65363,0.02567
3512.59346,0.02608
3510.53329,0.02627
3508.47312,0.02621
3506.41294,0.02618
3504.35277,0.02617
3502.29260,0.02615
3500.23243,0.02652
3498.17225,0.02722
3496.11208,0.02776
3494.05191,0.02807
3491.99174,0.02831
3489.93157,0.02867
3487.87139,0.02913
3485.81122,0.02944
3483.75105,0.02954
3481.69088,0.02954
3479.63071,0.02958
3477.57053,0.02983
3475.51036,0.03028
3473.45019,0.03070
3471.39002,0.03095
3469.32984,0.03114
3467.26967,0.03139
3465.20950,0.03160
3463.14933,0.03158
3461.08916,0.03151
3459.02898,0.03181
3456.96881,0.03239
3454.90864,0.03282
3452.84847,0.03309
3450.78830,0.03333
3448.72812,0.03342
3446.66795,0.03332
3444.60778,0.03328
3442.54761,0.03344
3440.48744,0.03354
3438.42726,0.03364
3436.36709,0.03398
3434.30692,0.03443
3432.24675,0.03469
3430.18657,0.03478
3428.12640,0.03500
3426.06623,0.03526
3424.00606,0.03534
3421.94589,0.03528
3419.88571,0.03524
3417.82554,0.03541
3415.76537,0.03564
3413.70520,0.03583
3411.64503,0.03602
3409.58485,0.03612
3407.52468,0.03619
3405.46451,0.03633
3403.40434,0.03652
3401.34416,0.03668
3399.28399,0.03581
3397.22382,0.03588
3395.16365,0.03631
3393.10348,0.03657
3391.04330,0.03660
3388.98313,0.03678
3386.92296,0.03712
3384.86279,0.03744
3382.80262,0.03766
3380.74244,0.03779
3378.68227,0.03799
3376.62210,0.03829
3374.56193,0.03866
3372.50176,0.03893
3370.44158,0.03898
3368.38141,0.03891
3366.32124,0.03886
3364.26107,0.03900
3362.20089,0.03920
3360.14072,0.03932
3358.08055,0.03941
3356.02038,0.03947
3353.96021,0.03945
3351.90003,0.03936
3349.83986,0.03940
3347.77969,0.03966
3345.71952,0.03991
3343.65935,0.04005
3341.59917,0.04005
3339.53900,0.03986
3337.47883,0.03972
3335.41866,0.03978
3333.35849,0.04004
3331.29831,0.04050
3329.23814,0.04089
3327.17797,0.04095
3325.11780,0.04083
3323.05762,0.04088
3320.99745,0.04109
3318.93728,0.04115
3316.87711,0.04096
3314.81694,0.04073
3312.75676,0.04056
3310.69659,0.04050
3308.63642,0.04060
3306.57625,0.04085
3304.51608,0.04122
3302.45590,0.04161
3300.39573,0.04180
3298.33556,0.04170
3296.27539,0.04158
3294.21521,0.04158
3292.15504,0.04153
3290.09487,0.04151
3288.03470,0.04168
3285.97453,0.04181
3283.91435,0.04181
3281.85418,0.04189
3279.79401,0.04196
3277.73384,0.04187
3275.67367,0.04181
3273.61349,0.04193
3271.55332,0.04209
3269.49315,0.04218
3267.43298,0.04227
3265.37281,0.04242
3263.31263,0.04260
3261.25246,0.04270
3259.19229,0.04265
3257.13212,0.04244
3255.07194,0.04230
3253.01177,0.04248
3250.95160,0.04273
3248.89143,0.04286
3246.83126,0.04289
3244.77108,0.04288
3242.71091,0.04295
3240.65074,0.04309
3238.59057,0.04315
3236.53040,0.04305
3234.47022,0.04293
3232.41005,0.04297
3230.34988,0.04299
3228.28971,0.04290
3226.22954,0.04299
3224.16936,0.04324
3222.10919,0.04328
3220.04902,0.04315
3217.98885,0.04318
3215.92867,0.04333
3213.86850,0.04339
3211.80833,0.04344
3209.74816,0.04349
3207.68799,0.04353
3205.62781,0.04357
3203.56764,0.04361
3201.50747,0.04362
3199.44730,0.04359
3197.38713,0.04355
3195.32695,0.04352
3193.26678,0.04345
3191.20661,0.04347
3189.14644,0.04362
3187.08626,0.04358
3185.02609,0.04343
3182.96592,0.04349
3180.90575,0.04354
3178.84558,0.04335
3176.78540,0.04330
3174.72523,0.04351
3172.66506,0.04366
3170.60489,0.04370
3168.54472,0.04369
3166.48454,0.04365
3164.42437,0.04367
3162.36420,0.04366
3160.30403,0.04362
3158.24386,0.04365
3156.18368,0.04365
3154.12351,0.04348
3152.06334,0.04329
3150.00317,0.04323
3147.94299,0.04322
3145.88282,0.04323
3143.82265,0.04334
3141.76248,0.04347
3139.70231,0.04339
3137.64213,0.04322
3135.58196,0.04312
3133.52179,0.04296
3131.46162,0.04276
3129.40145,0.04263
3127.34127,0.04259
3125.28110,0.04258
3123.22093,0.04245
3121.16076,0.04226
3119.10058,0.04220
3117.04041,0.04210
3114.98024,0.04194
3112.92007,0.04195
3110.85990,0.04208
3108.79972,0.04208
3106.73955,0.04200
3104.67938,0.04187
3102.61921,0.04160
3100.55904,0.04144
3098.49886,0.04155
3096.43869,0.04160
3094.37852,0.04144
3092.31835,0.04127
3090.25818,0.04122
3088.19800,0.04130
3086.13783,0.04137
3084.07766,0.04125
3082.01749,0.04100
3079.95731,0.04088
3077.89714,0.04097
3075.83697,0.04104
3073.77680,0.04094
3071.71663,0.04076
3069.65645,0.04061
3067.59628,0.04043
3065.53611,0.04026
3063.47594,0.04024
3061.41577,0.04034
3059.35559,0.04036
3057.29542,0.04010
3055.23525,0.03966
3053.17508,0.03944
3051.11491,0.03954
3049.05473,0.03958
3046.99456,0.03940
3044.93439,0.03923
3042.87422,0.03919
3040.81404,0.03919
3038.75387,0.03912
3036.69370,0.03893
3034.63353,0.03861
3032.57336,0.03823
3030.51318,0.03804
3028.45301,0.03806
3026.39284,0.03810
3024.33267,0.03809
3022.27250,0.03810
3020.21232,0.03811
3018.15215,0.03792
3016.09198,0.03743
3014.03181,0.03694
3011.97163,0.03670
3009.91146,0.03670
3007.85129,0.03672
3005.79112,0.03656
3003.73095,0.03633
3001.67077,0.03625
2999.61060,0.03634
2997.55043,0.03619
2995.49026,0.03598
2993.43009,0.03583
2991.36991,0.03585
2989.30974,0.03575
2987.24957,0.03551
2985.18940,0.03538
2983.12923,0.03540
2981.06905,0.03544
2979.00888,0.03539
2976.94871,0.03524
2974.88854,0.03502
2972.82836,0.03486
2970.76819,0.03485
2968.70802,0.03481
2966.64785,0.03468
2964.58768,0.03463
2962.52750,0.03466
2960.46733,0.03470
2958.40716,0.03479
2956.34699,0.03485
2954.28682,0.03478
2952.22664,0.03460
2950.16647,0.03436
2948.10630,0.03413
2946.04613,0.03393
2943.98596,0.03382
2941.92578,0.03381
2939.86561,0.03381
2937.80544,0.03382
2935.74527,0.03388
2933.68509,0.03397
2931.62492,0.03406
2929.56475,0.03411
2927.50458,0.03407
2925.44441,0.03402
2923.38423,0.03423
2921.32406,0.03469
2919.26389,0.03502
2917.20372,0.03508
2915.14355,0.03495
2913.08337,0.03459
2911.02320,0.03399
2908.96303,0.03338
2906.90286,0.03296
2904.84268,0.03266
2902.78251,0.03238
2900.72234,0.03220
2898.66217,0.03221
2896.60200,0.03227
2894.54182,0.03213
2892.48165,0.03183
2890.42148,0.03167
2888.36131,0.03170
2886.30114,0.03168
2884.24096,0.03158
2882.18079,0.03149
2880.12062,0.03138
2878.06045,0.03120
2876.00028,0.03101
2873.94010,0.03091
2871.87993,0.03089
2869.81976,0.03081
2867.75959,0.03062
2865.69941,0.03041
2863.63924,0.03028
2861.57907,0.03035
2859.51890,0.03053
2857.45873,0.03070
2855.39855,0.03090
2853.33838,0.03113
2851.27821,0.03128
2849.21804,0.03132
2847.15787,0.03122
2845.09769,0.03096
2843.03752,0.03058
2840.97735,0.03018
2838.91718,0.02977
2836.85700,0.02941
2834.79683,0.02921
2832.73666,0.02912
2830.67649,0.02904
2828.61632,0.02889
2826.55614,0.02876
2824.49597,0.02875
2822.43580,0.02866
2820.37563,0.02839
2818.31546,0.02825
2816.25528,0.02836
2814.19511,0.02849
2812.13494,0.02845
2810.07477,0.02827
2808.01460,0.02808
2805.95442,0.02795
2803.89425,0.02787
2801.83408,0.02790
2799.77391,0.02795
2797.71373,0.02784
2795.65356,0.02771
2793.59339,0.02768
2791.53322,0.02762
2789.47305,0.02750
2787.41287,0.02735
2785.35270,0.02720
2783.29253,0.02714
2781.23236,0.02713
2779.17219,0.02713
2777.11201,0.02712
2775.05184,0.02703
2772.99167,0.02686
2770.93150,0.02674
2768.87133,0.02666
2766.81115,0.02653
2764.75098,0.02639
2762.69081,0.02631
2760.63064,0.02622
2758.57046,0.02610
2756.51029,0.02604
2754.45012,0.02607
2752.38995,0.02612
2750.32978,0.02607
2748.26960,0.02591
2746.20943,0.02578
2744.14926,0.02568
2742.08909,0.02557
2740.02892,0.02549
2737.96874,0.02549
2735.90857,0.02547
2733.84840,0.02541
2731.78823,0.02539
2729.72805,0.02538
2727.66788,0.02524
2725.60771,0.02509
2723.54754,0.02498
2721.48737,0.02481
2719.42719,0.02459
2717.36702,0.02447
2715.30685,0.02453
2713.24668,0.02455
2711.18651,0.02451
2709.12633,0.02449
2707.06616,0.02444
2705.00599,0.02441
2702.94582,0.02435
2700.88565,0.02425
2698.82547,0.02416
2696.76530,0.02405
2694.70513,0.02397
2692.64496,0.02396
2690.58478,0.02391
2688.52461,0.02378
2686.46444,0.02366
2684.40427,0.02358
2682.34410,0.02348
2680.28392,0.02346
2678.22375,0.02347
2676.16358,0.02337
2674.10341,0.02327
2672.04324,0.02324
2669.98306,0.02311
2667.92289,0.02298
2665.86272,0.02296
2663.80255,0.02290
2661.74238,0.02280
2659.68220,0.02280
2657.62203,0.02283
2655.56186,0.02274
2653.50169,0.02263
2651.44151,0.02251
2649.38134,0.02236
2647.32117,0.02221
2645.26100,0.02207
2643.20083,0.02200
2641.14065,0.02201
2639.08048,0.02197
2637.02031,0.02193
2634.96014,0.02202
2632.89997,0.02205
2630.83979,0.02192
2628.77962,0.02173
2626.71945,0.02157
2624.65928,0.02156
2622.59910,0.02161
2620.53893,0.02156
2618.47876,0.02148
2616.41859,0.02148
2614.35842,0.02158
2612.29824,0.02165
2610.23807,0.02155
2608.17790,0.02140
2606.11773,0.02132
2604.05756,0.02125
2601.99738,0.02126
2599.93721,0.02136
2597.87704,0.02148
2595.81687,0.02153
2593.75670,0.02138
2591.69652,0.02111
2589.63635,0.02103
2587.57618,0.02107
2585.51601,0.02094
2583.45583,0.02073
2581.39566,0.02067
2579.33549,0.02077
2577.27532,0.02096
2575.21515,0.02108
2573.15497,0.02104
2571.09480,0.02094
2569.03463,0.02091
2566.97446,0.02087
2564.91429,0.02078
2562.85411,0.02082
2560.79394,0.02101
2558.73377,0.02108
2556.67360,0.02093
2554.61342,0.02071
2552.55325,0.02065
2550.49308,0.02077
2548.43291,0.02087
2546.37274,0.02084
2544.31256,0.02085
2542.25239,0.02099
2540.19222,0.02092
2538.13205,0.02068
2536.07188,0.02079
2534.01170,0.02116
2531.95153,0.02141
2529.89136,0.02152
2527.83119,0.02158
2525.77102,0.02154
2523.71084,0.02136
2521.65067,0.02120
2519.59050,0.02123
2517.53033,0.02131
2515.47015,0.02121
2513.40998,0.02102
2511.34981,0.02107
2509.28964,0.02136
2507.22947,0.02157
2505.16929,0.02160
2503.10912,0.02167
2501.04895,0.02173
2498.98878,0.02152
2496.92861,0.02130
2494.86843,0.02148
2492.80826,0.02180
2490.74809,0.02193
2488.68792,0.02186
2486.62775,0.02166
2484.56757,0.02150
2482.50740,0.02160
2480.44723,0.02190
2478.38706,0.02206
2476.32688,0.02202
2474.26671,0.02216
2472.20654,0.02230
2470.14637,0.02220
2468.08620,0.02211
2466.02602,0.02208
2463.96585,0.02212
2461.90568,0.02228
2459.84551,0.02229
2457.78534,0.02213
2455.72516,0.02209
2453.66499,0.02215
2451.60482,0.02211
2449.54465,0.02217
2447.48447,0.02247
2445.42430,0.02270
2443.36413,0.02275
2441.30396,0.02277
2439.24379,0.02277
2437.18361,0.02268
2435.12344,0.02251
2433.06327,0.02235
2431.00310,0.02230
2428.94293,0.02239
2426.88275,0.02254
2424.82258,0.02255
2422.76241,0.02246
2420.70224,0.02244
2418.64207,0.02242
2416.58189,0.02234
2414.52172,0.02221
2412.46155,0.02193
2410.40138,0.02171
2408.34120,0.02182
2406.28103,0.02205
2404.22086,0.02221
2402.16069,0.02242
2400.10052,0.02246
2398.04034,0.02215
2395.98017,0.02215
2393.92000,0.02236
2391.85983,0.02251
2389.79966,0.02260
2387.73948,0.02271
2385.67931,0.02301
2383.61914,0.02302
2381.55897,0.02231
2379.49880,0.02179
2377.43862,0.02171
2375.37845,0.02061
2373.31828,0.02150
2371.25811,0.02221
2369.19793,0.02137
2367.13776,0.02169
2365.07759,0.02397
2363.01742,0.02237
2360.95725,0.02522
2358.89707,0.02331
2356.83690,0.02149
2354.77673,0.01847
2352.71656,0.01964
2350.65639,0.02853
2348.59621,0.03507
2346.53604,0.01999
2344.47587,0.01707
2342.41570,0.02090
2340.35552,0.02399
2338.29535,0.02432
2336.23518,0.02464
2334.17501,0.02476
2332.11484,0.02361
2330.05466,0.02361
2327.99449,0.02116
2325.93432,0.02367
2323.87415,0.02205
2321.81398,0.02228
2319.75380,0.01968
2317.69363,0.02106
2315.63346,0.02103
2313.57329,0.01918
2311.51312,0.01945
2309.45294,0.02024
2307.39277,0.02091
2305.33260,0.02137
2303.27243,0.02186
2301.21225,0.02171
2299.15208,0.02183
2297.09191,0.02174
2295.03174,0.02123
2292.97157,0.02132
2290.91139,0.02151
2288.85122,0.02145
2286.79105,0.02141
2284.73088,0.02149
2282.67071,0.02152
2280.61053,0.02159
2278.55036,0.02149
2276.49019,0.02125
2274.43002,0.02140
2272.36984,0.02143
2270.30967,0.02125
2268.24950,0.02130
2266.18933,0.02153
2264.12916,0.02164
2262.06898,0.02177
2260.00881,0.02161
2257.94864,0.02146
2255.88847,0.02122
2253.82830,0.02081
2251.76812,0.02047
2249.70795,0.02035
2247.64778,0.02054
2245.58761,0.02060
2243.52744,0.02033
2241.46726,0.02012
2239.40709,0.02047
2237.34692,0.02090
2235.28675,0.02095
2233.22657,0.02123
2231.16640,0.02180
2229.10623,0.02196
2227.04606,0.02170
2224.98589,0.02145
2222.92571,0.02121
2220.86554,0.02086
2218.80537,0.02070
2216.74520,0.02072
2214.68503,0.02057
2212.62485,0.02032
2210.56468,0.02007
2208.50451,0.01997
2206.44434,0.02020
2204.38417,0.02036
2202.32399,0.02027
2200.26382,0.01983
2198.20365,0.01955
2196.14348,0.02000
2194.08330,0.02024
2192.02313,0.01991
2189.96296,0.01986
2187.90279,0.02010
2185.84262,0.01991
2183.78244,0.01959
2181.72227,0.01955
2179.66210,0.01964
2177.60193,0.02003
2175.54176,0.02050
2173.48158,0.02064
2171.42141,0.02038
2169.36124,0.01979
2167.30107,0.01935
2165.24089,0.01925
2163.18072,0.01911
2161.12055,0.01886
2159.06038,0.01847
2157.00021,0.01857
2154.94003,0.01932
2152.87986,0.01970
2150.81969,0.01955
2148.75952,0.01904
2146.69935,0.01852
2144.63917,0.01865
2142.57900,0.01920
2140.51883,0.01967
2138.45866,0.01994
2136.39849,0.01999
2134.33831,0.01995
2132.27814,0.01971
2130.21797,0.01923
2128.15780,0.01911
2126.09762,0.01930
2124.03745,0.01928
2121.97728,0.01932
2119.91711,0.01948
2117.85694,0.01920
2115.79676,0.01882
2113.73659,0.01893
2111.67642,0.01905
2109.61625,0.01894
2107.55608,0.01899
2105.49590,0.01901
2103.43573,0.01901
2101.37556,0.01939
2099.31539,0.02055
2097.25521,0.02092
2095.19504,0.02024
2093.13487,0.01914
2091.07470,0.01862
2089.01453,0.01862
2086.95435,0.01860
2084.89418,0.01848
2082.83401,0.01860
2080.77384,0.01924
2078.71367,0.01997
2076.65349,0.02028
2074.59332,0.02025
2072.53315,0.02008
2070.47298,0.01991
2068.41281,0.02006
2066.35263,0.02032
2064.29246,0.01996
2062.23229,0.01909
2060.17212,0.01851
2058.11194,0.01859
2056.05177,0.01901
2053.99160,0.01934
2051.93143,0.01958
2049.87126,0.02027
2047.81108,0.02150
2045.75091,0.02243
2043.69074,0.02230
2041.63057,0.02153
2039.57040,0.02126
2037.51022,0.02175
2035.45005,0.02216
2033.38988,0.02179
2031.32971,0.02030
2029.26954,0.01872
2027.20936,0.01863
2025.14919,0.01972
2023.08902,0.02076
2021.02885,0.02116
2018.96867,0.02080
2016.90850,0.02042
2014.84833,0.02082
2012.78816,0.02144
2010.72799,0.02173
2008.66781,0.02177
2006.60764,0.02142
2004.54747,0.02034
2002.48730,0.01884
2000.42713,0.01782
1998.36695,0.01759
1996.30678,0.01780
1994.24661,0.01813
1992.18644,0.01816
1990.12626,0.01785
1988.06609,0.01771
1986.00592,0.01772
1983.94575,0.01812
1981.88558,0.01953
1979.82540,0.02154
1977.76523,0.02264
1975.70506,0.02208
1973.64489,0.02100
1971.58472,0.02056
1969.52454,0.02052
1967.46437,0.02036
1965.40420,0.01980
1963.34403,0.01897
1961.28386,0.01840
1959.22368,0.01820
1957.16351,0.01806
1955.10334,0.01792
1953.04317,0.01820
1950.98299,0.01888
1948.92282,0.01941
1946.86265,0.01958
1944.80248,0.01955
1942.74231,0.01956
1940.68213,0.01967
1938.62196,0.01972
1936.56179,0.01954
1934.50162,0.01928
1932.44145,0.01898
1930.38127,0.01872
1928.32110,0.01860
1926.26093,0.01843
1924.20076,0.01810
1922.14059,0.01782
1920.08041,0.01778
1918.02024,0.01799
1915.96007,0.01833
1913.89990,0.01874
1911.83972,0.01896
1909.77955,0.01891
1907.71938,0.01874
1905.65921,0.01861
1903.59904,0.01856
1901.53886,0.01856
1899.47869,0.01856
1897.41852,0.01850
1895.35835,0.01825
1893.29818,0.01795
1891.23800,0.01803
1889.17783,0.01837
1887.11766,0.01859
1885.05749,0.01860
1882.99731,0.01842
1880.93714,0.01823
1878.87697,0.01816
1876.81680,0.01810
1874.75663,0.01808
1872.69645,0.01833
1870.63628,0.01881
1868.57611,0.01912
1866.51594,0.01895
1864.45577,0.01861
1862.39559,0.01835
1860.33542,0.01816
1858.27525,0.01808
1856.21508,0.01822
1854.15491,0.01842
1852.09473,0.01846
1850.03456,0.01832
1847.97439,0.01802
1845.91422,0.01750
1843.85404,0.01697
1841.79387,0.01705
1839.73370,0.01766
1837.67353,0.01809
1835.61336,0.01793
1833.55318,0.01787
1831.49301,0.01842
1829.43284,0.01886
1827.37267,0.01869
1825.31250,0.01853
1823.25232,0.01867
1821.19215,0.01883
1819.13198,0.01865
1817.07181,0.01823
1815.01163,0.01799
1812.95146,0.01788
1810.89129,0.01757
1808.83112,0.01727
1806.77095,0.01730
1804.71077,0.01740
1802.65060,0.01728
1800.59043,0.01724
1798.53026,0.01730
1796.47009,0.01731
1794.40991,0.01739
1792.34974,0.01749
1790.28957,0.01730
1788.22940,0.01690
1786.16923,0.01653
1784.10905,0.01664
1782.04888,0.01720
1779.98871,0.01753
1777.92854,0.01746
1775.86836,0.01761
1773.80819,0.01807
1771.74802,0.01789
1769.68785,0.01690
1767.62768,0.01628
1765.56750,0.01645
1763.50733,0.01688
1761.44716,0.01698
1759.38699,0.01679
1757.32682,0.01671
1755.26664,0.01677
1753.20647,0.01688
1751.14630,0.01707
1749.08613,0.01724
1747.02596,0.01719
1744.96578,0.01715
1742.90561,0.01744
1740.84544,0.01779
1738.78527,0.01785
1736.72509,0.01782
1734.66492,0.01787
1732.60475,0.01786
1730.54458,0.01794
1728.48441,0.01794
1726.42423,0.01792
1724.36406,0.01794
1722.30389,0.01824
1720.24372,0.01904
1718.18355,0.01956
1716.12337,0.01872
1714.06320,0.01785
1712.00303,0.01761
1709.94286,0.01791
1707.88268,0.01842
1705.82251,0.01859
1703.76234,0.01856
1701.70217,0.01897
1699.64200,0.01936
1697.58182,0.01923
1695.52165,0.01895
1693.46148,0.01893
1691.40131,0.01923
1689.34114,0.01989
1687.28096,0.02098
1685.22079,0.02215
1683.16062,0.02205
1681.10045,0.02141
1679.04028,0.02156
1676.98010,0.02245
1674.91993,0.02352
1672.85976,0.02444
1670.79959,0.02508
1668.73941,0.02498
1666.67924,0.02461
1664.61907,0.02478
1662.55890,0.02497
1660.49873,0.02452
1658.43855,0.02432
1656.37838,0.02521
1654.31821,0.02637
1652.25804,0.02597
1650.19787,0.02543
1648.13769,0.02555
1646.07752,0.02543
1644.01735,0.02481
1641.95718,0.02466
1639.89701,0.02539
1637.83683,0.02651
1635.77666,0.02668
1633.71649,0.02582
1631.65632,0.02534
1629.59614,0.02548
1627.53597,0.02572
1625.47580,0.02577
1623.41563,0.02551
1621.35546,0.02507
1619.29528,0.02523
1617.23511,0.02570
1615.17494,0.02535
1613.11477,0.02474
1611.05460,0.02464
1608.99442,0.02479
1606.93425,0.02476
1604.87408,0.02476
1602.81391,0.02479
1600.75373,0.02468
1598.69356,0.02460
1596.63339,0.02462
1594.57322,0.02452
1592.51305,0.02426
1590.45287,0.02404
1588.39270,0.02388
1586.33253,0.02370
1584.27236,0.02345
1582.21219,0.02320
1580.15201,0.02335
1578.09184,0.02379
1576.03167,0.02344
1573.97150,0.02227
1571.91133,0.02164
1569.85115,0.02141
1567.79098,0.02073
1565.73081,0.01992
1563.67064,0.01974
1561.61046,0.02067
1559.55029,0.02130
1557.49012,0.01949
1555.42995,0.01769
1553.36978,0.01703
1551.30960,0.01694
1549.24943,0.01692
1547.18926,0.01703
1545.12909,0.01768
1543.06892,0.01880
1541.00874,0.01971
1538.94857,0.01906
1536.88840,0.01770
1534.82823,0.01703
1532.76805,0.01681
1530.70788,0.01639
1528.64771,0.01607
1526.58754,0.01589
1524.52737,0.01575
1522.46719,0.01565
1520.40702,0.01521
1518.34685,0.01490
1516.28668,0.01467
1514.22651,0.01417
1512.16633,0.01400
1510.10616,0.01474
1508.04599,0.01579
1505.98582,0.01583
1503.92565,0.01504
1501.86547,0.01452
1499.80530,0.01489
1497.74513,0.01553
1495.68496,0.01574
1493.62478,0.01598
1491.56461,0.01654
1489.50444,0.01680
1487.44427,0.01655
1485.38410,0.01638
1483.32392,0.01648
1481.26375,0.01667
1479.20358,0.01692
1477.14341,0.01736
1475.08324,0.01781
1473.02306,0.01783
1470.96289,0.01732
1468.90272,0.01689
1466.84255,0.01702
1464.78238,0.01722
1462.72220,0.01711
1460.66203,0.01740
1458.60186,0.01783
1456.54169,0.01726
1454.48151,0.01653
1452.42134,0.01644
1450.36117,0.01698
1448.30100,0.01762
1446.24083,0.01780
1444.18065,0.01771
1442.12048,0.01771
1440.06031,0.01790
1438.00014,0.01804
1435.93997,0.01787
1433.87979,0.01778
1431.81962,0.01803
1429.75945,0.01828
1427.69928,0.01825
1425.63910,0.01822
1423.57893,0.01828
1421.51876,0.01826
1419.45859,0.01804
1417.39842,0.01783
1415.33824,0.01806
1413.27807,0.01853
1411.21790,0.01883
1409.15773,0.01891
1407.09756,0.01897
1405.03738,0.01897
1402.97721,0.01890
1400.91704,0.01880
1398.85687,0.01845
1396.79670,0.01806
1394.73652,0.01799
1392.67635,0.01803
1390.61618,0.01810
1388.55601,0.01829
1386.49583,0.01841
1384.43566,0.01838
1382.37549,0.01834
1380.31532,0.01838
1378.25515,0.01859
1376.19497,0.01888
1374.13480,0.01883
1372.07463,0.01849
1370.01446,0.01841
1367.95429,0.01855
1365.89411,0.01868
1363.83394,0.01859
1361.77377,0.01827
1359.71360,0.01823
1357.65343,0.01854
1355.59325,0.01887
1353.53308,0.01900
1351.47291,0.01898
1349.41274,0.01884
1347.35256,0.01863
1345.29239,0.01849
1343.23222,0.01842
1341.17205,0.01823
1339.11188,0.01786
1337.05170,0.01781
1334.99153,0.01817
1332.93136,0.01848
1330.87119,0.01852
1328.81102,0.01849
1326.75084,0.01852
1324.69067,0.01854
1322.63050,0.01848
1320.57033,0.01840
1318.51015,0.01825
1316.44998,0.01813
1314.38981,0.01819
1312.32964,0.01833
1310.26947,0.01845
1308.20929,0.01854
1306.14912,0.01864
1304.08895,0.01881
1302.02878,0.01894
1299.96861,0.01894
1297.90843,0.01889
1295.84826,0.01891
1293.78809,0.01896
1291.72792,0.01890
1289.66775,0.01880
1287.60757,0.01880
1285.54740,0.01894
1283.48723,0.01912
1281.42706,0.01921
1279.36688,0.01924
1277.30671,0.01932
1275.24654,0.01941
1273.18637,0.01944
1271.12620,0.01939
1269.06602,0.01933
1267.00585,0.01928
1264.94568,0.01930
1262.88551,0.01943
1260.82534,0.01951
1258.76516,0.01947
1256.70499,0.01937
1254.64482,0.01923
1252.58465,0.01910
1250.52447,0.01902
1248.46430,0.01897
1246.40413,0.01889
1244.34396,0.01884
1242.28379,0.01881
1240.22361,0.01872
1238.16344,0.01870
1236.10327,0.01879
1234.04310,0.01883
1231.98293,0.01879
1229.92275,0.01871
1227.86258,0.01852
1225.80241,0.01832
1223.74224,0.01830
1221.68207,0.01836
1219.62189,0.01833
1217.56172,0.01819
1215.50155,0.01799
1213.44138,0.01777
1211.38120,0.01764
1209.32103,0.01768
1207.26086,0.01780
1205.20069,0.01786
1203.14052,0.01779
1201.08034,0.01765
1199.02017,0.01751
1196.96000,0.01765
1194.89983,0.01782
1192.83966,0.01774
1190.77948,0.01756
1188.71931,0.01746
1186.65914,0.01745
1184.59897,0.01757
1182.53880,0.01774
1180.47862,0.01790
1178.41845,0.01808
1176.35828,0.01815
1174.29811,0.01812
1172.23793,0.01823
1170.17776,0.01845
1168.11759,0.01866
1166.05742,0.01893
1163.99725,0.01923
1161.93707,0.01954
1159.87690,0.01992
1157.81673,0.02043
1155.75656,0.02087
1153.69639,0.02113
1151.63621,0.02147
1149.57604,0.02206
1147.51587,0.02273
1145.45570,0.02331
1143.39552,0.02387
1141.33535,0.02456
1139.27518,0.02532
1137.21501,0.02603
1135.15484,0.02680
1133.09466,0.02776
1131.03449,0.02871
1128.97432,0.02960
1126.91415,0.03059
1124.85398,0.03169
1122.79380,0.03292
1120.73363,0.03412
1118.67346,0.03514
1116.61329,0.03611
1114.55312,0.03722
1112.49294,0.03835
1110.43277,0.03931
1108.37260,0.04022
1106.31243,0.04128
1104.25225,0.04231
1102.19208,0.04323
1100.13191,0.04423
1098.07174,0.04522
1096.01157,0.04601
1093.95139,0.04675
1091.89122,0.04754
1089.83105,0.04832
1087.77088,0.04913
1085.71071,0.04994
1083.65053,0.05065
1081.59036,0.05127
1079.53019,0.05194
1077.47002,0.05272
1075.40985,0.05346
1073.34967,0.05408
1071.28950,0.05455
1069.22933,0.05486
1067.16916,0.05504
1065.10898,0.05506
1063.04881,0.05494
1060.98864,0.05476
1058.92847,0.05448
1056.86830,0.05400
1054.80812,0.05323
1052.74795,0.05223
1050.68778,0.05109
1048.62761,0.04985
1046.56744,0.04857
1044.50726,0.04732
1042.44709,0.04590
1040.38692,0.04426
1038.32675,0.04252
1036.26657,0.04062
1034.20640,0.03867
1032.14623,0.03707
1030.08606,0.03595
1028.02589,0.03498
1025.96571,0.03398
1023.90554,0.03298
1021.84537,0.03200
1019.78520,0.03113
1017.72503,0.03059
1015.66485,0.03047
1013.60468,0.03064
1011.54451,0.03087
1009.48434,0.03122
1007.42417,0.03173
1005.36399,0.03232
1003.30382,0.03315
1001.24365,0.03429
999.18348,0.03556
997.12330,0.03678
995.06313,0.03781
993.00296,0.03868
990.94279,0.03961
988.88262,0.04075
986.82244,0.04177
984.76227,0.04246
982.70210,0.04296
980.64193,0.04344
978.58176,0.04371
976.52158,0.04357
974.46141,0.04328
972.40124,0.04299
970.34107,0.04255
968.28089,0.04181
966.22072,0.04077
964.16055,0.03962
962.10038,0.03858
960.04021,0.03759
957.98003,0.03652
955.91986,0.03544
953.85969,0.03443
951.79952,0.03340
949.73935,0.03235
947.67917,0.03147
945.61900,0.03076
943.55883,0.03010
941.49866,0.02946
939.43849,0.02880
937.37831,0.02813
935.31814,0.02743
933.25797,0.02672
931.19780,0.02617
929.13762,0.02581
927.07745,0.02550
925.01728,0.02516
922.95711,0.02480
920.89694,0.02453
918.83676,0.02443
916.77659,0.02432
914.71642,0.02400
912.65625,0.02365
910.59608,0.02346
908.53590,0.02328
906.47573,0.02306
904.41556,0.02296
902.35539,0.02310
900.29522,0.02335
898.23504,0.02356
896.17487,0.02388
894.11470,0.02429
892.05453,0.02471
889.99435,0.02526
887.93418,0.02579
885.87401,0.02625
883.81384,0.02678
881.75367,0.02729
879.69349,0.02762
877.63332,0.02792
875.57315,0.02843
873.51298,0.02915
871.45281,0.02988
869.39263,0.03043
867.33246,0.03074
865.27229,0.03104
863.21212,0.03144
861.15194,0.03164
859.09177,0.03152
857.03160,0.03137
854.97143,0.03137
852.91126,0.03149
850.85108,0.03159
848.79091,0.03144
846.73074,0.03116
844.67057,0.03086
842.61040,0.03047
840.55022,0.03023
838.49005,0.03000
836.42988,0.02941
834.36971,0.02875
832.30954,0.02819
830.24936,0.02762
828.18919,0.02727
826.12902,0.02696
824.06885,0.02655
822.00867,0.02628
819.94850,0.02602
817.88833,0.02571
815.82816,0.02546
813.76799,0.02520
811.70781,0.02479
809.64764,0.02427
807.58747,0.02397
805.52730,0.02406
803.46713,0.02420
801.40695,0.02407
799.34678,0.02369
797.28661,0.02329
795.22644,0.02294
793.16627,0.02268
791.10609,0.02251
789.04592,0.02236
786.98575,0.02231
784.92558,0.02235
782.86540,0.02247
780.80523,0.02262
778.74506,0.02284
776.68489,0.02297
774.62472,0.02274
772.56454,0.02234
770.50437,0.02203
768.44420,0.02162
766.38403,0.02134
764.32386,0.02144
762.26368,0.02154
760.20351,0.02143
758.14334,0.02126
756.08317,0.02113
754.02299,0.02114
751.96282,0.02126
749.90265,0.02127
747.84248,0.02112
745.78231,0.02097
743.72213,0.02083
741.66196,0.02053
739.60179,0.02010
737.54162,0.01999
735.48145,0.02054
733.42127,0.02126
731.36110,0.02151
729.30093,0.02123
727.24076,0.02066
725.18059,0.02034
723.12041,0.02114
721.06024,0.02038
719.00007,0.02222
716.93990,0.02183
714.87972,0.02103
712.81955,0.02100
710.75938,0.02111
708.69921,0.02107
706.63904,0.02112
704.57886,0.02162
702.51869,0.02227
700.45852,0.02288
698.39835,0.02321
696.33818,0.02328
694.27800,0.02362
692.21783,0.02424
690.15766,0.02482
688.09749,0.02543
686.03731,0.02620
683.97714,0.02700
681.91697,0.02755
679.85680,0.02756
677.79663,0.02698
675.73645,0.02606
673.67628,0.02853
671.61611,0.04131
669.55594,0.03854
667.49577,0.00000
665.43559,0.03268
663.37542,0.03078
661.31525,0.02365
659.25508,0.02306
657.19491,0.02318
655.13473,0.02232
653.07456,0.02165
651.01439,0.02082
648.95422,0.01867
646.89404,0.01833
644.83387,0.01744
642.77370,0.01638
640.71353,0.01538
638.65336,0.01430
636.59318,0.01322
634.53301,0.01246
632.47284,0.01197
630.41267,0.01112
628.35250,0.00960
626.29232,0.00862
624.23215,0.00828
622.17198,0.00778
620.11181,0.00726
618.05164,0.00716
615.99146,0.00689
613.93129,0.00619
611.87112,0.00509
609.81095,0.00356
607.75077,0.00230
605.69060,0.00128
603.63043,0.00000
601.57026,-0.00071
599.51009,0.00000
