3996.73391,-0.00039
3994.67373,-0.00029
3992.61356,-0.00027
3990.55339,-0.00014
3988.49322,-0.00002
3986.43305,0.00002
3984.37287,0.00007
3982.31270,0.00008
3980.25253,0.00005
3978.19236,0.00012
3976.13219,0.00021
3974.07201,0.00024
3972.01184,0.00030
3969.95167,0.00046
3967.89150,0.00066
3965.83133,0.00087
3963.77115,0.00096
3961.71098,0.00082
3959.65081,0.00063
3957.59064,0.00061
3955.53046,0.00078
3953.47029,0.00096
3951.41012,0.00081
3949.34995,0.00025
3947.28978,0.00000
3945.22960,0.00049
3943.16943,0.00104
3941.10926,0.00122
3939.04909,0.00125
3936.98892,0.00116
3934.92874,0.00091
3932.86857,0.00079
3930.80840,0.00115
3928.74823,0.00168
3926.68805,0.00189
3924.62788,0.00159
3922.56771,0.00096
3920.50754,0.00051
3918.44737,0.00040
3916.38719,0.00084
3914.32702,0.00165
3912.26685,0.00211
3910.20668,0.00212
3908.14651,0.00202
3906.08633,0.00183
3904.02616,0.00126
3901.96599,0.00073
3899.90582,0.00097
3897.84565,0.00132
3895.78547,0.00136
3893.72530,0.00133
3891.66513,0.00124
3889.60496,0.00107
3887.54478,0.00104
3885.48461,0.00108
3883.42444,0.00098
3881.36427,0.00091
3879.30410,0.00105
3877.24392,0.00121
3875.18375,0.00113
3873.12358,0.00068
3871.06341,0.00014
3869.00324,0.00010
3866.94306,0.00051
3864.88289,0.00098
3862.82272,0.00117
3860.76255,0.00103
3858.70237,0.00061
3856.64220,0.00000
3854.58203,0.00013
3852.52186,0.00132
3850.46169,0.00238
3848.40151,0.00232
3846.34134,0.00200
3844.28117,0.00203
3842.22100,0.00210
3840.16083,0.00186
3838.10065,0.00150
3836.04048,0.00162
3833.98031,0.00208
3831.92014,0.00247
3829.85997,0.00286
3827.79979,0.00311
3825.73962,0.00299
3823.67945,0.00275
3821.61928,0.00288
3819.55910,0.00295
3817.49893,0.00291
3815.43876,0.00309
3813.37859,0.00336
3811.31842,0.00340
3809.25824,0.00339
3807.19807,0.00341
3805.13790,0.00353
3803.07773,0.00386
3801.01756,0.00412
3798.95738,0.00405
3796.89721,0.00398
3794.83704,0.00437
3792.77687,0.00504
3790.71670,0.00553
3788.65652,0.00578
3786.59635,0.00592
3784.53618,0.00595
3782.47601,0.00611
3780.41583,0.00655
3778.35566,0.00673
3776.29549,0.00653
3774.23532,0.00638
3772.17515,0.00633
3770.11497,0.00601
3768.05480,0.00541
3765.99463,0.00498
3763.93446,0.00483
3761.87429,0.00476
3759.81411,0.00453
3757.75394,0.00396
3755.69377,0.00333
3753.63360,0.00276
3751.57342,0.00179
3749.51325,0.00051
3747.45308,0.00000
3745.39291,0.00000
3743.33274,0.00080
3741.27256,0.00169
3739.21239,0.00183
3737.15222,0.00198
3735.09205,0.00241
3733.03188,0.00287
3730.97170,0.00333
3728.91153,0.00383
3726.85136,0.00412
3724.79119,0.00409
3722.73102,0.00421
3720.67084,0.00458
3718.61067,0.00454
3716.55050,0.00406
3714.49033,0.00416
3712.43015,0.00516
3710.36998,0.00564
3708.30981,0.00561
3706.24964,0.00591
3704.18947,0.00645
3702.12929,0.00670
3700.06912,0.00671
3698.00895,0.00688
3695.94878,0.00707
3693.88861,0.00712
3691.82843,0.00727
3689.76826,0.00732
3687.70809,0.00696
3685.64792,0.00668
3683.58775,0.00651
3681.52757,0.00638
3679.46740,0.00626
3677.40723,0.00637
3675.34706,0.00666
3673.28688,0.00684
3671.22671,0.00709
3669.16654,0.00741
3667.10637,0.00736
3665.04620,0.00714
3662.98602,0.00712
3660.92585,0.00728
3658.86568,0.00742
3656.80551,0.00747
3654.74534,0.00759
3652.68516,0.00803
3650.62499,0.00850
3648.56482,0.00828
3646.50465,0.00816
3644.44447,0.00825
3642.38430,0.00845
3640.32413,0.00887
3638.26396,0.00919
3636.20379,0.00931
3634.14361,0.00950
3632.08344,0.00984
3630.02327,0.01015
3627.96310,0.01018
3625.90293,0.01013
3623.84275,0.01026
3621.78258,0.01062
3619.72241,0.01087
3617.66224,0.01063
3615.60207,0.01015
3613.54189,0.00979
3611.48172,0.00986
3609.42155,0.01051
3607.36138,0.01138
3605.30120,0.01223
3603.24103,0.01305
3601.18086,0.01369
3599.12069,0.01400
3597.06052,0.01405
3595.00034,0.01397
3592.94017,0.01418
3590.88000,0.01468
3588.81983,0.01483
3586.75966,0.01454
3584.69948,0.01478
3582.63931,0.01564
3580.57914,0.01649
3578.51897,0.01700
3576.45879,0.01727
3574.39862,0.01751
3572.33845,0.01788
3570.27828,0.01819
3568.21811,0.01804
3566.15793,0.01774
3564.09776,0.01794
3562.03759,0.01838
3559.97742,0.01880
3557.91725,0.01919
3555.85707,0.01954
3553.79690,0.01980
3551.73673,0.01988
3549.67656,0.01982
3547.61639,0.01964
3545.55621,0.01954
3543.49604,0.01989
3541.43587,0.02062
3539.37570,0.02140
3537.31552,0.02200
3535.25535,0.02245
3533.19518,0.02288
3531.13501,0.02320
3529.07484,0.02326
3527.01466,0.02308
3524.95449,0.02305
3522.89432,0.02343
3520.83415,0.02399
3518.77398,0.02446
3516.71380,0.02480
3514.65363,0.02506
3512.59346,0.02527
3510.53329,0.02532
3508.47312,0.02520
3506.41294,0.02516
3504.35277,0.02522
3502.29260,0.02537
3500.23243,0.02598
3498.17225,0.02693
3496.11208,0.02754
3494.05191,0.02766
3491.99174,0.02773
3489.93157,0.02797
3487.87139,0.02814
3485.81122,0.02814
3483.75105,0.02827
3481.69088,0.02847
3479.63071,0.02851
3477.57053,0.02873
3475.51036,0.02921
3473.45019,0.02950
3471.39002,0.02957
3469.32984,0.02973
3467.26967,0.02996
3465.20950,0.03005
3463.14933,0.03008
3461.08916,0.03014
3459.02898,0.03040
3456.96881,0.03090
3454.90864,0.03136
3452.84847,0.03162
3450.78830,0.03185
3448.72812,0.03204
3446.66795,0.03202
3444.60778,0.03194
3442.54761,0.03192
3440.48744,0.03189
3438.42726,0.03199
3436.36709,0.03220
3434.30692,0.03232
3432.24675,0.03246
3430.18657,0.03277
3428.12640,0.03305
3426.06623,0.03310
3424.00606,0.03310
3421.94589,0.03316
3419.88571,0.03319
3417.82554,0.03347
3415.76537,0.03404
3413.70520,0.03461
3411.64503,0.03493
3409.58485,0.03480
3407.52468,0.03448
3405.46451,0.03445
3403.40434,0.03466
3401.34416,0.03476
3399.28399,0.03382
3397.22382,0.03386
3395.16365,0.03416
3393.10348,0.03440
3391.04330,0.03474
3388.98313,0.03514
3386.92296,0.03531
3384.86279,0.03531
3382.80262,0.03543
3380.74244,0.03574
3378.68227,0.03617
3376.62210,0.03647
3374.56193,0.03658
3372.50176,0.03653
3370.44158,0.03629
3368.38141,0.03597
3366.32124,0.03587
3364.26107,0.03613
3362.20089,0.03634
3360.14072,0.03629
3358.08055,0.03630
3356.02038,0.03642
3353.96021,0.03658
3351.90003,0.03676
3349.83986,0.03696
3347.77969,0.03721
3345.71952,0.03734
3343.65935,0.03721
3341.59917,0.03693
3339.53900,0.03673
3337.47883,0.03676
3335.41866,0.03699
3333.35849,0.03731
3331.29831,0.03769
3329.23814,0.03801
3327.17797,0.03796
3325.11780,0.03762
3323.05762,0.03747
3320.99745,0.03764
3318.93728,0.03776
3316.87711,0.03772
3314.81694,0.03757
3312.75676,0.03734
3310.69659,0.03722
3308.63642,0.03736
3306.57625,0.03758
3304.51608,0.03776
3302.45590,0.03798
3300.39573,0.03816
3298.33556,0.03813
3296.27539,0.03807
3294.21521,0.03808
3292.15504,0.03804
3290.09487,0.03800
3288.03470,0.03807
3285.97453,0.03815
3283.91435,0.03811
3281.85418,0.03809
3279.79401,0.03807
3277.73384,0.03802
3275.67367,0.03803
3273.61349,0.03808
3271.55332,0.03810
3269.49315,0.03812
3267.43298,0.03818
3265.37281,0.03818
3263.31263,0.03824
3261.25246,0.03835
3259.19229,0.03835
3257.13212,0.03811
3255.07194,0.03772
3253.01177,0.03759
3250.95160,0.03780
3248.89143,0.03800
3246.83126,0.03800
3244.77108,0.03798
3242.71091,0.03807
3240.65074,0.03816
3238.59057,0.03821
3236.53040,0.03825
3234.47022,0.03824
3232.41005,0.03824
3230.34988,0.03820
3228.28971,0.03810
3226.22954,0.03804
3224.16936,0.03798
3222.10919,0.03778
3220.04902,0.03757
3217.98885,0.03765
3215.92867,0.03785
3213.86850,0.03794
3211.80833,0.03799
3209.74816,0.03798
3207.68799,0.03784
3205.62781,0.03773
3203.56764,0.03778
3201.50747,0.03776
3199.44730,0.03759
3197.38713,0.03745
3195.32695,0.03741
3193.26678,0.03740
3191.20661,0.03744
3189.14644,0.03753
3187.08626,0.03751
3185.02609,0.03736
3182.96592,0.03728
3180.90575,0.03718
3178.84558,0.03691
3176.78540,0.03688
3174.72523,0.03721
3172.66506,0.03743
3170.60489,0.03734
3168.54472,0.03721
3166.48454,0.03719
3164.42437,0.03712
3162.36420,0.03693
3160.30403,0.03683
3158.24386,0.03685
3156.18368,0.03674
3154.12351,0.03649
3152.06334,0.03636
3150.00317,0.03643
3147.94299,0.03653
3145.88282,0.03658
3143.82265,0.03653
3141.76248,0.03633
3139.70231,0.03612
3137.64213,0.03608
3135.58196,0.03611
3133.52179,0.03603
3131.46162,0.03595
3129.40145,0.03595
3127.34127,0.03578
3125.28110,0.03546
3123.22093,0.03518
3121.16076,0.03492
3119.10058,0.03465
3117.04041,0.03449
3114.98024,0.03454
3112.92007,0.03477
3110.85990,0.03503
3108.79972,0.03514
3106.73955,0.03495
3104.67938,0.03460
3102.61921,0.03440
3100.55904,0.03444
3098.49886,0.03452
3096.43869,0.03444
3094.37852,0.03425
3092.31835,0.03418
3090.25818,0.03420
3088.19800,0.03415
3086.13783,0.03405
3084.07766,0.03395
3082.01749,0.03392
3079.95731,0.03393
3077.89714,0.03389
3075.83697,0.03382
3073.77680,0.03379
3071.71663,0.03380
3069.65645,0.03372
3067.59628,0.03343
3065.53611,0.03314
3063.47594,0.03312
3061.41577,0.03328
3059.35559,0.03333
3057.29542,0.03316
3055.23525,0.03293
3053.17508,0.03278
3051.11491,0.03268
3049.05473,0.03251
3046.99456,0.03230
3044.93439,0.03215
3042.87422,0.03212
3040.81404,0.03213
3038.75387,0.03204
3036.69370,0.03190
3034.63353,0.03178
3032.57336,0.03163
3030.51318,0.03134
3028.45301,0.03098
3026.39284,0.03077
3024.33267,0.03078
3022.27250,0.03089
3020.21232,0.03093
3018.15215,0.03079
3016.09198,0.03045
3014.03181,0.03006
3011.97163,0.02980
3009.91146,0.02977
3007.85129,0.02984
3005.79112,0.02982
3003.73095,0.02971
3001.67077,0.02962
2999.61060,0.02960
2997.55043,0.02932
2995.49026,0.02911
2993.43009,0.02915
2991.36991,0.02936
2989.30974,0.02936
2987.24957,0.02916
2985.18940,0.02908
2983.12923,0.02907
2981.06905,0.02904
2979.00888,0.02900
2976.94871,0.02898
2974.88854,0.02897
2972.82836,0.02899
2970.76819,0.02906
2968.70802,0.02907
2966.64785,0.02905
2964.58768,0.02905
2962.52750,0.02912
2960.46733,0.02932
2958.40716,0.02955
2956.34699,0.02959
2954.28682,0.02942
2952.22664,0.02927
2950.16647,0.02916
2948.10630,0.02894
2946.04613,0.02879
2943.98596,0.02880
2941.92578,0.02874
2939.86561,0.02862
2937.80544,0.02865
2935.74527,0.02883
2933.68509,0.02905
2931.62492,0.02920
2929.56475,0.02923
2927.50458,0.02933
2925.44441,0.02955
2923.38423,0.02972
2921.32406,0.02992
2919.26389,0.03014
2917.20372,0.03017
2915.14355,0.02998
2913.08337,0.02960
2911.02320,0.02905
2908.96303,0.02854
2906.90286,0.02817
2904.84268,0.02784
2902.78251,0.02754
2900.72234,0.02739
2898.66217,0.02736
2896.60200,0.02731
2894.54182,0.02716
2892.48165,0.02695
2890.42148,0.02680
2888.36131,0.02677
2886.30114,0.02672
2884.24096,0.02668
2882.18079,0.02670
2880.12062,0.02654
2878.06045,0.02627
2876.00028,0.02614
2873.94010,0.02607
2871.87993,0.02599
2869.81976,0.02591
2867.75959,0.02582
2865.69941,0.02563
2863.63924,0.02537
2861.57907,0.02533
2859.51890,0.02546
2857.45873,0.02551
2855.39855,0.02560
2853.33838,0.02579
2851.27821,0.02601
2849.21804,0.02613
2847.15787,0.02595
2845.09769,0.02551
2843.03752,0.02506
2840.97735,0.02466
2838.91718,0.02427
2836.85700,0.02390
2834.79683,0.02365
2832.73666,0.02357
2830.67649,0.02359
2828.61632,0.02351
2826.55614,0.02331
2824.49597,0.02320
2822.43580,0.02312
2820.37563,0.02294
2818.31546,0.02279
2816.25528,0.02277
2814.19511,0.02287
2812.13494,0.02295
2810.07477,0.02284
2808.01460,0.02261
2805.95442,0.02244
2803.89425,0.02230
2801.83408,0.02219
2799.77391,0.02216
2797.71373,0.02212
2795.65356,0.02201
2793.59339,0.02193
2791.53322,0.02192
2789.47305,0.02192
2787.41287,0.02187
2785.35270,0.02180
2783.29253,0.02174
2781.23236,0.02169
2779.17219,0.02165
2777.11201,0.02167
2775.05184,0.02159
2772.99167,0.02134
2770.93150,0.02115
2768.87133,0.02110
2766.81115,0.02110
2764.75098,0.02106
2762.69081,0.02098
2760.63064,0.02081
2758.57046,0.02066
2756.51029,0.02065
2754.45012,0.02071
2752.38995,0.02079
2750.32978,0.02075
2748.26960,0.02057
2746.20943,0.02036
2744.14926,0.02014
2742.08909,0.02000
2740.02892,0.02005
2737.96874,0.02019
2735.90857,0.02019
2733.84840,0.02007
2731.78823,0.02000
2729.72805,0.01999
2727.66788,0.01986
2725.60771,0.01966
2723.54754,0.01955
2721.48737,0.01955
2719.42719,0.01955
2717.36702,0.01952
2715.30685,0.01950
2713.24668,0.01937
2711.18651,0.01921
2709.12633,0.01913
2707.06616,0.01907
2705.00599,0.01903
2702.94582,0.01905
2700.88565,0.01907
2698.82547,0.01899
2696.76530,0.01880
2694.70513,0.01861
2692.64496,0.01850
2690.58478,0.01841
2688.52461,0.01837
2686.46444,0.01831
2684.40427,0.01821
2682.34410,0.01814
2680.28392,0.01815
2678.22375,0.01818
2676.16358,0.01813
2674.10341,0.01804
2672.04324,0.01802
2669.98306,0.01796
2667.92289,0.01782
2665.86272,0.01769
2663.80255,0.01759
2661.74238,0.01753
2659.68220,0.01752
2657.62203,0.01758
2655.56186,0.01762
2653.50169,0.01749
2651.44151,0.01736
2649.38134,0.01728
2647.32117,0.01720
2645.26100,0.01714
2643.20083,0.01713
2641.14065,0.01706
2639.08048,0.01691
2637.02031,0.01687
2634.96014,0.01695
2632.89997,0.01698
2630.83979,0.01683
2628.77962,0.01664
2626.71945,0.01654
2624.65928,0.01651
2622.59910,0.01638
2620.53893,0.01615
2618.47876,0.01619
2616.41859,0.01638
2614.35842,0.01639
2612.29824,0.01636
2610.23807,0.01635
2608.17790,0.01620
2606.11773,0.01594
2604.05756,0.01570
2601.99738,0.01559
2599.93721,0.01568
2597.87704,0.01576
2595.81687,0.01575
2593.75670,0.01577
2591.69652,0.01583
2589.63635,0.01588
2587.57618,0.01579
2585.51601,0.01550
2583.45583,0.01526
2581.39566,0.01515
2579.33549,0.01510
2577.27532,0.01504
2575.21515,0.01495
2573.15497,0.01483
2571.09480,0.01466
2569.03463,0.01461
2566.97446,0.01495
2564.91429,0.01533
2562.85411,0.01536
2560.79394,0.01537
2558.73377,0.01548
2556.67360,0.01536
2554.61342,0.01508
2552.55325,0.01501
2550.49308,0.01521
2548.43291,0.01536
2546.37274,0.01517
2544.31256,0.01488
2542.25239,0.01482
2540.19222,0.01482
2538.13205,0.01479
2536.07188,0.01481
2534.01170,0.01495
2531.95153,0.01524
2529.89136,0.01542
2527.83119,0.01530
2525.77102,0.01516
2523.71084,0.01509
2521.65067,0.01492
2519.59050,0.01472
2517.53033,0.01468
2515.47015,0.01483
2513.40998,0.01497
2511.34981,0.01503
2509.28964,0.01516
2507.22947,0.01532
2505.16929,0.01531
2503.10912,0.01521
2501.04895,0.01505
2498.98878,0.01471
2496.92861,0.01451
2494.86843,0.01474
2492.80826,0.01515
2490.74809,0.01541
2488.68792,0.01541
2486.62775,0.01537
2484.56757,0.01543
2482.50740,0.01544
2480.44723,0.01538
2478.38706,0.01542
2476.32688,0.01559
2474.26671,0.01577
2472.20654,0.01582
2470.14637,0.01573
2468.08620,0.01554
2466.02602,0.01530
2463.96585,0.01524
2461.90568,0.01554
2459.84551,0.01586
2457.78534,0.01584
2455.72516,0.01563
2453.66499,0.01549
2451.60482,0.01545
2449.54465,0.01559
2447.48447,0.01585
2445.42430,0.01595
2443.36413,0.01586
2441.30396,0.01587
2439.24379,0.01603
2437.18361,0.01604
2435.12344,0.01579
2433.06327,0.01551
2431.00310,0.01544
2428.94293,0.01562
2426.88275,0.01571
2424.82258,0.01566
2422.76241,0.01569
2420.70224,0.01564
2418.64207,0.01551
2416.58189,0.01536
2414.52172,0.01527
2412.46155,0.01522
2410.40138,0.01505
2408.34120,0.01488
2406.28103,0.01478
2404.22086,0.01478
2402.16069,0.01496
2400.10052,0.01512
2398.04034,0.01501
2395.98017,0.01511
2393.92000,0.01528
2391.85983,0.01527
2389.79966,0.01512
2387.73948,0.01494
2385.67931,0.01469
2383.61914,0.01439
2381.55897,0.01412
2379.49880,0.01396
2377.43862,0.01398
2375.37845,0.01439
2373.31828,0.01491
2371.25811,0.01554
2369.19793,0.01648
2367.13776,0.01715
2365.07759,0.01717
2363.01742,0.01722
2360.95725,0.01626
2358.89707,0.01590
2356.83690,0.01601
2354.77673,0.01620
2352.71656,0.01560
2350.65639,0.01388
2348.59621,0.01333
2346.53604,0.01587
2344.47587,0.01675
2342.41570,0.01680
2340.35552,0.01676
2338.29535,0.01648
2336.23518,0.01647
2334.17501,0.01666
2332.11484,0.01648
2330.05466,0.01558
2327.99449,0.01506
2325.93432,0.01442
2323.87415,0.01398
2321.81398,0.01329
2319.75380,0.01314
2317.69363,0.01263
2315.63346,0.01228
2313.57329,0.01227
2311.51312,0.01233
2309.45294,0.01243
2307.39277,0.01259
2305.33260,0.01296
2303.27243,0.01339
2301.21225,0.01371
2299.15208,0.01370
2297.09191,0.01359
2295.03174,0.01374
2292.97157,0.01402
2290.91139,0.01419
2288.85122,0.01422
2286.79105,0.01415
2284.73088,0.01403
2282.67071,0.01397
2280.61053,0.01410
2278.55036,0.01433
2276.49019,0.01444
2274.43002,0.01429
2272.36984,0.01396
2270.30967,0.01366
2268.24950,0.01368
2266.18933,0.01399
2264.12916,0.01427
2262.06898,0.01436
2260.00881,0.01434
2257.94864,0.01417
2255.88847,0.01380
2253.82830,0.01338
2251.76812,0.01299
2249.70795,0.01258
2247.64778,0.01253
2245.58761,0.01306
2243.52744,0.01341
2241.46726,0.01322
2239.40709,0.01315
2237.34692,0.01345
2235.28675,0.01362
2233.22657,0.01368
2231.16640,0.01384
2229.10623,0.01374
2227.04606,0.01341
2224.98589,0.01307
2222.92571,0.01253
2220.86554,0.01206
2218.80537,0.01221
2216.74520,0.01261
2214.68503,0.01242
2212.62485,0.01204
2210.56468,0.01240
2208.50451,0.01312
2206.44434,0.01334
2204.38417,0.01314
2202.32399,0.01304
2200.26382,0.01269
2198.20365,0.01222
2196.14348,0.01235
2194.08330,0.01249
2192.02313,0.01233
2189.96296,0.01220
2187.90279,0.01192
2185.84262,0.01171
2183.78244,0.01210
2181.72227,0.01261
2179.66210,0.01252
2177.60193,0.01221
2175.54176,0.01222
2173.48158,0.01213
2171.42141,0.01164
2169.36124,0.01133
2167.30107,0.01135
2165.24089,0.01115
2163.18072,0.01064
2161.12055,0.00987
2159.06038,0.00924
2157.00021,0.00899
2154.94003,0.00911
2152.87986,0.01009
2150.81969,0.01145
2148.75952,0.01168
2146.69935,0.01109
2144.63917,0.01109
2142.57900,0.01112
2140.51883,0.01061
2138.45866,0.01023
2136.39849,0.01008
2134.33831,0.01014
2132.27814,0.01050
2130.21797,0.01098
2128.15780,0.01145
2126.09762,0.01143
2124.03745,0.01105
2121.97728,0.01110
2119.91711,0.01133
2117.85694,0.01103
2115.79676,0.01055
2113.73659,0.01060
2111.67642,0.01093
2109.61625,0.01102
2107.55608,0.01103
2105.49590,0.01104
2103.43573,0.01093
2101.37556,0.01089
2099.31539,0.01157
2097.25521,0.01169
2095.19504,0.01125
2093.13487,0.01066
2091.07470,0.01015
2089.01453,0.00992
2086.95435,0.01015
2084.89418,0.01047
2082.83401,0.01070
2080.77384,0.01134
2078.71367,0.01215
2076.65349,0.01230
2074.59332,0.01195
2072.53315,0.01177
2070.47298,0.01181
2068.41281,0.01186
2066.35263,0.01192
2064.29246,0.01176
2062.23229,0.01133
2060.17212,0.01120
2058.11194,0.01111
2056.05177,0.01039
2053.99160,0.00988
2051.93143,0.01048
2049.87126,0.01162
2047.81108,0.01265
2045.75091,0.01353
2043.69074,0.01382
2041.63057,0.01351
2039.57040,0.01313
2037.51022,0.01255
2035.45005,0.01179
2033.38988,0.01134
2031.32971,0.01099
2029.26954,0.01069
2027.20936,0.01095
2025.14919,0.01137
2023.08902,0.01160
2021.02885,0.01190
2018.96867,0.01209
2016.90850,0.01207
2014.84833,0.01227
2012.78816,0.01266
2010.72799,0.01330
2008.66781,0.01417
2006.60764,0.01399
2004.54747,0.01214
2002.48730,0.01027
2000.42713,0.00958
1998.36695,0.00954
1996.30678,0.00944
1994.24661,0.00922
1992.18644,0.00898
1990.12626,0.00891
1988.06609,0.00898
1986.00592,0.00908
1983.94575,0.00949
1981.88558,0.01069
1979.82540,0.01258
1977.76523,0.01399
1975.70506,0.01378
1973.64489,0.01268
1971.58472,0.01191
1969.52454,0.01171
1967.46437,0.01207
1965.40420,0.01237
1963.34403,0.01214
1961.28386,0.01160
1959.22368,0.01069
1957.16351,0.00963
1955.10334,0.00902
1953.04317,0.00888
1950.98299,0.00891
1948.92282,0.00925
1946.86265,0.00966
1944.80248,0.00986
1942.74231,0.01017
1940.68213,0.01048
1938.62196,0.01062
1936.56179,0.01071
1934.50162,0.01073
1932.44145,0.01055
1930.38127,0.01026
1928.32110,0.01006
1926.26093,0.00999
1924.20076,0.00974
1922.14059,0.00928
1920.08041,0.00894
1918.02024,0.00893
1915.96007,0.00917
1913.89990,0.00962
1911.83972,0.00999
1909.77955,0.01015
1907.71938,0.01019
1905.65921,0.01010
1903.59904,0.00979
1901.53886,0.00954
1899.47869,0.00959
1897.41852,0.00976
1895.35835,0.00971
1893.29818,0.00948
1891.23800,0.00942
1889.17783,0.00950
1887.11766,0.00955
1885.05749,0.00960
1882.99731,0.00956
1880.93714,0.00935
1878.87697,0.00912
1876.81680,0.00906
1874.75663,0.00928
1872.69645,0.00973
1870.63628,0.01032
1868.57611,0.01060
1866.51594,0.01023
1864.45577,0.00967
1862.39559,0.00937
1860.33542,0.00925
1858.27525,0.00916
1856.21508,0.00903
1854.15491,0.00888
1852.09473,0.00881
1850.03456,0.00880
1847.97439,0.00867
1845.91422,0.00833
1843.85404,0.00799
1841.79387,0.00803
1839.73370,0.00841
1837.67353,0.00870
1835.61336,0.00857
1833.55318,0.00855
1831.49301,0.00906
1829.43284,0.00942
1827.37267,0.00919
1825.31250,0.00891
1823.25232,0.00896
1821.19215,0.00917
1819.13198,0.00918
1817.07181,0.00897
1815.01163,0.00883
1812.95146,0.00872
1810.89129,0.00841
1808.83112,0.00803
1806.77095,0.00785
1804.71077,0.00778
1802.65060,0.00768
1800.59043,0.00778
1798.53026,0.00800
1796.47009,0.00816
1794.40991,0.00831
1792.34974,0.00822
1790.28957,0.00777
1788.22940,0.00732
1786.16923,0.00706
1784.10905,0.00722
1782.04888,0.00766
1779.98871,0.00771
1777.92854,0.00748
1775.86836,0.00774
1773.80819,0.00837
1771.74802,0.00830
1769.68785,0.00737
1767.62768,0.00679
1765.56750,0.00700
1763.50733,0.00751
1761.44716,0.00770
1759.38699,0.00756
1757.32682,0.00748
1755.26664,0.00756
1753.20647,0.00779
1751.14630,0.00816
1749.08613,0.00842
1747.02596,0.00833
1744.96578,0.00825
1742.90561,0.00849
1740.84544,0.00874
1738.78527,0.00877
1736.72509,0.00886
1734.66492,0.00892
1732.60475,0.00870
1730.54458,0.00866
1728.48441,0.00873
1726.42423,0.00878
1724.36406,0.00875
1722.30389,0.00889
1720.24372,0.00957
1718.18355,0.01011
1716.12337,0.00941
1714.06320,0.00869
1712.00303,0.00853
1709.94286,0.00880
1707.88268,0.00925
1705.82251,0.00934
1703.76234,0.00927
1701.70217,0.00978
1699.64200,0.01031
1697.58182,0.01024
1695.52165,0.01009
1693.46148,0.01033
1691.40131,0.01093
1689.34114,0.01196
1687.28096,0.01348
1685.22079,0.01510
1683.16062,0.01535
1681.10045,0.01495
1679.04028,0.01539
1676.98010,0.01659
1674.91993,0.01792
1672.85976,0.01910
1670.79959,0.02002
1668.73941,0.02023
1666.67924,0.02022
1664.61907,0.02067
1662.55890,0.02095
1660.49873,0.02064
1658.43855,0.02076
1656.37838,0.02185
1654.31821,0.02282
1652.25804,0.02214
1650.19787,0.02171
1648.13769,0.02194
1646.07752,0.02159
1644.01735,0.02070
1641.95718,0.02045
1639.89701,0.02114
1637.83683,0.02205
1635.77666,0.02176
1633.71649,0.02060
1631.65632,0.02014
1629.59614,0.02028
1627.53597,0.02031
1625.47580,0.02010
1623.41563,0.01965
1621.35546,0.01910
1619.29528,0.01920
1617.23511,0.01958
1615.17494,0.01905
1613.11477,0.01825
1611.05460,0.01806
1608.99442,0.01821
1606.93425,0.01822
1604.87408,0.01821
1602.81391,0.01821
1600.75373,0.01801
1598.69356,0.01778
1596.63339,0.01774
1594.57322,0.01766
1592.51305,0.01733
1590.45287,0.01696
1588.39270,0.01678
1586.33253,0.01671
1584.27236,0.01651
1582.21219,0.01624
1580.15201,0.01633
1578.09184,0.01666
1576.03167,0.01619
1573.97150,0.01504
1571.91133,0.01455
1569.85115,0.01444
1567.79098,0.01373
1565.73081,0.01291
1563.67064,0.01287
1561.61046,0.01402
1559.55029,0.01476
1557.49012,0.01282
1555.42995,0.01091
1553.36978,0.01025
1551.30960,0.01018
1549.24943,0.01012
1547.18926,0.01025
1545.12909,0.01098
1543.06892,0.01217
1541.00874,0.01293
1538.94857,0.01196
1536.88840,0.01053
1534.82823,0.00996
1532.76805,0.00973
1530.70788,0.00925
1528.64771,0.00887
1526.58754,0.00848
1524.52737,0.00814
1522.46719,0.00801
1520.40702,0.00754
1518.34685,0.00712
1516.28668,0.00676
1514.22651,0.00618
1512.16633,0.00601
1510.10616,0.00676
1508.04599,0.00770
1505.98582,0.00745
1503.92565,0.00661
1501.86547,0.00631
1499.80530,0.00681
1497.74513,0.00731
1495.68496,0.00732
1493.62478,0.00752
1491.56461,0.00810
1489.50444,0.00823
1487.44427,0.00781
1485.38410,0.00758
1483.32392,0.00768
1481.26375,0.00789
1479.20358,0.00817
1477.14341,0.00861
1475.08324,0.00906
1473.02306,0.00919
1470.96289,0.00890
1468.90272,0.00868
1466.84255,0.00891
1464.78238,0.00912
1462.72220,0.00907
1460.66203,0.00949
1458.60186,0.00997
1456.54169,0.00928
1454.48151,0.00846
1452.42134,0.00840
1450.36117,0.00899
1448.30100,0.00963
1446.24083,0.00990
1444.18065,0.00998
1442.12048,0.01008
1440.06031,0.01021
1438.00014,0.01020
1435.93997,0.00987
1433.87979,0.00968
1431.81962,0.00990
1429.75945,0.01025
1427.69928,0.01043
1425.63910,0.01060
1423.57893,0.01073
1421.51876,0.01073
1419.45859,0.01053
1417.39842,0.01030
1415.33824,0.01045
1413.27807,0.01083
1411.21790,0.01108
1409.15773,0.01123
1407.09756,0.01141
1405.03738,0.01145
1402.97721,0.01131
1400.91704,0.01114
1398.85687,0.01076
1396.79670,0.01028
1394.73652,0.01010
1392.67635,0.01009
1390.61618,0.01018
1388.55601,0.01029
1386.49583,0.01030
1384.43566,0.01026
1382.37549,0.01023
1380.31532,0.01020
1378.25515,0.01032
1376.19497,0.01056
1374.13480,0.01048
1372.07463,0.01013
1370.01446,0.01001
1367.95429,0.01010
1365.89411,0.01017
1363.83394,0.01002
1361.77377,0.00965
1359.71360,0.00961
1357.65343,0.00988
1355.59325,0.01009
1353.53308,0.01013
1351.47291,0.01013
1349.41274,0.01005
1347.35256,0.00985
1345.29239,0.00963
1343.23222,0.00945
1341.17205,0.00917
1339.11188,0.00874
1337.05170,0.00862
1334.99153,0.00891
1332.93136,0.00918
1330.87119,0.00923
1328.81102,0.00917
1326.75084,0.00911
1324.69067,0.00906
1322.63050,0.00911
1320.57033,0.00928
1318.51015,0.00931
1316.44998,0.00918
1314.38981,0.00907
1312.32964,0.00906
1310.26947,0.00913
1308.20929,0.00921
1306.14912,0.00922
1304.08895,0.00926
1302.02878,0.00937
1299.96861,0.00948
1297.90843,0.00958
1295.84826,0.00975
1293.78809,0.00988
1291.72792,0.00980
1289.66775,0.00960
1287.60757,0.00945
1285.54740,0.00943
1283.48723,0.00949
1281.42706,0.00951
1279.36688,0.00949
1277.30671,0.00954
1275.24654,0.00960
1273.18637,0.00955
1271.12620,0.00939
1269.06602,0.00923
1267.00585,0.00915
1264.94568,0.00923
1262.88551,0.00945
1260.82534,0.00957
1258.76516,0.00956
1256.70499,0.00956
1254.64482,0.00948
1252.58465,0.00935
1250.52447,0.00924
1248.46430,0.00914
1246.40413,0.00900
1244.34396,0.00887
1242.28379,0.00878
1240.22361,0.00876
1238.16344,0.00881
1236.10327,0.00880
1234.04310,0.00862
1231.98293,0.00844
1229.92275,0.00830
1227.86258,0.00812
1225.80241,0.00798
1223.74224,0.00792
1221.68207,0.00780
1219.62189,0.00760
1217.56172,0.00742
1215.50155,0.00723
1213.44138,0.00697
1211.38120,0.00672
1209.32103,0.00659
1207.26086,0.00652
1205.20069,0.00655
1203.14052,0.00661
1201.08034,0.00653
1199.02017,0.00627
1196.96000,0.00620
1194.89983,0.00627
1192.83966,0.00624
1190.77948,0.00606
1188.71931,0.00589
1186.65914,0.00586
1184.59897,0.00597
1182.53880,0.00611
1180.47862,0.00628
1178.41845,0.00650
1176.35828,0.00658
1174.29811,0.00651
1172.23793,0.00661
1170.17776,0.00691
1168.11759,0.00721
1166.05742,0.00743
1163.99725,0.00765
1161.93707,0.00789
1159.87690,0.00820
1157.81673,0.00858
1155.75656,0.00894
1153.69639,0.00927
1151.63621,0.00970
1149.57604,0.01022
1147.51587,0.01073
1145.45570,0.01117
1143.39552,0.01161
1141.33535,0.01217
1139.27518,0.01284
1137.21501,0.01348
1135.15484,0.01413
1133.09466,0.01493
1131.03449,0.01577
1128.97432,0.01650
1126.91415,0.01727
1124.85398,0.01817
1122.79380,0.01920
1120.73363,0.02023
1118.67346,0.02110
1116.61329,0.02191
1114.55312,0.02286
1112.49294,0.02388
1110.43277,0.02481
1108.37260,0.02567
1106.31243,0.02659
1104.25225,0.02749
1102.19208,0.02822
1100.13191,0.02894
1098.07174,0.02974
1096.01157,0.03043
1093.95139,0.03099
1091.89122,0.03157
1089.83105,0.03221
1087.77088,0.03286
1085.71071,0.03339
1083.65053,0.03380
1081.59036,0.03430
1079.53019,0.03490
1077.47002,0.03545
1075.40985,0.03588
1073.34967,0.03626
1071.28950,0.03651
1069.22933,0.03659
1067.16916,0.03661
1065.10898,0.03655
1063.04881,0.03643
1060.98864,0.03625
1058.92847,0.03593
1056.86830,0.03552
1054.80812,0.03509
1052.74795,0.03455
1050.68778,0.03382
1048.62761,0.03304
1046.56744,0.03240
1044.50726,0.03176
1042.44709,0.03085
1040.38692,0.02966
1038.32675,0.02834
1036.26657,0.02689
1034.20640,0.02526
1032.14623,0.02389
1030.08606,0.02301
1028.02589,0.02228
1025.96571,0.02144
1023.90554,0.02047
1021.84537,0.01946
1019.78520,0.01858
1017.72503,0.01790
1015.66485,0.01750
1013.60468,0.01744
1011.54451,0.01751
1009.48434,0.01759
1007.42417,0.01777
1005.36399,0.01802
1003.30382,0.01842
1001.24365,0.01911
999.18348,0.01998
997.12330,0.02084
995.06313,0.02157
993.00296,0.02226
990.94279,0.02298
988.88262,0.02364
986.82244,0.02418
984.76227,0.02462
982.70210,0.02492
980.64193,0.02506
978.58176,0.02513
976.52158,0.02511
974.46141,0.02503
972.40124,0.02482
970.34107,0.02430
968.28089,0.02342
966.22072,0.02241
964.16055,0.02150
962.10038,0.02077
960.04021,0.02010
957.98003,0.01934
955.91986,0.01853
953.85969,0.01768
951.79952,0.01679
949.73935,0.01588
947.67917,0.01505
945.61900,0.01438
943.55883,0.01378
941.49866,0.01308
939.43849,0.01236
937.37831,0.01176
935.31814,0.01110
933.25797,0.01027
931.19780,0.00962
929.13762,0.00937
927.07745,0.00936
925.01728,0.00927
922.95711,0.00895
920.89694,0.00853
918.83676,0.00826
916.77659,0.00811
914.71642,0.00778
912.65625,0.00737
910.59608,0.00720
908.53590,0.00714
906.47573,0.00701
904.41556,0.00697
902.35539,0.00711
900.29522,0.00722
898.23504,0.00721
896.17487,0.00724
894.11470,0.00735
892.05453,0.00768
889.99435,0.00826
887.93418,0.00873
885.87401,0.00899
883.81384,0.00929
881.75367,0.00965
879.69349,0.00979
877.63332,0.00984
875.57315,0.01014
873.51298,0.01066
871.45281,0.01123
869.39263,0.01181
867.33246,0.01230
865.27229,0.01263
863.21212,0.01289
861.15194,0.01304
859.09177,0.01311
857.03160,0.01325
854.97143,0.01333
852.91126,0.01327
850.85108,0.01325
848.79091,0.01323
846.73074,0.01314
844.67057,0.01312
842.61040,0.01309
840.55022,0.01278
838.49005,0.01223
836.42988,0.01160
834.36971,0.01109
832.30954,0.01086
830.24936,0.01073
828.18919,0.01047
826.12902,0.01006
824.06885,0.00960
822.00867,0.00933
819.94850,0.00927
817.88833,0.00918
815.82816,0.00908
813.76799,0.00889
811.70781,0.00841
809.64764,0.00797
807.58747,0.00790
805.52730,0.00789
803.46713,0.00779
801.40695,0.00774
799.34678,0.00740
797.28661,0.00679
795.22644,0.00651
793.16627,0.00652
791.10609,0.00633
789.04592,0.00595
786.98575,0.00568
784.92558,0.00565
782.86540,0.00580
780.80523,0.00580
778.74506,0.00560
776.68489,0.00548
774.62472,0.00543
772.56454,0.00545
770.50437,0.00555
768.44420,0.00552
766.38403,0.00552
764.32386,0.00568
762.26368,0.00580
760.20351,0.00581
758.14334,0.00558
756.08317,0.00520
754.02299,0.00496
751.96282,0.00508
749.90265,0.00535
747.84248,0.00530
745.78231,0.00505
743.72213,0.00496
741.66196,0.00477
739.60179,0.00446
737.54162,0.00440
735.48145,0.00463
733.42127,0.00495
731.36110,0.00502
729.30093,0.00476
727.24076,0.00460
725.18059,0.00473
723.12041,0.00467
721.06024,0.00465
719.00007,0.00464
716.93990,0.00505
714.87972,0.00542
712.81955,0.00531
710.75938,0.00486
708.69921,0.00433
706.63904,0.00405
704.57886,0.00431
702.51869,0.00479
700.45852,0.00473
698.39835,0.00416
696.33818,0.00370
694.27800,0.00372
692.21783,0.00415
690.15766,0.00447
688.09749,0.00442
686.03731,0.00438
683.97714,0.00462
681.91697,0.00503
679.85680,0.00517
677.79663,0.00472
675.73645,0.00414
673.67628,0.00345
671.61611,0.00178
669.55594,0.00234
667.49577,0.00524
665.43559,0.00112
663.37542,0.00250
661.31525,0.00397
659.25508,0.00392
657.19491,0.00367
655.13473,0.00372
653.07456,0.00388
651.01439,0.00403
648.95422,0.00410
646.89404,0.00373
644.83387,0.00332
642.77370,0.00335
640.71353,0.00379
638.65336,0.00391
636.59318,0.00358
634.53301,0.00346
632.47284,0.00354
630.41267,0.00328
628.35250,0.00293
626.29232,0.00300
624.23215,0.00331
622.17198,0.00382
620.11181,0.00416
618.05164,0.00325
615.99146,0.00168
613.93129,0.00069
611.87112,0.00020
609.81095,0.00000
607.75077,-0.00036
605.69060,-0.00044
603.63043,-0.00023
601.57026,-0.00008
599.51009,0.00000
