3996.73391,0.00005
3994.67373,0.00000
3992.61356,0.00027
3990.55339,0.00043
3988.49322,0.00025
3986.43305,0.00021
3984.37287,0.00046
3982.31270,0.00063
3980.25253,0.00057
3978.19236,0.00050
3976.13219,0.00053
3974.07201,0.00065
3972.01184,0.00066
3969.95167,0.00051
3967.89150,0.00039
3965.83133,0.00047
3963.77115,0.00061
3961.71098,0.00071
3959.65081,0.00070
3957.59064,0.00058
3955.53046,0.00056
3953.47029,0.00078
3951.41012,0.00103
3949.34995,0.00100
3947.28978,0.00076
3945.22960,0.00068
3943.16943,0.00085
3941.10926,0.00110
3939.04909,0.00120
3936.98892,0.00117
3934.92874,0.00123
3932.86857,0.00131
3930.80840,0.00110
3928.74823,0.00064
3926.68805,0.00033
3924.62788,0.00043
3922.56771,0.00073
3920.50754,0.00077
3918.44737,0.00060
3916.38719,0.00060
3914.32702,0.00080
3912.26685,0.00097
3910.20668,0.00091
3908.14651,0.00065
3906.08633,0.00057
3904.02616,0.00094
3901.96599,0.00126
3899.90582,0.00107
3897.84565,0.00072
3895.78547,0.00071
3893.72530,0.00094
3891.66513,0.00120
3889.60496,0.00134
3887.54478,0.00131
3885.48461,0.00130
3883.42444,0.00136
3881.36427,0.00137
3879.30410,0.00128
3877.24392,0.00105
3875.18375,0.00087
3873.12358,0.00090
3871.06341,0.00108
3869.00324,0.00132
3866.94306,0.00145
3864.88289,0.00181
3862.82272,0.00248
3860.76255,0.00261
3858.70237,0.00198
3856.64220,0.00138
3854.58203,0.00170
3852.52186,0.00227
3850.46169,0.00163
3848.40151,0.00074
3846.34134,0.00059
3844.28117,0.00091
3842.22100,0.00128
3840.16083,0.00168
3838.10065,0.00211
3836.04048,0.00227
3833.98031,0.00207
3831.92014,0.00182
3829.85997,0.00163
3827.79979,0.00140
3825.73962,0.00121
3823.67945,0.00126
3821.61928,0.00149
3819.55910,0.00150
3817.49893,0.00115
3815.43876,0.00094
3813.37859,0.00098
3811.31842,0.00102
3809.25824,0.00094
3807.19807,0.00072
3805.13790,0.00035
3803.07773,0.00000
3801.01756,0.00014
3798.95738,0.00058
3796.89721,0.00093
3794.83704,0.00116
3792.77687,0.00105
3790.71670,0.00071
3788.65652,0.00064
3786.59635,0.00086
3784.53618,0.00087
3782.47601,0.00044
3780.41583,0.00000
3778.35566,0.00006
3776.29549,0.00052
3774.23532,0.00090
3772.17515,0.00093
3770.11497,0.00098
3768.05480,0.00144
3765.99463,0.00183
3763.93446,0.00170
3761.87429,0.00141
3759.81411,0.00152
3757.75394,0.00175
3755.69377,0.00148
3753.63360,0.00115
3751.57342,0.00144
3749.51325,0.00189
3747.45308,0.00157
3745.39291,0.00102
3743.33274,0.00110
3741.27256,0.00146
3739.21239,0.00156
3737.15222,0.00177
3735.09205,0.00211
3733.03188,0.00196
3730.97170,0.00131
3728.91153,0.00093
3726.85136,0.00118
3724.79119,0.00163
3722.73102,0.00179
3720.67084,0.00164
3718.61067,0.00138
3716.55050,0.00093
3714.49033,0.00074
3712.43015,0.00124
3710.36998,0.00185
3708.30981,0.00220
3706.24964,0.00225
3704.18947,0.00197
3702.12929,0.00143
3700.06912,0.00092
3698.00895,0.00072
3695.94878,0.00089
3693.88861,0.00113
3691.82843,0.00107
3689.76826,0.00109
3687.70809,0.00122
3685.64792,0.00111
3683.58775,0.00094
3681.52757,0.00084
3679.46740,0.00045
3677.40723,0.00015
3675.34706,0.00073
3673.28688,0.00157
3671.22671,0.00171
3669.16654,0.00151
3667.10637,0.00127
3665.04620,0.00113
3662.98602,0.00127
3660.92585,0.00148
3658.86568,0.00156
3656.80551,0.00183
3654.74534,0.00234
3652.68516,0.00283
3650.62499,0.00353
3648.56482,0.00417
3646.50465,0.00381
3644.44447,0.00295
3642.38430,0.00245
3640.32413,0.00251
3638.26396,0.00273
3636.20379,0.00292
3634.14361,0.00324
3632.08344,0.00346
3630.02327,0.00325
3627.96310,0.00320
3625.90293,0.00390
3623.84275,0.00474
3621.78258,0.00545
3619.72241,0.00602
3617.66224,0.00614
3615.60207,0.00609
3613.54189,0.00632
3611.48172,0.00664
3609.42155,0.00648
3607.36138,0.00619
3605.30120,0.00637
3603.24103,0.00681
3601.18086,0.00724
3599.12069,0.00737
3597.06052,0.00739
3595.00034,0.00746
3592.94017,0.00753
3590.88000,0.00741
3588.81983,0.00739
3586.75966,0.00751
3584.69948,0.00767
3582.63931,0.00788
3580.57914,0.00813
3578.51897,0.00838
3576.45879,0.00859
3574.39862,0.00878
3572.33845,0.00886
3570.27828,0.00881
3568.21811,0.00894
3566.15793,0.00952
3564.09776,0.01025
3562.03759,0.01068
3559.97742,0.01068
3557.91725,0.01045
3555.85707,0.01028
3553.79690,0.01031
3551.73673,0.01060
3549.67656,0.01099
3547.61639,0.01121
3545.55621,0.01136
3543.49604,0.01167
3541.43587,0.01203
3539.37570,0.01234
3537.31552,0.01252
3535.25535,0.01249
3533.19518,0.01240
3531.13501,0.01263
3529.07484,0.01320
3527.01466,0.01366
3524.95449,0.01373
3522.89432,0.01373
3520.83415,0.01391
3518.77398,0.01408
3516.71380,0.01408
3514.65363,0.01405
3512.59346,0.01413
3510.53329,0.01440
3508.47312,0.01467
3506.41294,0.01483
3504.35277,0.01495
3502.29260,0.01506
3500.23243,0.01523
3498.17225,0.01558
3496.11208,0.01596
3494.05191,0.01595
3491.99174,0.01579
3489.93157,0.01598
3487.87139,0.01630
3485.81122,0.01648
3483.75105,0.01669
3481.69088,0.01691
3479.63071,0.01712
3477.57053,0.01740
3475.51036,0.01772
3473.45019,0.01798
3471.39002,0.01813
3469.32984,0.01828
3467.26967,0.01842
3465.20950,0.01848
3463.14933,0.01867
3461.08916,0.01904
3459.02898,0.01914
3456.96881,0.01878
3454.90864,0.01853
3452.84847,0.01878
3450.78830,0.01900
3448.72812,0.01891
3446.66795,0.01885
3444.60778,0.01889
3442.54761,0.01901
3440.48744,0.01933
3438.42726,0.01981
3436.36709,0.02010
3434.30692,0.01992
3432.24675,0.01970
3430.18657,0.01990
3428.12640,0.02036
3426.06623,0.02069
3424.00606,0.02072
3421.94589,0.02071
3419.88571,0.02100
3417.82554,0.02135
3415.76537,0.02164
3413.70520,0.02177
3411.64503,0.02162
3409.58485,0.02154
3407.52468,0.02162
3405.46451,0.02174
3403.40434,0.02176
3401.34416,0.02161
3399.28399,0.02191
3397.22382,0.02242
3395.16365,0.02264
3393.10348,0.02258
3391.04330,0.02244
3388.98313,0.02233
3386.92296,0.02253
3384.86279,0.02295
3382.80262,0.02312
3380.74244,0.02288
3378.68227,0.02268
3376.62210,0.02272
3374.56193,0.02290
3372.50176,0.02314
3370.44158,0.02307
3368.38141,0.02285
3366.32124,0.02283
3364.26107,0.02302
3362.20089,0.02337
3360.14072,0.02366
3358.08055,0.02363
3356.02038,0.02344
3353.96021,0.02342
3351.90003,0.02357
3349.83986,0.02374
3347.77969,0.02383
3345.71952,0.02380
3343.65935,0.02375
3341.59917,0.02374
3339.53900,0.02371
3337.47883,0.02387
3335.41866,0.02423
3333.35849,0.02437
3331.29831,0.02429
3329.23814,0.02428
3327.17797,0.02431
3325.11780,0.02439
3323.05762,0.02444
3320.99745,0.02424
3318.93728,0.02415
3316.87711,0.02448
3314.81694,0.02482
3312.75676,0.02475
3310.69659,0.02452
3308.63642,0.02455
3306.57625,0.02466
3304.51608,0.02459
3302.45590,0.02446
3300.39573,0.02441
3298.33556,0.02445
3296.27539,0.02461
3294.21521,0.02480
3292.15504,0.02480
3290.09487,0.02475
3288.03470,0.02474
3285.97453,0.02471
3283.91435,0.02469
3281.85418,0.02461
3279.79401,0.02454
3277.73384,0.02474
3275.67367,0.02505
3273.61349,0.02516
3271.55332,0.02510
3269.49315,0.02507
3267.43298,0.02513
3265.37281,0.02507
3263.31263,0.02480
3261.25246,0.02485
3259.19229,0.02539
3257.13212,0.02577
3255.07194,0.02579
3253.01177,0.02570
3250.95160,0.02554
3248.89143,0.02531
3246.83126,0.02513
3244.77108,0.02502
3242.71091,0.02485
3240.65074,0.02471
3238.59057,0.02492
3236.53040,0.02534
3234.47022,0.02549
3232.41005,0.02537
3230.34988,0.02519
3228.28971,0.02506
3226.22954,0.02517
3224.16936,0.02545
3222.10919,0.02548
3220.04902,0.02522
3217.98885,0.02513
3215.92867,0.02528
3213.86850,0.02532
3211.80833,0.02524
3209.74816,0.02514
3207.68799,0.02497
3205.62781,0.02488
3203.56764,0.02489
3201.50747,0.02493
3199.44730,0.02503
3197.38713,0.02519
3195.32695,0.02514
3193.26678,0.02484
3191.20661,0.02470
3189.14644,0.02485
3187.08626,0.02493
3185.02609,0.02492
3182.96592,0.02483
3180.90575,0.02454
3178.84558,0.02428
3176.78540,0.02425
3174.72523,0.02423
3172.66506,0.02409
3170.60489,0.02407
3168.54472,0.02423
3166.48454,0.02436
3164.42437,0.02442
3162.36420,0.02446
3160.30403,0.02449
3158.24386,0.02444
3156.18368,0.02436
3154.12351,0.02430
3152.06334,0.02410
3150.00317,0.02382
3147.94299,0.02376
3145.88282,0.02385
3143.82265,0.02382
3141.76248,0.02367
3139.70231,0.02365
3137.64213,0.02376
3135.58196,0.02361
3133.52179,0.02330
3131.46162,0.02329
3129.40145,0.02351
3127.34127,0.02368
3125.28110,0.02369
3123.22093,0.02362
3121.16076,0.02345
3119.10058,0.02321
3117.04041,0.02306
3114.98024,0.02300
3112.92007,0.02291
3110.85990,0.02286
3108.79972,0.02275
3106.73955,0.02253
3104.67938,0.02237
3102.61921,0.02238
3100.55904,0.02247
3098.49886,0.02259
3096.43869,0.02245
3094.37852,0.02203
3092.31835,0.02178
3090.25818,0.02178
3088.19800,0.02192
3086.13783,0.02204
3084.07766,0.02189
3082.01749,0.02168
3079.95731,0.02170
3077.89714,0.02183
3075.83697,0.02191
3073.77680,0.02186
3071.71663,0.02161
3069.65645,0.02115
3067.59628,0.02073
3065.53611,0.02063
3063.47594,0.02077
3061.41577,0.02097
3059.35559,0.02096
3057.29542,0.02063
3055.23525,0.02021
3053.17508,0.02002
3051.11491,0.01992
3049.05473,0.01968
3046.99456,0.01956
3044.93439,0.01986
3042.87422,0.02016
3040.81404,0.02003
3038.75387,0.01981
3036.69370,0.01975
3034.63353,0.01973
3032.57336,0.01972
3030.51318,0.01959
3028.45301,0.01938
3026.39284,0.01930
3024.33267,0.01936
3022.27250,0.01933
3020.21232,0.01905
3018.15215,0.01876
3016.09198,0.01875
3014.03181,0.01880
3011.97163,0.01861
3009.91146,0.01828
3007.85129,0.01809
3005.79112,0.01807
3003.73095,0.01799
3001.67077,0.01782
2999.61060,0.01770
2997.55043,0.01769
2995.49026,0.01770
2993.43009,0.01771
2991.36991,0.01771
2989.30974,0.01766
2987.24957,0.01749
2985.18940,0.01718
2983.12923,0.01695
2981.06905,0.01697
2979.00888,0.01710
2976.94871,0.01711
2974.88854,0.01696
2972.82836,0.01682
2970.76819,0.01683
2968.70802,0.01690
2966.64785,0.01690
2964.58768,0.01689
2962.52750,0.01695
2960.46733,0.01696
2958.40716,0.01684
2956.34699,0.01672
2954.28682,0.01663
2952.22664,0.01652
2950.16647,0.01641
2948.10630,0.01636
2946.04613,0.01634
2943.98596,0.01633
2941.92578,0.01634
2939.86561,0.01627
2937.80544,0.01615
2935.74527,0.01609
2933.68509,0.01606
2931.62492,0.01610
2929.56475,0.01630
2927.50458,0.01641
2925.44441,0.01626
2923.38423,0.01603
2921.32406,0.01582
2919.26389,0.01558
2917.20372,0.01537
2915.14355,0.01520
2913.08337,0.01509
2911.02320,0.01501
2908.96303,0.01493
2906.90286,0.01481
2904.84268,0.01457
2902.78251,0.01439
2900.72234,0.01445
2898.66217,0.01457
2896.60200,0.01456
2894.54182,0.01451
2892.48165,0.01457
2890.42148,0.01463
2888.36131,0.01450
2886.30114,0.01425
2884.24096,0.01406
2882.18079,0.01395
2880.12062,0.01391
2878.06045,0.01389
2876.00028,0.01369
2873.94010,0.01358
2871.87993,0.01375
2869.81976,0.01380
2867.75959,0.01351
2865.69941,0.01323
2863.63924,0.01317
2861.57907,0.01314
2859.51890,0.01313
2857.45873,0.01313
2855.39855,0.01294
2853.33838,0.01273
2851.27821,0.01253
2849.21804,0.01227
2847.15787,0.01214
2845.09769,0.01214
2843.03752,0.01212
2840.97735,0.01207
2838.91718,0.01200
2836.85700,0.01191
2834.79683,0.01184
2832.73666,0.01181
2830.67649,0.01171
2828.61632,0.01162
2826.55614,0.01161
2824.49597,0.01153
2822.43580,0.01137
2820.37563,0.01119
2818.31546,0.01100
2816.25528,0.01083
2814.19511,0.01077
2812.13494,0.01083
2810.07477,0.01094
2808.01460,0.01114
2805.95442,0.01125
2803.89425,0.01107
2801.83408,0.01084
2799.77391,0.01088
2797.71373,0.01098
2795.65356,0.01075
2793.59339,0.01038
2791.53322,0.01025
2789.47305,0.01013
2787.41287,0.00995
2785.35270,0.00994
2783.29253,0.01009
2781.23236,0.01022
2779.17219,0.01020
2777.11201,0.01001
2775.05184,0.00973
2772.99167,0.00955
2770.93150,0.00960
2768.87133,0.00970
2766.81115,0.00965
2764.75098,0.00943
2762.69081,0.00924
2760.63064,0.00928
2758.57046,0.00948
2756.51029,0.00959
2754.45012,0.00953
2752.38995,0.00935
2750.32978,0.00923
2748.26960,0.00930
2746.20943,0.00937
2744.14926,0.00937
2742.08909,0.00923
2740.02892,0.00893
2737.96874,0.00874
2735.90857,0.00877
2733.84840,0.00874
2731.78823,0.00861
2729.72805,0.00864
2727.66788,0.00872
2725.60771,0.00861
2723.54754,0.00841
2721.48737,0.00831
2719.42719,0.00828
2717.36702,0.00829
2715.30685,0.00846
2713.24668,0.00857
2711.18651,0.00838
2709.12633,0.00811
2707.06616,0.00807
2705.00599,0.00809
2702.94582,0.00801
2700.88565,0.00788
2698.82547,0.00780
2696.76530,0.00777
2694.70513,0.00773
2692.64496,0.00771
2690.58478,0.00765
2688.52461,0.00749
2686.46444,0.00730
2684.40427,0.00723
2682.34410,0.00726
2680.28392,0.00735
2678.22375,0.00732
2676.16358,0.00714
2674.10341,0.00699
2672.04324,0.00694
2669.98306,0.00694
2667.92289,0.00704
2665.86272,0.00714
2663.80255,0.00709
2661.74238,0.00689
2659.68220,0.00666
2657.62203,0.00662
2655.56186,0.00674
2653.50169,0.00678
2651.44151,0.00672
2649.38134,0.00667
2647.32117,0.00663
2645.26100,0.00655
2643.20083,0.00655
2641.14065,0.00663
2639.08048,0.00665
2637.02031,0.00654
2634.96014,0.00628
2632.89997,0.00604
2630.83979,0.00605
2628.77962,0.00603
2626.71945,0.00577
2624.65928,0.00556
2622.59910,0.00552
2620.53893,0.00545
2618.47876,0.00533
2616.41859,0.00547
2614.35842,0.00593
2612.29824,0.00631
2610.23807,0.00620
2608.17790,0.00589
2606.11773,0.00566
2604.05756,0.00548
2601.99738,0.00545
2599.93721,0.00543
2597.87704,0.00537
2595.81687,0.00528
2593.75670,0.00527
2591.69652,0.00528
2589.63635,0.00529
2587.57618,0.00544
2585.51601,0.00558
2583.45583,0.00560
2581.39566,0.00550
2579.33549,0.00525
2577.27532,0.00513
2575.21515,0.00526
2573.15497,0.00525
2571.09480,0.00502
2569.03463,0.00496
2566.97446,0.00518
2564.91429,0.00537
2562.85411,0.00542
2560.79394,0.00567
2558.73377,0.00577
2556.67360,0.00540
2554.61342,0.00512
2552.55325,0.00512
2550.49308,0.00507
2548.43291,0.00499
2546.37274,0.00499
2544.31256,0.00486
2542.25239,0.00455
2540.19222,0.00442
2538.13205,0.00458
2536.07188,0.00477
2534.01170,0.00496
2531.95153,0.00514
2529.89136,0.00514
2527.83119,0.00481
2525.77102,0.00470
2523.71084,0.00523
2521.65067,0.00542
2519.59050,0.00497
2517.53033,0.00478
2515.47015,0.00488
2513.40998,0.00485
2511.34981,0.00479
2509.28964,0.00485
2507.22947,0.00491
2505.16929,0.00502
2503.10912,0.00510
2501.04895,0.00489
2498.98878,0.00456
2496.92861,0.00467
2494.86843,0.00509
2492.80826,0.00512
2490.74809,0.00487
2488.68792,0.00490
2486.62775,0.00506
2484.56757,0.00509
2482.50740,0.00505
2480.44723,0.00495
2478.38706,0.00488
2476.32688,0.00498
2474.26671,0.00513
2472.20654,0.00509
2470.14637,0.00505
2468.08620,0.00512
2466.02602,0.00512
2463.96585,0.00526
2461.90568,0.00563
2459.84551,0.00589
2457.78534,0.00593
2455.72516,0.00594
2453.66499,0.00592
2451.60482,0.00576
2449.54465,0.00557
2447.48447,0.00556
2445.42430,0.00571
2443.36413,0.00568
2441.30396,0.00553
2439.24379,0.00554
2437.18361,0.00554
2435.12344,0.00525
2433.06327,0.00498
2431.00310,0.00500
2428.94293,0.00501
2426.88275,0.00496
2424.82258,0.00510
2422.76241,0.00549
2420.70224,0.00591
2418.64207,0.00614
2416.58189,0.00610
2414.52172,0.00589
2412.46155,0.00575
2410.40138,0.00573
2408.34120,0.00573
2406.28103,0.00567
2404.22086,0.00557
2402.16069,0.00529
2400.10052,0.00493
2398.04034,0.00443
2395.98017,0.00479
2393.92000,0.00525
2391.85983,0.00542
2389.79966,0.00567
2387.73948,0.00603
2385.67931,0.00616
2383.61914,0.00606
2381.55897,0.00589
2379.49880,0.00576
2377.43862,0.00560
2375.37845,0.00613
2373.31828,0.00658
2371.25811,0.00662
2369.19793,0.00698
2367.13776,0.00720
2365.07759,0.00736
2363.01742,0.00909
2360.95725,0.00719
2358.89707,0.00635
2356.83690,0.00724
2354.77673,0.00940
2352.71656,0.00968
2350.65639,0.00478
2348.59621,0.00218
2346.53604,0.00999
2344.47587,0.01163
2342.41570,0.00989
2340.35552,0.00857
2338.29535,0.00716
2336.23518,0.00657
2334.17501,0.00661
2332.11484,0.00734
2330.05466,0.00804
2327.99449,0.00935
2325.93432,0.00860
2323.87415,0.00856
2321.81398,0.00807
2319.75380,0.00847
2317.69363,0.00712
2315.63346,0.00644
2313.57329,0.00665
2311.51312,0.00651
2309.45294,0.00641
2307.39277,0.00666
2305.33260,0.00704
2303.27243,0.00687
2301.21225,0.00664
2299.15208,0.00658
2297.09191,0.00678
2295.03174,0.00669
2292.97157,0.00610
2290.91139,0.00589
2288.85122,0.00621
2286.79105,0.00627
2284.73088,0.00570
2282.67071,0.00492
2280.61053,0.00446
2278.55036,0.00453
2276.49019,0.00508
2274.43002,0.00566
2272.36984,0.00572
2270.30967,0.00506
2268.24950,0.00410
2266.18933,0.00348
2264.12916,0.00365
2262.06898,0.00421
2260.00881,0.00446
2257.94864,0.00435
2255.88847,0.00441
2253.82830,0.00456
2251.76812,0.00451
2249.70795,0.00417
2247.64778,0.00431
2245.58761,0.00476
2243.52744,0.00449
2241.46726,0.00356
2239.40709,0.00326
2237.34692,0.00414
2235.28675,0.00516
2233.22657,0.00511
2231.16640,0.00486
2229.10623,0.00521
2227.04606,0.00511
2224.98589,0.00430
2222.92571,0.00387
2220.86554,0.00399
2218.80537,0.00398
2216.74520,0.00368
2214.68503,0.00338
2212.62485,0.00328
2210.56468,0.00327
2208.50451,0.00328
2206.44434,0.00327
2204.38417,0.00284
2202.32399,0.00246
2200.26382,0.00321
2198.20365,0.00452
2196.14348,0.00433
2194.08330,0.00259
2192.02313,0.00140
2189.96296,0.00107
2187.90279,0.00114
2185.84262,0.00168
2183.78244,0.00168
2181.72227,0.00152
2179.66210,0.00248
2177.60193,0.00380
2175.54176,0.00450
2173.48158,0.00411
2171.42141,0.00310
2169.36124,0.00234
2167.30107,0.00159
2165.24089,0.00170
2163.18072,0.00276
2161.12055,0.00233
2159.06038,0.00089
2157.00021,0.00054
2154.94003,0.00088
2152.87986,0.00153
2150.81969,0.00164
2148.75952,0.00088
2146.69935,0.00118
2144.63917,0.00258
2142.57900,0.00279
2140.51883,0.00185
2138.45866,0.00121
2136.39849,0.00150
2134.33831,0.00238
2132.27814,0.00260
2130.21797,0.00204
2128.15780,0.00184
2126.09762,0.00227
2124.03745,0.00253
2121.97728,0.00223
2119.91711,0.00209
2117.85694,0.00264
2115.79676,0.00339
2113.73659,0.00372
2111.67642,0.00353
2109.61625,0.00330
2107.55608,0.00335
2105.49590,0.00297
2103.43573,0.00224
2101.37556,0.00225
2099.31539,0.00265
2097.25521,0.00281
2095.19504,0.00291
2093.13487,0.00317
2091.07470,0.00364
2089.01453,0.00403
2086.95435,0.00384
2084.89418,0.00355
2082.83401,0.00333
2080.77384,0.00292
2078.71367,0.00268
2076.65349,0.00272
2074.59332,0.00297
2072.53315,0.00358
2070.47298,0.00398
2068.41281,0.00367
2066.35263,0.00311
2064.29246,0.00268
2062.23229,0.00231
2060.17212,0.00203
2058.11194,0.00216
2056.05177,0.00269
2053.99160,0.00283
2051.93143,0.00233
2049.87126,0.00181
2047.81108,0.00169
2045.75091,0.00167
2043.69074,0.00181
2041.63057,0.00204
2039.57040,0.00212
2037.51022,0.00205
2035.45005,0.00151
2033.38988,0.00117
2031.32971,0.00119
2029.26954,0.00074
2027.20936,0.00064
2025.14919,0.00179
2023.08902,0.00279
2021.02885,0.00243
2018.96867,0.00189
2016.90850,0.00226
2014.84833,0.00253
2012.78816,0.00212
2010.72799,0.00128
2008.66781,0.00023
2006.60764,0.00000
2004.54747,0.00077
2002.48730,0.00164
2000.42713,0.00219
1998.36695,0.00210
1996.30678,0.00167
1994.24661,0.00201
1992.18644,0.00283
1990.12626,0.00244
1988.06609,0.00097
1986.00592,0.00015
1983.94575,0.00090
1981.88558,0.00227
1979.82540,0.00263
1977.76523,0.00178
1975.70506,0.00056
1973.64489,0.00000
1971.58472,0.00044
1969.52454,0.00100
1967.46437,0.00139
1965.40420,0.00189
1963.34403,0.00211
1961.28386,0.00187
1959.22368,0.00149
1957.16351,0.00111
1955.10334,0.00081
1953.04317,0.00056
1950.98299,0.00048
1948.92282,0.00115
1946.86265,0.00217
1944.80248,0.00214
1942.74231,0.00118
1940.68213,0.00069
1938.62196,0.00086
1936.56179,0.00123
1934.50162,0.00162
1932.44145,0.00180
1930.38127,0.00181
1928.32110,0.00186
1926.26093,0.00192
1924.20076,0.00190
1922.14059,0.00176
1920.08041,0.00147
1918.02024,0.00131
1915.96007,0.00141
1913.89990,0.00157
1911.83972,0.00156
1909.77955,0.00130
1907.71938,0.00112
1905.65921,0.00119
1903.59904,0.00141
1901.53886,0.00186
1899.47869,0.00232
1897.41852,0.00226
1895.35835,0.00173
1893.29818,0.00140
1891.23800,0.00147
1889.17783,0.00140
1887.11766,0.00113
1885.05749,0.00115
1882.99731,0.00148
1880.93714,0.00182
1878.87697,0.00197
1876.81680,0.00204
1874.75663,0.00224
1872.69645,0.00248
1870.63628,0.00233
1868.57611,0.00166
1866.51594,0.00114
1864.45577,0.00112
1862.39559,0.00121
1860.33542,0.00126
1858.27525,0.00145
1856.21508,0.00171
1854.15491,0.00188
1852.09473,0.00203
1850.03456,0.00221
1847.97439,0.00229
1845.91422,0.00227
1843.85404,0.00208
1841.79387,0.00179
1839.73370,0.00167
1837.67353,0.00180
1835.61336,0.00189
1833.55318,0.00176
1831.49301,0.00162
1829.43284,0.00177
1827.37267,0.00212
1825.31250,0.00227
1823.25232,0.00204
1821.19215,0.00171
1819.13198,0.00165
1817.07181,0.00173
1815.01163,0.00164
1812.95146,0.00146
1810.89129,0.00145
1808.83112,0.00161
1806.77095,0.00164
1804.71077,0.00159
1802.65060,0.00173
1800.59043,0.00199
1798.53026,0.00212
1796.47009,0.00212
1794.40991,0.00213
1792.34974,0.00220
1790.28957,0.00222
1788.22940,0.00219
1786.16923,0.00234
1784.10905,0.00257
1782.04888,0.00251
1779.98871,0.00208
1777.92854,0.00163
1775.86836,0.00148
1773.80819,0.00162
1771.74802,0.00195
1769.68785,0.00224
1767.62768,0.00236
1765.56750,0.00238
1763.50733,0.00240
1761.44716,0.00248
1759.38699,0.00274
1757.32682,0.00311
1755.26664,0.00334
1753.20647,0.00340
1751.14630,0.00356
1749.08613,0.00374
1747.02596,0.00365
1744.96578,0.00353
1742.90561,0.00364
1740.84544,0.00383
1738.78527,0.00390
1736.72509,0.00393
1734.66492,0.00401
1732.60475,0.00409
1730.54458,0.00420
1728.48441,0.00432
1726.42423,0.00425
1724.36406,0.00405
1722.30389,0.00391
1720.24372,0.00392
1718.18355,0.00425
1716.12337,0.00477
1714.06320,0.00494
1712.00303,0.00488
1709.94286,0.00493
1707.88268,0.00515
1705.82251,0.00543
1703.76234,0.00554
1701.70217,0.00543
1699.64200,0.00555
1697.58182,0.00613
1695.52165,0.00672
1693.46148,0.00698
1691.40131,0.00711
1689.34114,0.00729
1687.28096,0.00750
1685.22079,0.00790
1683.16062,0.00858
1681.10045,0.00909
1679.04028,0.00927
1676.98010,0.00935
1674.91993,0.00965
1672.85976,0.01017
1670.79959,0.01067
1668.73941,0.01107
1666.67924,0.01126
1664.61907,0.01125
1662.55890,0.01134
1660.49873,0.01170
1658.43855,0.01211
1656.37838,0.01235
1654.31821,0.01249
1652.25804,0.01265
1650.19787,0.01277
1648.13769,0.01280
1646.07752,0.01273
1644.01735,0.01269
1641.95718,0.01265
1639.89701,0.01258
1637.83683,0.01251
1635.77666,0.01231
1633.71649,0.01196
1631.65632,0.01174
1629.59614,0.01164
1627.53597,0.01149
1625.47580,0.01131
1623.41563,0.01108
1621.35546,0.01085
1619.29528,0.01076
1617.23511,0.01061
1615.17494,0.01022
1613.11477,0.00981
1611.05460,0.00957
1608.99442,0.00947
1606.93425,0.00937
1604.87408,0.00918
1602.81391,0.00893
1600.75373,0.00871
1598.69356,0.00859
1596.63339,0.00849
1594.57322,0.00827
1592.51305,0.00803
1590.45287,0.00780
1588.39270,0.00754
1586.33253,0.00730
1584.27236,0.00716
1582.21219,0.00708
1580.15201,0.00700
1578.09184,0.00698
1576.03167,0.00703
1573.97150,0.00704
1571.91133,0.00689
1569.85115,0.00664
1567.79098,0.00655
1565.73081,0.00670
1563.67064,0.00689
1561.61046,0.00689
1559.55029,0.00670
1557.49012,0.00651
1555.42995,0.00646
1553.36978,0.00649
1551.30960,0.00650
1549.24943,0.00638
1547.18926,0.00610
1545.12909,0.00595
1543.06892,0.00606
1541.00874,0.00604
1538.94857,0.00571
1536.88840,0.00550
1534.82823,0.00546
1532.76805,0.00529
1530.70788,0.00504
1528.64771,0.00494
1526.58754,0.00506
1524.52737,0.00518
1522.46719,0.00520
1520.40702,0.00509
1518.34685,0.00481
1516.28668,0.00450
1514.22651,0.00427
1512.16633,0.00417
1510.10616,0.00442
1508.04599,0.00488
1505.98582,0.00473
1503.92565,0.00413
1501.86547,0.00381
1499.80530,0.00371
1497.74513,0.00353
1495.68496,0.00325
1493.62478,0.00307
1491.56461,0.00311
1489.50444,0.00319
1487.44427,0.00304
1485.38410,0.00279
1483.32392,0.00269
1481.26375,0.00270
1479.20358,0.00274
1477.14341,0.00282
1475.08324,0.00296
1473.02306,0.00317
1470.96289,0.00325
1468.90272,0.00318
1466.84255,0.00315
1464.78238,0.00320
1462.72220,0.00320
1460.66203,0.00318
1458.60186,0.00333
1456.54169,0.00357
1454.48151,0.00348
1452.42134,0.00323
1450.36117,0.00314
1448.30100,0.00321
1446.24083,0.00320
1444.18065,0.00306
1442.12048,0.00298
1440.06031,0.00301
1438.00014,0.00310
1435.93997,0.00315
1433.87979,0.00315
1431.81962,0.00316
1429.75945,0.00315
1427.69928,0.00310
1425.63910,0.00304
1423.57893,0.00306
1421.51876,0.00323
1419.45859,0.00353
1417.39842,0.00370
1415.33824,0.00366
1413.27807,0.00360
1411.21790,0.00362
1409.15773,0.00365
1407.09756,0.00369
1405.03738,0.00372
1402.97721,0.00363
1400.91704,0.00341
1398.85687,0.00321
1396.79670,0.00309
1394.73652,0.00299
1392.67635,0.00291
1390.61618,0.00288
1388.55601,0.00291
1386.49583,0.00287
1384.43566,0.00273
1382.37549,0.00266
1380.31532,0.00269
1378.25515,0.00267
1376.19497,0.00257
1374.13480,0.00252
1372.07463,0.00253
1370.01446,0.00256
1367.95429,0.00259
1365.89411,0.00261
1363.83394,0.00257
1361.77377,0.00240
1359.71360,0.00217
1357.65343,0.00207
1355.59325,0.00209
1353.53308,0.00208
1351.47291,0.00204
1349.41274,0.00200
1347.35256,0.00186
1345.29239,0.00167
1343.23222,0.00165
1341.17205,0.00184
1339.11188,0.00201
1337.05170,0.00198
1334.99153,0.00194
1332.93136,0.00197
1330.87119,0.00193
1328.81102,0.00185
1326.75084,0.00188
1324.69067,0.00201
1322.63050,0.00209
1320.57033,0.00204
1318.51015,0.00195
1316.44998,0.00188
1314.38981,0.00183
1312.32964,0.00181
1310.26947,0.00184
1308.20929,0.00184
1306.14912,0.00171
1304.08895,0.00153
1302.02878,0.00155
1299.96861,0.00178
1297.90843,0.00194
1295.84826,0.00198
1293.78809,0.00211
1291.72792,0.00231
1289.66775,0.00240
1287.60757,0.00237
1285.54740,0.00235
1283.48723,0.00234
1281.42706,0.00234
1279.36688,0.00239
1277.30671,0.00241
1275.24654,0.00241
1273.18637,0.00249
1271.12620,0.00256
1269.06602,0.00253
1267.00585,0.00248
1264.94568,0.00244
1262.88551,0.00242
1260.82534,0.00250
1258.76516,0.00262
1256.70499,0.00265
1254.64482,0.00260
1252.58465,0.00255
1250.52447,0.00254
1248.46430,0.00265
1246.40413,0.00274
1244.34396,0.00265
1242.28379,0.00246
1240.22361,0.00242
1238.16344,0.00244
1236.10327,0.00230
1234.04310,0.00209
1231.98293,0.00191
1229.92275,0.00176
1227.86258,0.00168
1225.80241,0.00170
1223.74224,0.00163
1221.68207,0.00139
1219.62189,0.00118
1217.56172,0.00108
1215.50155,0.00095
1213.44138,0.00075
1211.38120,0.00051
1209.32103,0.00025
1207.26086,0.00004
1205.20069,0.00000
1203.14052,0.00015
1201.08034,0.00024
1199.02017,0.00010
1196.96000,-0.00005
1194.89983,-0.00005
1192.83966,-0.00004
1190.77948,0.00005
1188.71931,0.00026
1186.65914,0.00032
1184.59897,0.00030
1182.53880,0.00038
1180.47862,0.00044
1178.41845,0.00052
1176.35828,0.00069
1174.29811,0.00087
1172.23793,0.00111
1170.17776,0.00146
1168.11759,0.00173
1166.05742,0.00192
1163.99725,0.00220
1161.93707,0.00264
1159.87690,0.00302
1157.81673,0.00328
1155.75656,0.00359
1153.69639,0.00394
1151.63621,0.00436
1149.57604,0.00491
1147.51587,0.00545
1145.45570,0.00597
1143.39552,0.00663
1141.33535,0.00733
1139.27518,0.00800
1137.21501,0.00867
1135.15484,0.00924
1133.09466,0.00983
1131.03449,0.01059
1128.97432,0.01143
1126.91415,0.01235
1124.85398,0.01340
1122.79380,0.01453
1120.73363,0.01564
1118.67346,0.01666
1116.61329,0.01762
1114.55312,0.01859
1112.49294,0.01956
1110.43277,0.02051
1108.37260,0.02148
1106.31243,0.02244
1104.25225,0.02335
1102.19208,0.02414
1100.13191,0.02486
1098.07174,0.02574
1096.01157,0.02667
1093.95139,0.02746
1091.89122,0.02808
1089.83105,0.02857
1087.77088,0.02911
1085.71071,0.02974
1083.65053,0.03049
1081.59036,0.03124
1079.53019,0.03175
1077.47002,0.03213
1075.40985,0.03265
1073.34967,0.03318
1071.28950,0.03349
1069.22933,0.03358
1067.16916,0.03357
1065.10898,0.03349
1063.04881,0.03333
1060.98864,0.03314
1058.92847,0.03278
1056.86830,0.03212
1054.80812,0.03122
1052.74795,0.03024
1050.68778,0.02945
1048.62761,0.02872
1046.56744,0.02760
1044.50726,0.02611
1042.44709,0.02465
1040.38692,0.02333
1038.32675,0.02213
1036.26657,0.02106
1034.20640,0.02007
1032.14623,0.01914
1030.08606,0.01827
1028.02589,0.01731
1025.96571,0.01633
1023.90554,0.01557
1021.84537,0.01493
1019.78520,0.01435
1017.72503,0.01404
1015.66485,0.01400
1013.60468,0.01411
1011.54451,0.01420
1009.48434,0.01426
1007.42417,0.01446
1005.36399,0.01482
1003.30382,0.01533
1001.24365,0.01599
999.18348,0.01667
997.12330,0.01735
995.06313,0.01817
993.00296,0.01892
990.94279,0.01946
988.88262,0.02010
986.82244,0.02100
984.76227,0.02166
982.70210,0.02187
980.64193,0.02207
978.58176,0.02224
976.52158,0.02215
974.46141,0.02181
972.40124,0.02121
970.34107,0.02043
968.28089,0.01947
966.22072,0.01838
964.16055,0.01723
962.10038,0.01620
960.04021,0.01551
957.98003,0.01486
955.91986,0.01397
953.85969,0.01304
951.79952,0.01227
949.73935,0.01157
947.67917,0.01077
945.61900,0.00994
943.55883,0.00924
941.49866,0.00875
939.43849,0.00842
937.37831,0.00823
935.31814,0.00803
933.25797,0.00757
931.19780,0.00694
929.13762,0.00640
927.07745,0.00621
925.01728,0.00629
922.95711,0.00628
920.89694,0.00623
918.83676,0.00619
916.77659,0.00596
914.71642,0.00570
912.65625,0.00558
910.59608,0.00546
908.53590,0.00520
906.47573,0.00494
904.41556,0.00494
902.35539,0.00522
900.29522,0.00571
898.23504,0.00608
896.17487,0.00621
894.11470,0.00637
892.05453,0.00672
889.99435,0.00695
887.93418,0.00694
885.87401,0.00702
883.81384,0.00737
881.75367,0.00781
879.69349,0.00814
877.63332,0.00836
875.57315,0.00891
873.51298,0.00976
871.45281,0.01023
869.39263,0.01024
867.33246,0.01040
865.27229,0.01078
863.21212,0.01104
861.15194,0.01109
859.09177,0.01099
857.03160,0.01102
854.97143,0.01124
852.91126,0.01119
850.85108,0.01091
848.79091,0.01077
846.73074,0.01055
844.67057,0.01003
842.61040,0.00968
840.55022,0.00988
838.49005,0.01003
836.42988,0.00960
834.36971,0.00901
832.30954,0.00852
830.24936,0.00798
828.18919,0.00783
826.12902,0.00812
824.06885,0.00799
822.00867,0.00772
819.94850,0.00774
817.88833,0.00728
815.82816,0.00664
813.76799,0.00656
811.70781,0.00668
809.64764,0.00686
807.58747,0.00723
805.52730,0.00737
803.46713,0.00690
801.40695,0.00635
799.34678,0.00637
797.28661,0.00645
795.22644,0.00617
793.16627,0.00598
791.10609,0.00593
789.04592,0.00584
786.98575,0.00596
784.92558,0.00628
782.86540,0.00650
780.80523,0.00653
778.74506,0.00624
776.68489,0.00568
774.62472,0.00549
772.56454,0.00583
770.50437,0.00620
768.44420,0.00622
766.38403,0.00598
764.32386,0.00567
762.26368,0.00538
760.20351,0.00542
758.14334,0.00592
756.08317,0.00635
754.02299,0.00648
751.96282,0.00662
749.90265,0.00666
747.84248,0.00649
745.78231,0.00636
743.72213,0.00658
741.66196,0.00676
739.60179,0.00644
737.54162,0.00622
735.48145,0.00646
733.42127,0.00662
731.36110,0.00637
729.30093,0.00608
727.24076,0.00596
725.18059,0.00576
723.12041,0.00556
721.06024,0.00605
719.00007,0.00552
716.93990,0.00541
714.87972,0.00574
712.81955,0.00593
710.75938,0.00605
708.69921,0.00631
706.63904,0.00653
704.57886,0.00641
702.51869,0.00609
700.45852,0.00581
698.39835,0.00607
696.33818,0.00712
694.27800,0.00788
692.21783,0.00751
690.15766,0.00648
688.09749,0.00577
686.03731,0.00587
683.97714,0.00631
681.91697,0.00665
679.85680,0.00666
677.79663,0.00648
675.73645,0.00680
673.67628,0.00539
671.61611,0.00000
669.55594,0.00339
667.49577,0.01341
665.43559,0.00023
663.37542,0.00345
661.31525,0.00696
659.25508,0.00671
657.19491,0.00628
655.13473,0.00628
653.07456,0.00621
651.01439,0.00587
648.95422,0.00596
646.89404,0.00627
644.83387,0.00665
642.77370,0.00631
640.71353,0.00620
638.65336,0.00622
636.59318,0.00566
634.53301,0.00515
632.47284,0.00494
630.41267,0.00470
628.35250,0.00485
626.29232,0.00490
624.23215,0.00395
622.17198,0.00398
620.11181,0.00556
618.05164,0.00690
615.99146,0.00634
613.93129,0.00317
611.87112,0.00045
609.81095,0.00061
607.75077,0.00170
605.69060,0.00122
603.63043,-0.00020
601.57026,-0.00048
599.51009,0.00000
