3996.73391,0.00048
3994.67373,0.00000
3992.61356,0.00011
3990.55339,0.00041
3988.49322,0.00051
3986.43305,0.00060
3984.37287,0.00065
3982.31270,0.00064
3980.25253,0.00090
3978.19236,0.00126
3976.13219,0.00128
3974.07201,0.00115
3972.01184,0.00107
3969.95167,0.00108
3967.89150,0.00119
3965.83133,0.00123
3963.77115,0.00115
3961.71098,0.00107
3959.65081,0.00085
3957.59064,0.00051
3955.53046,0.00038
3953.47029,0.00056
3951.41012,0.00083
3949.34995,0.00099
3947.28978,0.00097
3945.22960,0.00092
3943.16943,0.00104
3941.10926,0.00128
3939.04909,0.00137
3936.98892,0.00130
3934.92874,0.00134
3932.86857,0.00151
3930.80840,0.00149
3928.74823,0.00127
3926.68805,0.00108
3924.62788,0.00105
3922.56771,0.00112
3920.50754,0.00125
3918.44737,0.00138
3916.38719,0.00119
3914.32702,0.00082
3912.26685,0.00081
3910.20668,0.00100
3908.14651,0.00074
3906.08633,0.00011
3904.02616,0.00005
3901.96599,0.00080
3899.90582,0.00137
3897.84565,0.00126
3895.78547,0.00082
3893.72530,0.00058
3891.66513,0.00084
3889.60496,0.00130
3887.54478,0.00141
3885.48461,0.00126
3883.42444,0.00107
3881.36427,0.00099
3879.30410,0.00126
3877.24392,0.00145
3875.18375,0.00123
3873.12358,0.00094
3871.06341,0.00097
3869.00324,0.00123
3866.94306,0.00132
3864.88289,0.00149
3862.82272,0.00207
3860.76255,0.00223
3858.70237,0.00157
3856.64220,0.00065
3854.58203,0.00034
3852.52186,0.00103
3850.46169,0.00143
3848.40151,0.00111
3846.34134,0.00069
3844.28117,0.00055
3842.22100,0.00060
3840.16083,0.00082
3838.10065,0.00141
3836.04048,0.00192
3833.98031,0.00188
3831.92014,0.00169
3829.85997,0.00157
3827.79979,0.00139
3825.73962,0.00115
3823.67945,0.00095
3821.61928,0.00082
3819.55910,0.00073
3817.49893,0.00081
3815.43876,0.00134
3813.37859,0.00178
3811.31842,0.00156
3809.25824,0.00096
3807.19807,0.00053
3805.13790,0.00029
3803.07773,0.00000
3801.01756,0.00018
3798.95738,0.00073
3796.89721,0.00099
3794.83704,0.00090
3792.77687,0.00065
3790.71670,0.00044
3788.65652,0.00036
3786.59635,0.00042
3784.53618,0.00053
3782.47601,0.00042
3780.41583,0.00013
3778.35566,0.00019
3776.29549,0.00064
3774.23532,0.00093
3772.17515,0.00092
3770.11497,0.00110
3768.05480,0.00156
3765.99463,0.00174
3763.93446,0.00154
3761.87429,0.00127
3759.81411,0.00135
3757.75394,0.00174
3755.69377,0.00167
3753.63360,0.00132
3751.57342,0.00157
3749.51325,0.00217
3747.45308,0.00185
3745.39291,0.00123
3743.33274,0.00141
3741.27256,0.00179
3739.21239,0.00167
3737.15222,0.00149
3735.09205,0.00170
3733.03188,0.00187
3730.97170,0.00172
3728.91153,0.00151
3726.85136,0.00162
3724.79119,0.00188
3722.73102,0.00179
3720.67084,0.00147
3718.61067,0.00116
3716.55050,0.00083
3714.49033,0.00069
3712.43015,0.00097
3710.36998,0.00147
3708.30981,0.00194
3706.24964,0.00214
3704.18947,0.00185
3702.12929,0.00136
3700.06912,0.00118
3698.00895,0.00125
3695.94878,0.00142
3693.88861,0.00150
3691.82843,0.00129
3689.76826,0.00111
3687.70809,0.00124
3685.64792,0.00137
3683.58775,0.00142
3681.52757,0.00144
3679.46740,0.00104
3677.40723,0.00035
3675.34706,0.00020
3673.28688,0.00046
3671.22671,0.00061
3669.16654,0.00110
3667.10637,0.00161
3665.04620,0.00160
3662.98602,0.00151
3660.92585,0.00165
3658.86568,0.00187
3656.80551,0.00214
3654.74534,0.00222
3652.68516,0.00175
3650.62499,0.00132
3648.56482,0.00189
3646.50465,0.00270
3644.44447,0.00268
3642.38430,0.00222
3640.32413,0.00200
3638.26396,0.00217
3636.20379,0.00261
3634.14361,0.00304
3632.08344,0.00309
3630.02327,0.00295
3627.96310,0.00349
3625.90293,0.00424
3623.84275,0.00439
3621.78258,0.00442
3619.72241,0.00475
3617.66224,0.00497
3615.60207,0.00494
3613.54189,0.00512
3611.48172,0.00558
3609.42155,0.00599
3607.36138,0.00612
3605.30120,0.00590
3603.24103,0.00568
3601.18086,0.00574
3599.12069,0.00591
3597.06052,0.00622
3595.00034,0.00656
3592.94017,0.00663
3590.88000,0.00660
3588.81983,0.00693
3586.75966,0.00747
3584.69948,0.00773
3582.63931,0.00767
3580.57914,0.00758
3578.51897,0.00767
3576.45879,0.00773
3574.39862,0.00765
3572.33845,0.00772
3570.27828,0.00807
3568.21811,0.00839
3566.15793,0.00842
3564.09776,0.00837
3562.03759,0.00855
3559.97742,0.00883
3557.91725,0.00907
3555.85707,0.00912
3553.79690,0.00888
3551.73673,0.00869
3549.67656,0.00902
3547.61639,0.00959
3545.55621,0.00986
3543.49604,0.00990
3541.43587,0.01007
3539.37570,0.01032
3537.31552,0.01038
3535.25535,0.01014
3533.19518,0.00985
3531.13501,0.00988
3529.07484,0.01043
3527.01466,0.01118
3524.95449,0.01159
3522.89432,0.01170
3520.83415,0.01176
3518.77398,0.01175
3516.71380,0.01172
3514.65363,0.01186
3512.59346,0.01221
3510.53329,0.01254
3508.47312,0.01264
3506.41294,0.01258
3504.35277,0.01254
3502.29260,0.01260
3500.23243,0.01276
3498.17225,0.01299
3496.11208,0.01328
3494.05191,0.01340
3491.99174,0.01330
3489.93157,0.01339
3487.87139,0.01374
3485.81122,0.01408
3483.75105,0.01426
3481.69088,0.01437
3479.63071,0.01447
3477.57053,0.01457
3475.51036,0.01468
3473.45019,0.01488
3471.39002,0.01517
3469.32984,0.01541
3467.26967,0.01547
3465.20950,0.01529
3463.14933,0.01511
3461.08916,0.01521
3459.02898,0.01548
3456.96881,0.01571
3454.90864,0.01583
3452.84847,0.01583
3450.78830,0.01571
3448.72812,0.01560
3446.66795,0.01568
3444.60778,0.01603
3442.54761,0.01644
3440.48744,0.01660
3438.42726,0.01671
3436.36709,0.01711
3434.30692,0.01744
3432.24675,0.01748
3430.18657,0.01761
3428.12640,0.01792
3426.06623,0.01810
3424.00606,0.01800
3421.94589,0.01776
3419.88571,0.01777
3417.82554,0.01793
3415.76537,0.01800
3413.70520,0.01807
3411.64503,0.01807
3409.58485,0.01816
3407.52468,0.01845
3405.46451,0.01861
3403.40434,0.01855
3401.34416,0.01854
3399.28399,0.01876
3397.22382,0.01882
3395.16365,0.01876
3393.10348,0.01863
3391.04330,0.01855
3388.98313,0.01871
3386.92296,0.01903
3384.86279,0.01938
3382.80262,0.01972
3380.74244,0.01985
3378.68227,0.01971
3376.62210,0.01945
3374.56193,0.01946
3372.50176,0.01973
3370.44158,0.01978
3368.38141,0.01967
3366.32124,0.01961
3364.26107,0.01963
3362.20089,0.01979
3360.14072,0.02004
3358.08055,0.02021
3356.02038,0.02018
3353.96021,0.02012
3351.90003,0.02018
3349.83986,0.02020
3347.77969,0.02008
3345.71952,0.02005
3343.65935,0.02021
3341.59917,0.02030
3339.53900,0.02017
3337.47883,0.02023
3335.41866,0.02049
3333.35849,0.02059
3331.29831,0.02056
3329.23814,0.02057
3327.17797,0.02066
3325.11780,0.02080
3323.05762,0.02081
3320.99745,0.02067
3318.93728,0.02065
3316.87711,0.02087
3314.81694,0.02105
3312.75676,0.02093
3310.69659,0.02067
3308.63642,0.02079
3306.57625,0.02105
3304.51608,0.02101
3302.45590,0.02084
3300.39573,0.02063
3298.33556,0.02043
3296.27539,0.02046
3294.21521,0.02064
3292.15504,0.02069
3290.09487,0.02058
3288.03470,0.02048
3285.97453,0.02067
3283.91435,0.02105
3281.85418,0.02125
3279.79401,0.02137
3277.73384,0.02154
3275.67367,0.02154
3273.61349,0.02143
3271.55332,0.02137
3269.49315,0.02131
3267.43298,0.02133
3265.37281,0.02147
3263.31263,0.02153
3261.25246,0.02152
3259.19229,0.02168
3257.13212,0.02182
3255.07194,0.02176
3253.01177,0.02172
3250.95160,0.02184
3248.89143,0.02185
3246.83126,0.02156
3244.77108,0.02127
3242.71091,0.02122
3240.65074,0.02127
3238.59057,0.02141
3236.53040,0.02155
3234.47022,0.02150
3232.41005,0.02142
3230.34988,0.02151
3228.28971,0.02155
3226.22954,0.02163
3224.16936,0.02187
3222.10919,0.02191
3220.04902,0.02177
3217.98885,0.02177
3215.92867,0.02172
3213.86850,0.02145
3211.80833,0.02133
3209.74816,0.02146
3207.68799,0.02160
3205.62781,0.02180
3203.56764,0.02206
3201.50747,0.02213
3199.44730,0.02197
3197.38713,0.02176
3195.32695,0.02156
3193.26678,0.02138
3191.20661,0.02141
3189.14644,0.02163
3187.08626,0.02179
3185.02609,0.02182
3182.96592,0.02172
3180.90575,0.02156
3178.84558,0.02133
3176.78540,0.02108
3174.72523,0.02095
3172.66506,0.02092
3170.60489,0.02100
3168.54472,0.02121
3166.48454,0.02134
3164.42437,0.02133
3162.36420,0.02140
3160.30403,0.02141
3158.24386,0.02113
3156.18368,0.02090
3154.12351,0.02098
3152.06334,0.02103
3150.00317,0.02080
3147.94299,0.02066
3145.88282,0.02077
3143.82265,0.02087
3141.76248,0.02089
3139.70231,0.02097
3137.64213,0.02102
3135.58196,0.02074
3133.52179,0.02025
3131.46162,0.02009
3129.40145,0.02026
3127.34127,0.02030
3125.28110,0.02022
3123.22093,0.02021
3121.16076,0.02015
3119.10058,0.01997
3117.04041,0.01989
3114.98024,0.01998
3112.92007,0.02010
3110.85990,0.02001
3108.79972,0.01979
3106.73955,0.01970
3104.67938,0.01966
3102.61921,0.01958
3100.55904,0.01949
3098.49886,0.01947
3096.43869,0.01951
3094.37852,0.01949
3092.31835,0.01933
3090.25818,0.01919
3088.19800,0.01919
3086.13783,0.01915
3084.07766,0.01896
3082.01749,0.01875
3079.95731,0.01864
3077.89714,0.01873
3075.83697,0.01896
3073.77680,0.01912
3071.71663,0.01903
3069.65645,0.01869
3067.59628,0.01822
3065.53611,0.01789
3063.47594,0.01791
3061.41577,0.01805
3059.35559,0.01805
3057.29542,0.01802
3055.23525,0.01797
3053.17508,0.01772
3051.11491,0.01750
3049.05473,0.01751
3046.99456,0.01760
3044.93439,0.01765
3042.87422,0.01763
3040.81404,0.01747
3038.75387,0.01732
3036.69370,0.01728
3034.63353,0.01728
3032.57336,0.01730
3030.51318,0.01729
3028.45301,0.01715
3026.39284,0.01693
3024.33267,0.01682
3022.27250,0.01684
3020.21232,0.01677
3018.15215,0.01662
3016.09198,0.01657
3014.03181,0.01649
3011.97163,0.01631
3009.91146,0.01618
3007.85129,0.01608
3005.79112,0.01587
3003.73095,0.01569
3001.67077,0.01572
2999.61060,0.01568
2997.55043,0.01544
2995.49026,0.01534
2993.43009,0.01537
2991.36991,0.01529
2989.30974,0.01519
2987.24957,0.01513
2985.18940,0.01496
2983.12923,0.01478
2981.06905,0.01476
2979.00888,0.01484
2976.94871,0.01488
2974.88854,0.01486
2972.82836,0.01478
2970.76819,0.01470
2968.70802,0.01474
2966.64785,0.01479
2964.58768,0.01476
2962.52750,0.01483
2960.46733,0.01490
2958.40716,0.01472
2956.34699,0.01438
2954.28682,0.01420
2952.22664,0.01429
2950.16647,0.01437
2948.10630,0.01434
2946.04613,0.01435
2943.98596,0.01434
2941.92578,0.01418
2939.86561,0.01402
2937.80544,0.01394
2935.74527,0.01381
2933.68509,0.01364
2931.62492,0.01366
2929.56475,0.01385
2927.50458,0.01391
2925.44441,0.01385
2923.38423,0.01382
2921.32406,0.01366
2919.26389,0.01341
2917.20372,0.01316
2915.14355,0.01288
2913.08337,0.01279
2911.02320,0.01295
2908.96303,0.01307
2906.90286,0.01293
2904.84268,0.01264
2902.78251,0.01253
2900.72234,0.01274
2898.66217,0.01295
2896.60200,0.01292
2894.54182,0.01270
2892.48165,0.01252
2890.42148,0.01244
2888.36131,0.01236
2886.30114,0.01226
2884.24096,0.01218
2882.18079,0.01221
2880.12062,0.01234
2878.06045,0.01239
2876.00028,0.01223
2873.94010,0.01199
2871.87993,0.01183
2869.81976,0.01169
2867.75959,0.01150
2865.69941,0.01138
2863.63924,0.01139
2861.57907,0.01141
2859.51890,0.01151
2857.45873,0.01169
2855.39855,0.01164
2853.33838,0.01139
2851.27821,0.01101
2849.21804,0.01065
2847.15787,0.01064
2845.09769,0.01085
2843.03752,0.01087
2840.97735,0.01079
2838.91718,0.01074
2836.85700,0.01062
2834.79683,0.01053
2832.73666,0.01059
2830.67649,0.01058
2828.61632,0.01052
2826.55614,0.01042
2824.49597,0.01016
2822.43580,0.00995
2820.37563,0.00991
2818.31546,0.00980
2816.25528,0.00961
2814.19511,0.00955
2812.13494,0.00956
2810.07477,0.00950
2808.01460,0.00954
2805.95442,0.00968
2803.89425,0.00972
2801.83408,0.00976
2799.77391,0.00986
2797.71373,0.00986
2795.65356,0.00968
2793.59339,0.00945
2791.53322,0.00930
2789.47305,0.00913
2787.41287,0.00897
2785.35270,0.00899
2783.29253,0.00908
2781.23236,0.00900
2779.17219,0.00880
2777.11201,0.00875
2775.05184,0.00884
2772.99167,0.00893
2770.93150,0.00893
2768.87133,0.00876
2766.81115,0.00849
2764.75098,0.00832
2762.69081,0.00828
2760.63064,0.00829
2758.57046,0.00836
2756.51029,0.00844
2754.45012,0.00843
2752.38995,0.00834
2750.32978,0.00829
2748.26960,0.00830
2746.20943,0.00838
2744.14926,0.00848
2742.08909,0.00837
2740.02892,0.00810
2737.96874,0.00798
2735.90857,0.00795
2733.84840,0.00790
2731.78823,0.00786
2729.72805,0.00784
2727.66788,0.00778
2725.60771,0.00764
2723.54754,0.00752
2721.48737,0.00749
2719.42719,0.00753
2717.36702,0.00761
2715.30685,0.00766
2713.24668,0.00755
2711.18651,0.00731
2709.12633,0.00718
2707.06616,0.00728
2705.00599,0.00731
2702.94582,0.00717
2700.88565,0.00713
2698.82547,0.00722
2696.76530,0.00718
2694.70513,0.00698
2692.64496,0.00677
2690.58478,0.00661
2688.52461,0.00651
2686.46444,0.00649
2684.40427,0.00655
2682.34410,0.00665
2680.28392,0.00674
2678.22375,0.00668
2676.16358,0.00657
2674.10341,0.00651
2672.04324,0.00642
2669.98306,0.00644
2667.92289,0.00670
2665.86272,0.00690
2663.80255,0.00678
2661.74238,0.00653
2659.68220,0.00634
2657.62203,0.00630
2655.56186,0.00632
2653.50169,0.00631
2651.44151,0.00631
2649.38134,0.00626
2647.32117,0.00611
2645.26100,0.00598
2643.20083,0.00601
2641.14065,0.00616
2639.08048,0.00626
2637.02031,0.00622
2634.96014,0.00597
2632.89997,0.00562
2630.83979,0.00545
2628.77962,0.00546
2626.71945,0.00543
2624.65928,0.00531
2622.59910,0.00520
2620.53893,0.00519
2618.47876,0.00523
2616.41859,0.00531
2614.35842,0.00553
2612.29824,0.00574
2610.23807,0.00579
2608.17790,0.00568
2606.11773,0.00545
2604.05756,0.00525
2601.99738,0.00516
2599.93721,0.00503
2597.87704,0.00492
2595.81687,0.00486
2593.75670,0.00480
2591.69652,0.00482
2589.63635,0.00501
2587.57618,0.00524
2585.51601,0.00515
2583.45583,0.00500
2581.39566,0.00513
2579.33549,0.00512
2577.27532,0.00488
2575.21515,0.00484
2573.15497,0.00486
2571.09480,0.00481
2569.03463,0.00504
2566.97446,0.00536
2564.91429,0.00523
2562.85411,0.00479
2560.79394,0.00467
2558.73377,0.00484
2556.67360,0.00483
2554.61342,0.00469
2552.55325,0.00463
2550.49308,0.00455
2548.43291,0.00463
2546.37274,0.00499
2544.31256,0.00520
2542.25239,0.00505
2540.19222,0.00485
2538.13205,0.00484
2536.07188,0.00485
2534.01170,0.00475
2531.95153,0.00482
2529.89136,0.00491
2527.83119,0.00471
2525.77102,0.00465
2523.71084,0.00515
2521.65067,0.00573
2519.59050,0.00562
2517.53033,0.00501
2515.47015,0.00472
2513.40998,0.00473
2511.34981,0.00464
2509.28964,0.00458
2507.22947,0.00476
2505.16929,0.00507
2503.10912,0.00499
2501.04895,0.00462
2498.98878,0.00454
2496.92861,0.00489
2494.86843,0.00514
2492.80826,0.00480
2490.74809,0.00454
2488.68792,0.00485
2486.62775,0.00497
2484.56757,0.00474
2482.50740,0.00465
2480.44723,0.00470
2478.38706,0.00487
2476.32688,0.00512
2474.26671,0.00523
2472.20654,0.00525
2470.14637,0.00532
2468.08620,0.00544
2466.02602,0.00539
2463.96585,0.00536
2461.90568,0.00557
2459.84551,0.00571
2457.78534,0.00557
2455.72516,0.00535
2453.66499,0.00520
2451.60482,0.00519
2449.54465,0.00530
2447.48447,0.00529
2445.42430,0.00514
2443.36413,0.00504
2441.30396,0.00521
2439.24379,0.00560
2437.18361,0.00571
2435.12344,0.00530
2433.06327,0.00479
2431.00310,0.00460
2428.94293,0.00463
2426.88275,0.00474
2424.82258,0.00505
2422.76241,0.00556
2420.70224,0.00593
2418.64207,0.00595
2416.58189,0.00575
2414.52172,0.00546
2412.46155,0.00521
2410.40138,0.00511
2408.34120,0.00511
2406.28103,0.00508
2404.22086,0.00502
2402.16069,0.00481
2400.10052,0.00457
2398.04034,0.00409
2395.98017,0.00442
2393.92000,0.00494
2391.85983,0.00517
2389.79966,0.00531
2387.73948,0.00559
2385.67931,0.00584
2383.61914,0.00584
2381.55897,0.00561
2379.49880,0.00535
2377.43862,0.00499
2375.37845,0.00473
2373.31828,0.00471
2371.25811,0.00479
2369.19793,0.00500
2367.13776,0.00577
2365.07759,0.00764
2363.01742,0.00962
2360.95725,0.00915
2358.89707,0.00826
2356.83690,0.00775
2354.77673,0.00798
2352.71656,0.00818
2350.65639,0.00684
2348.59621,0.00617
2346.53604,0.00849
2344.47587,0.00881
2342.41570,0.00782
2340.35552,0.00682
2338.29535,0.00612
2336.23518,0.00645
2334.17501,0.00703
2332.11484,0.00738
2330.05466,0.00781
2327.99449,0.00850
2325.93432,0.00828
2323.87415,0.00792
2321.81398,0.00763
2319.75380,0.00765
2317.69363,0.00697
2315.63346,0.00641
2313.57329,0.00624
2311.51312,0.00621
2309.45294,0.00643
2307.39277,0.00684
2305.33260,0.00710
2303.27243,0.00699
2301.21225,0.00686
2299.15208,0.00668
2297.09191,0.00643
2295.03174,0.00632
2292.97157,0.00632
2290.91139,0.00628
2288.85122,0.00615
2286.79105,0.00585
2284.73088,0.00525
2282.67071,0.00449
2280.61053,0.00399
2278.55036,0.00400
2276.49019,0.00433
2274.43002,0.00470
2272.36984,0.00497
2270.30967,0.00487
2268.24950,0.00443
2266.18933,0.00407
2264.12916,0.00437
2262.06898,0.00504
2260.00881,0.00518
2257.94864,0.00489
2255.88847,0.00489
2253.82830,0.00505
2251.76812,0.00479
2249.70795,0.00411
2247.64778,0.00405
2245.58761,0.00459
2243.52744,0.00504
2241.46726,0.00545
2239.40709,0.00582
2237.34692,0.00573
2235.28675,0.00522
2233.22657,0.00431
2231.16640,0.00358
2229.10623,0.00337
2227.04606,0.00350
2224.98589,0.00412
2222.92571,0.00465
2220.86554,0.00445
2218.80537,0.00372
2216.74520,0.00339
2214.68503,0.00409
2212.62485,0.00443
2210.56468,0.00320
2208.50451,0.00193
2206.44434,0.00224
2204.38417,0.00314
2202.32399,0.00335
2200.26382,0.00343
2198.20365,0.00389
2196.14348,0.00397
2194.08330,0.00317
2192.02313,0.00261
2189.96296,0.00247
2187.90279,0.00229
2185.84262,0.00306
2183.78244,0.00375
2181.72227,0.00354
2179.66210,0.00366
2177.60193,0.00352
2175.54176,0.00297
2173.48158,0.00282
2171.42141,0.00319
2169.36124,0.00350
2167.30107,0.00291
2165.24089,0.00255
2163.18072,0.00309
2161.12055,0.00254
2159.06038,0.00146
2157.00021,0.00156
2154.94003,0.00116
2152.87986,0.00049
2150.81969,0.00134
2148.75952,0.00237
2146.69935,0.00239
2144.63917,0.00263
2142.57900,0.00311
2140.51883,0.00303
2138.45866,0.00252
2136.39849,0.00225
2134.33831,0.00283
2132.27814,0.00346
2130.21797,0.00319
2128.15780,0.00269
2126.09762,0.00267
2124.03745,0.00272
2121.97728,0.00235
2119.91711,0.00195
2117.85694,0.00217
2115.79676,0.00278
2113.73659,0.00329
2111.67642,0.00362
2109.61625,0.00379
2107.55608,0.00386
2105.49590,0.00344
2103.43573,0.00258
2101.37556,0.00246
2099.31539,0.00294
2097.25521,0.00285
2095.19504,0.00240
2093.13487,0.00270
2091.07470,0.00343
2089.01453,0.00369
2086.95435,0.00358
2084.89418,0.00372
2082.83401,0.00384
2080.77384,0.00337
2078.71367,0.00290
2076.65349,0.00299
2074.59332,0.00335
2072.53315,0.00352
2070.47298,0.00350
2068.41281,0.00363
2066.35263,0.00339
2064.29246,0.00267
2062.23229,0.00274
2060.17212,0.00324
2058.11194,0.00289
2056.05177,0.00253
2053.99160,0.00292
2051.93143,0.00317
2049.87126,0.00249
2047.81108,0.00142
2045.75091,0.00115
2043.69074,0.00176
2041.63057,0.00245
2039.57040,0.00329
2037.51022,0.00396
2035.45005,0.00327
2033.38988,0.00199
2031.32971,0.00144
2029.26954,0.00109
2027.20936,0.00087
2025.14919,0.00157
2023.08902,0.00284
2021.02885,0.00319
2018.96867,0.00196
2016.90850,0.00062
2014.84833,0.00032
2012.78816,0.00066
2010.72799,0.00151
2008.66781,0.00239
2006.60764,0.00265
2004.54747,0.00283
2002.48730,0.00320
2000.42713,0.00337
1998.36695,0.00323
1996.30678,0.00300
1994.24661,0.00307
1992.18644,0.00323
1990.12626,0.00262
1988.06609,0.00153
1986.00592,0.00152
1983.94575,0.00272
1981.88558,0.00313
1979.82540,0.00229
1977.76523,0.00182
1975.70506,0.00185
1973.64489,0.00160
1971.58472,0.00120
1969.52454,0.00125
1967.46437,0.00206
1965.40420,0.00280
1963.34403,0.00278
1961.28386,0.00216
1959.22368,0.00126
1957.16351,0.00059
1955.10334,0.00045
1953.04317,0.00028
1950.98299,0.00000
1948.92282,0.00048
1946.86265,0.00156
1944.80248,0.00191
1942.74231,0.00148
1940.68213,0.00160
1938.62196,0.00196
1936.56179,0.00158
1934.50162,0.00118
1932.44145,0.00166
1930.38127,0.00254
1928.32110,0.00277
1926.26093,0.00228
1924.20076,0.00185
1922.14059,0.00177
1920.08041,0.00162
1918.02024,0.00125
1915.96007,0.00109
1913.89990,0.00136
1911.83972,0.00176
1909.77955,0.00199
1907.71938,0.00215
1905.65921,0.00220
1903.59904,0.00211
1901.53886,0.00212
1899.47869,0.00225
1897.41852,0.00231
1895.35835,0.00212
1893.29818,0.00162
1891.23800,0.00118
1889.17783,0.00118
1887.11766,0.00158
1885.05749,0.00197
1882.99731,0.00217
1880.93714,0.00226
1878.87697,0.00242
1876.81680,0.00265
1874.75663,0.00269
1872.69645,0.00248
1870.63628,0.00219
1868.57611,0.00198
1866.51594,0.00188
1864.45577,0.00178
1862.39559,0.00173
1860.33542,0.00193
1858.27525,0.00234
1856.21508,0.00253
1854.15491,0.00234
1852.09473,0.00198
1850.03456,0.00174
1847.97439,0.00179
1845.91422,0.00219
1843.85404,0.00267
1841.79387,0.00273
1839.73370,0.00248
1837.67353,0.00226
1835.61336,0.00209
1833.55318,0.00186
1831.49301,0.00172
1829.43284,0.00199
1827.37267,0.00244
1825.31250,0.00262
1823.25232,0.00251
1821.19215,0.00233
1819.13198,0.00226
1817.07181,0.00230
1815.01163,0.00230
1812.95146,0.00218
1810.89129,0.00201
1808.83112,0.00192
1806.77095,0.00188
1804.71077,0.00186
1802.65060,0.00196
1800.59043,0.00215
1798.53026,0.00214
1796.47009,0.00195
1794.40991,0.00191
1792.34974,0.00214
1790.28957,0.00241
1788.22940,0.00248
1786.16923,0.00261
1784.10905,0.00283
1782.04888,0.00281
1779.98871,0.00248
1777.92854,0.00216
1775.86836,0.00208
1773.80819,0.00223
1771.74802,0.00247
1769.68785,0.00258
1767.62768,0.00247
1765.56750,0.00245
1763.50733,0.00264
1761.44716,0.00284
1759.38699,0.00304
1757.32682,0.00330
1755.26664,0.00336
1753.20647,0.00316
1751.14630,0.00312
1749.08613,0.00339
1747.02596,0.00355
1744.96578,0.00359
1742.90561,0.00366
1740.84544,0.00357
1738.78527,0.00330
1736.72509,0.00317
1734.66492,0.00339
1732.60475,0.00382
1730.54458,0.00408
1728.48441,0.00416
1726.42423,0.00415
1724.36406,0.00411
1722.30389,0.00403
1720.24372,0.00384
1718.18355,0.00370
1716.12337,0.00387
1714.06320,0.00422
1712.00303,0.00458
1709.94286,0.00484
1707.88268,0.00493
1705.82251,0.00498
1703.76234,0.00508
1701.70217,0.00526
1699.64200,0.00565
1697.58182,0.00607
1695.52165,0.00638
1693.46148,0.00656
1691.40131,0.00659
1689.34114,0.00651
1687.28096,0.00639
1685.22079,0.00643
1683.16062,0.00686
1681.10045,0.00733
1679.04028,0.00759
1676.98010,0.00774
1674.91993,0.00805
1672.85976,0.00857
1670.79959,0.00899
1668.73941,0.00918
1666.67924,0.00929
1664.61907,0.00931
1662.55890,0.00940
1660.49873,0.00976
1658.43855,0.01014
1656.37838,0.01027
1654.31821,0.01035
1652.25804,0.01060
1650.19787,0.01056
1648.13769,0.01028
1646.07752,0.01026
1644.01735,0.01046
1641.95718,0.01046
1639.89701,0.01016
1637.83683,0.00983
1635.77666,0.00978
1633.71649,0.00993
1631.65632,0.00995
1629.59614,0.00981
1627.53597,0.00963
1625.47580,0.00942
1623.41563,0.00914
1621.35546,0.00893
1619.29528,0.00885
1617.23511,0.00871
1615.17494,0.00849
1613.11477,0.00833
1611.05460,0.00826
1608.99442,0.00825
1606.93425,0.00824
1604.87408,0.00812
1602.81391,0.00787
1600.75373,0.00760
1598.69356,0.00739
1596.63339,0.00725
1594.57322,0.00716
1592.51305,0.00698
1590.45287,0.00670
1588.39270,0.00653
1586.33253,0.00658
1584.27236,0.00666
1582.21219,0.00661
1580.15201,0.00639
1578.09184,0.00617
1576.03167,0.00608
1573.97150,0.00605
1571.91133,0.00590
1569.85115,0.00566
1567.79098,0.00541
1565.73081,0.00523
1563.67064,0.00513
1561.61046,0.00501
1559.55029,0.00489
1557.49012,0.00513
1555.42995,0.00553
1553.36978,0.00573
1551.30960,0.00562
1549.24943,0.00535
1547.18926,0.00507
1545.12909,0.00480
1543.06892,0.00467
1541.00874,0.00481
1538.94857,0.00501
1536.88840,0.00490
1534.82823,0.00457
1532.76805,0.00430
1530.70788,0.00417
1528.64771,0.00408
1526.58754,0.00412
1524.52737,0.00433
1522.46719,0.00447
1520.40702,0.00443
1518.34685,0.00422
1516.28668,0.00398
1514.22651,0.00379
1512.16633,0.00358
1510.10616,0.00354
1508.04599,0.00389
1505.98582,0.00421
1503.92565,0.00405
1501.86547,0.00370
1499.80530,0.00334
1497.74513,0.00311
1495.68496,0.00306
1493.62478,0.00298
1491.56461,0.00276
1489.50444,0.00257
1487.44427,0.00260
1485.38410,0.00272
1483.32392,0.00268
1481.26375,0.00252
1479.20358,0.00242
1477.14341,0.00241
1475.08324,0.00236
1473.02306,0.00235
1470.96289,0.00240
1468.90272,0.00240
1466.84255,0.00246
1464.78238,0.00269
1462.72220,0.00278
1460.66203,0.00251
1458.60186,0.00226
1456.54169,0.00242
1454.48151,0.00271
1452.42134,0.00279
1450.36117,0.00274
1448.30100,0.00265
1446.24083,0.00255
1444.18065,0.00249
1442.12048,0.00250
1440.06031,0.00256
1438.00014,0.00262
1435.93997,0.00260
1433.87979,0.00250
1431.81962,0.00243
1429.75945,0.00245
1427.69928,0.00246
1425.63910,0.00243
1423.57893,0.00246
1421.51876,0.00264
1419.45859,0.00286
1417.39842,0.00300
1415.33824,0.00307
1413.27807,0.00315
1411.21790,0.00319
1409.15773,0.00313
1407.09756,0.00306
1405.03738,0.00307
1402.97721,0.00306
1400.91704,0.00292
1398.85687,0.00268
1396.79670,0.00250
1394.73652,0.00247
1392.67635,0.00248
1390.61618,0.00243
1388.55601,0.00238
1386.49583,0.00241
1384.43566,0.00238
1382.37549,0.00229
1380.31532,0.00229
1378.25515,0.00227
1376.19497,0.00213
1374.13480,0.00204
1372.07463,0.00209
1370.01446,0.00217
1367.95429,0.00222
1365.89411,0.00219
1363.83394,0.00207
1361.77377,0.00195
1359.71360,0.00188
1357.65343,0.00181
1355.59325,0.00177
1353.53308,0.00175
1351.47291,0.00174
1349.41274,0.00168
1347.35256,0.00159
1345.29239,0.00150
1343.23222,0.00147
1341.17205,0.00153
1339.11188,0.00164
1337.05170,0.00170
1334.99153,0.00171
1332.93136,0.00169
1330.87119,0.00163
1328.81102,0.00157
1326.75084,0.00158
1324.69067,0.00161
1322.63050,0.00158
1320.57033,0.00144
1318.51015,0.00136
1316.44998,0.00145
1314.38981,0.00157
1312.32964,0.00164
1310.26947,0.00171
1308.20929,0.00170
1306.14912,0.00162
1304.08895,0.00159
1302.02878,0.00161
1299.96861,0.00161
1297.90843,0.00162
1295.84826,0.00168
1293.78809,0.00179
1291.72792,0.00190
1289.66775,0.00188
1287.60757,0.00179
1285.54740,0.00183
1283.48723,0.00193
1281.42706,0.00197
1279.36688,0.00203
1277.30671,0.00201
1275.24654,0.00187
1273.18637,0.00184
1271.12620,0.00201
1269.06602,0.00223
1267.00585,0.00221
1264.94568,0.00201
1262.88551,0.00196
1260.82534,0.00211
1258.76516,0.00229
1256.70499,0.00235
1254.64482,0.00229
1252.58465,0.00222
1250.52447,0.00215
1248.46430,0.00205
1246.40413,0.00201
1244.34396,0.00204
1242.28379,0.00204
1240.22361,0.00202
1238.16344,0.00194
1236.10327,0.00183
1234.04310,0.00174
1231.98293,0.00163
1229.92275,0.00147
1227.86258,0.00136
1225.80241,0.00137
1223.74224,0.00138
1221.68207,0.00126
1219.62189,0.00110
1217.56172,0.00099
1215.50155,0.00085
1213.44138,0.00067
1211.38120,0.00049
1209.32103,0.00029
1207.26086,0.00008
1205.20069,0.00000
1203.14052,0.00010
1201.08034,0.00009
1199.02017,-0.00006
1196.96000,-0.00005
1194.89983,0.00008
1192.83966,0.00003
1190.77948,-0.00005
1188.71931,-0.00007
1186.65914,-0.00018
1184.59897,-0.00023
1182.53880,-0.00007
1180.47862,0.00008
1178.41845,0.00013
1176.35828,0.00023
1174.29811,0.00044
1172.23793,0.00064
1170.17776,0.00084
1168.11759,0.00110
1166.05742,0.00137
1163.99725,0.00155
1161.93707,0.00179
1159.87690,0.00214
1157.81673,0.00237
1155.75656,0.00250
1153.69639,0.00286
1151.63621,0.00347
1149.57604,0.00399
1147.51587,0.00428
1145.45570,0.00457
1143.39552,0.00498
1141.33535,0.00548
1139.27518,0.00606
1137.21501,0.00669
1135.15484,0.00717
1133.09466,0.00760
1131.03449,0.00825
1128.97432,0.00903
1126.91415,0.00974
1124.85398,0.01048
1122.79380,0.01142
1120.73363,0.01249
1118.67346,0.01353
1116.61329,0.01443
1114.55312,0.01516
1112.49294,0.01585
1110.43277,0.01658
1108.37260,0.01730
1106.31243,0.01807
1104.25225,0.01885
1102.19208,0.01955
1100.13191,0.02026
1098.07174,0.02113
1096.01157,0.02206
1093.95139,0.02285
1091.89122,0.02332
1089.83105,0.02355
1087.77088,0.02381
1085.71071,0.02423
1083.65053,0.02494
1081.59036,0.02580
1079.53019,0.02635
1077.47002,0.02657
1075.40985,0.02679
1073.34967,0.02708
1071.28950,0.02742
1069.22933,0.02774
1067.16916,0.02779
1065.10898,0.02766
1063.04881,0.02745
1060.98864,0.02714
1058.92847,0.02668
1056.86830,0.02620
1054.80812,0.02570
1052.74795,0.02504
1050.68778,0.02412
1048.62761,0.02296
1046.56744,0.02172
1044.50726,0.02050
1042.44709,0.01937
1040.38692,0.01835
1038.32675,0.01739
1036.26657,0.01645
1034.20640,0.01545
1032.14623,0.01449
1030.08606,0.01373
1028.02589,0.01291
1025.96571,0.01198
1023.90554,0.01121
1021.84537,0.01064
1019.78520,0.01020
1017.72503,0.01002
1015.66485,0.01002
1013.60468,0.01006
1011.54451,0.01009
1009.48434,0.01014
1007.42417,0.01034
1005.36399,0.01068
1003.30382,0.01114
1001.24365,0.01174
999.18348,0.01242
997.12330,0.01301
995.06313,0.01356
993.00296,0.01416
990.94279,0.01477
988.88262,0.01544
986.82244,0.01622
984.76227,0.01682
982.70210,0.01708
980.64193,0.01719
978.58176,0.01712
976.52158,0.01703
974.46141,0.01685
972.40124,0.01618
970.34107,0.01540
968.28089,0.01489
966.22072,0.01437
964.16055,0.01349
962.10038,0.01242
960.04021,0.01151
957.98003,0.01085
955.91986,0.01024
953.85969,0.00934
951.79952,0.00846
949.73935,0.00803
947.67917,0.00778
945.61900,0.00721
943.55883,0.00634
941.49866,0.00568
939.43849,0.00543
937.37831,0.00519
935.31814,0.00483
933.25797,0.00450
931.19780,0.00405
929.13762,0.00351
927.07745,0.00319
925.01728,0.00308
922.95711,0.00300
920.89694,0.00309
918.83676,0.00324
916.77659,0.00300
914.71642,0.00256
912.65625,0.00246
910.59608,0.00262
908.53590,0.00259
906.47573,0.00243
904.41556,0.00239
902.35539,0.00241
900.29522,0.00248
898.23504,0.00262
896.17487,0.00274
894.11470,0.00296
892.05453,0.00340
889.99435,0.00367
887.93418,0.00364
885.87401,0.00370
883.81384,0.00399
881.75367,0.00433
879.69349,0.00469
877.63332,0.00518
875.57315,0.00567
873.51298,0.00589
871.45281,0.00593
869.39263,0.00603
867.33246,0.00619
865.27229,0.00640
863.21212,0.00684
861.15194,0.00721
859.09177,0.00708
857.03160,0.00682
854.97143,0.00675
852.91126,0.00659
850.85108,0.00658
848.79091,0.00680
846.73074,0.00684
844.67057,0.00669
842.61040,0.00652
840.55022,0.00633
838.49005,0.00589
836.42988,0.00523
834.36971,0.00486
832.30954,0.00469
830.24936,0.00433
828.18919,0.00414
826.12902,0.00431
824.06885,0.00431
822.00867,0.00400
819.94850,0.00365
817.88833,0.00318
815.82816,0.00269
813.76799,0.00251
811.70781,0.00254
809.64764,0.00262
807.58747,0.00274
805.52730,0.00275
803.46713,0.00261
801.40695,0.00250
799.34678,0.00247
797.28661,0.00210
795.22644,0.00136
793.16627,0.00103
791.10609,0.00131
789.04592,0.00163
786.98575,0.00167
784.92558,0.00152
782.86540,0.00163
780.80523,0.00209
778.74506,0.00224
776.68489,0.00188
774.62472,0.00135
772.56454,0.00089
770.50437,0.00084
768.44420,0.00112
766.38403,0.00131
764.32386,0.00130
762.26368,0.00092
760.20351,0.00059
758.14334,0.00079
756.08317,0.00106
754.02299,0.00123
751.96282,0.00145
749.90265,0.00150
747.84248,0.00143
745.78231,0.00163
743.72213,0.00198
741.66196,0.00199
739.60179,0.00171
737.54162,0.00176
735.48145,0.00206
733.42127,0.00180
731.36110,0.00111
729.30093,0.00098
727.24076,0.00161
725.18059,0.00224
723.12041,0.00266
721.06024,0.00246
719.00007,0.00164
716.93990,0.00114
714.87972,0.00113
712.81955,0.00115
710.75938,0.00105
708.69921,0.00105
706.63904,0.00117
704.57886,0.00122
702.51869,0.00126
700.45852,0.00147
698.39835,0.00185
696.33818,0.00231
694.27800,0.00270
692.21783,0.00252
690.15766,0.00185
688.09749,0.00176
686.03731,0.00232
683.97714,0.00227
681.91697,0.00187
679.85680,0.00203
677.79663,0.00246
675.73645,0.00279
673.67628,0.00215
671.61611,0.00000
669.55594,0.00141
667.49577,0.00471
665.43559,0.00085
663.37542,0.00247
661.31525,0.00402
659.25508,0.00383
657.19491,0.00325
655.13473,0.00315
653.07456,0.00360
651.01439,0.00415
648.95422,0.00495
646.89404,0.00563
644.83387,0.00540
642.77370,0.00445
640.71353,0.00398
638.65336,0.00356
636.59318,0.00232
634.53301,0.00150
632.47284,0.00217
630.41267,0.00336
628.35250,0.00394
626.29232,0.00325
624.23215,0.00145
622.17198,0.00000
620.11181,0.00019
618.05164,0.00306
615.99146,0.00540
613.93129,0.00403
611.87112,0.00201
609.81095,0.00168
607.75077,0.00176
605.69060,0.00130
603.63043,0.00131
601.57026,0.00144
599.51009,0.00000
