3996.73391,0.00020
3994.67373,0.00044
3992.61356,0.00023
3990.55339,0.00002
3988.49322,0.00006
3986.43305,-0.00003
3984.37287,-0.00021
3982.31270,-0.00025
3980.25253,-0.00025
3978.19236,-0.00020
3976.13219,0.00014
3974.07201,0.00055
3972.01184,0.00055
3969.95167,0.00042
3967.89150,0.00061
3965.83133,0.00085
3963.77115,0.00074
3961.71098,0.00044
3959.65081,0.00023
3957.59064,0.00007
3955.53046,0.00000
3953.47029,0.00022
3951.41012,0.00056
3949.34995,0.00071
3947.28978,0.00074
3945.22960,0.00077
3943.16943,0.00074
3941.10926,0.00059
3939.04909,0.00040
3936.98892,0.00022
3934.92874,0.00029
3932.86857,0.00065
3930.80840,0.00081
3928.74823,0.00076
3926.68805,0.00084
3924.62788,0.00092
3922.56771,0.00078
3920.50754,0.00060
3918.44737,0.00047
3916.38719,0.00044
3914.32702,0.00060
3912.26685,0.00093
3910.20668,0.00129
3908.14651,0.00157
3906.08633,0.00159
3904.02616,0.00135
3901.96599,0.00118
3899.90582,0.00116
3897.84565,0.00105
3895.78547,0.00086
3893.72530,0.00069
3891.66513,0.00077
3889.60496,0.00119
3887.54478,0.00154
3885.48461,0.00153
3883.42444,0.00135
3881.36427,0.00120
3879.30410,0.00108
3877.24392,0.00123
3875.18375,0.00169
3873.12358,0.00203
3871.06341,0.00186
3869.00324,0.00139
3866.94306,0.00110
3864.88289,0.00094
3862.82272,0.00093
3860.76255,0.00135
3858.70237,0.00195
3856.64220,0.00204
3854.58203,0.00112
3852.52186,0.00000
3850.46169,0.00005
3848.40151,0.00069
3846.34134,0.00108
3844.28117,0.00107
3842.22100,0.00084
3840.16083,0.00061
3838.10065,0.00045
3836.04048,0.00049
3833.98031,0.00077
3831.92014,0.00111
3829.85997,0.00135
3827.79979,0.00142
3825.73962,0.00138
3823.67945,0.00151
3821.61928,0.00175
3819.55910,0.00186
3817.49893,0.00187
3815.43876,0.00169
3813.37859,0.00153
3811.31842,0.00168
3809.25824,0.00185
3807.19807,0.00163
3805.13790,0.00131
3803.07773,0.00138
3801.01756,0.00164
3798.95738,0.00180
3796.89721,0.00177
3794.83704,0.00164
3792.77687,0.00171
3790.71670,0.00200
3788.65652,0.00216
3786.59635,0.00192
3784.53618,0.00150
3782.47601,0.00133
3780.41583,0.00152
3778.35566,0.00171
3776.29549,0.00168
3774.23532,0.00168
3772.17515,0.00191
3770.11497,0.00219
3768.05480,0.00226
3765.99463,0.00206
3763.93446,0.00167
3761.87429,0.00149
3759.81411,0.00168
3757.75394,0.00186
3755.69377,0.00185
3753.63360,0.00178
3751.57342,0.00145
3749.51325,0.00094
3747.45308,0.00086
3745.39291,0.00105
3743.33274,0.00130
3741.27256,0.00165
3739.21239,0.00175
3737.15222,0.00157
3735.09205,0.00161
3733.03188,0.00180
3730.97170,0.00201
3728.91153,0.00231
3726.85136,0.00227
3724.79119,0.00173
3722.73102,0.00132
3720.67084,0.00157
3718.61067,0.00200
3716.55050,0.00227
3714.49033,0.00237
3712.43015,0.00216
3710.36998,0.00198
3708.30981,0.00213
3706.24964,0.00236
3704.18947,0.00219
3702.12929,0.00158
3700.06912,0.00097
3698.00895,0.00096
3695.94878,0.00171
3693.88861,0.00274
3691.82843,0.00322
3689.76826,0.00257
3687.70809,0.00181
3685.64792,0.00194
3683.58775,0.00237
3681.52757,0.00256
3679.46740,0.00278
3677.40723,0.00320
3675.34706,0.00350
3673.28688,0.00360
3671.22671,0.00368
3669.16654,0.00366
3667.10637,0.00349
3665.04620,0.00334
3662.98602,0.00349
3660.92585,0.00399
3658.86568,0.00434
3656.80551,0.00410
3654.74534,0.00359
3652.68516,0.00344
3650.62499,0.00383
3648.56482,0.00448
3646.50465,0.00490
3644.44447,0.00507
3642.38430,0.00521
3640.32413,0.00531
3638.26396,0.00553
3636.20379,0.00588
3634.14361,0.00615
3632.08344,0.00628
3630.02327,0.00628
3627.96310,0.00624
3625.90293,0.00638
3623.84275,0.00686
3621.78258,0.00756
3619.72241,0.00828
3617.66224,0.00883
3615.60207,0.00918
3613.54189,0.00959
3611.48172,0.00984
3609.42155,0.00979
3607.36138,0.00974
3605.30120,0.00996
3603.24103,0.01030
3601.18086,0.01055
3599.12069,0.01094
3597.06052,0.01146
3595.00034,0.01180
3592.94017,0.01185
3590.88000,0.01181
3588.81983,0.01166
3586.75966,0.01172
3584.69948,0.01219
3582.63931,0.01277
3580.57914,0.01342
3578.51897,0.01412
3576.45879,0.01444
3574.39862,0.01439
3572.33845,0.01470
3570.27828,0.01556
3568.21811,0.01618
3566.15793,0.01599
3564.09776,0.01575
3562.03759,0.01589
3559.97742,0.01610
3557.91725,0.01631
3555.85707,0.01650
3553.79690,0.01666
3551.73673,0.01705
3549.67656,0.01750
3547.61639,0.01764
3545.55621,0.01779
3543.49604,0.01841
3541.43587,0.01913
3539.37570,0.01953
3537.31552,0.01975
3535.25535,0.02009
3533.19518,0.02046
3531.13501,0.02065
3529.07484,0.02060
3527.01466,0.02043
3524.95449,0.02045
3522.89432,0.02090
3520.83415,0.02167
3518.77398,0.02232
3516.71380,0.02272
3514.65363,0.02314
3512.59346,0.02362
3510.53329,0.02394
3508.47312,0.02412
3506.41294,0.02429
3504.35277,0.02441
3502.29260,0.02472
3500.23243,0.02531
3498.17225,0.02562
3496.11208,0.02529
3494.05191,0.02498
3491.99174,0.02526
3489.93157,0.02585
3487.87139,0.02634
3485.81122,0.02665
3483.75105,0.02675
3481.69088,0.02678
3479.63071,0.02692
3477.57053,0.02708
3475.51036,0.02717
3473.45019,0.02735
3471.39002,0.02768
3469.32984,0.02814
3467.26967,0.02865
3465.20950,0.02890
3463.14933,0.02887
3461.08916,0.02891
3459.02898,0.02915
3456.96881,0.02934
3454.90864,0.02932
3452.84847,0.02934
3450.78830,0.02971
3448.72812,0.03022
3446.66795,0.03054
3444.60778,0.03067
3442.54761,0.03074
3440.48744,0.03084
3438.42726,0.03093
3436.36709,0.03094
3434.30692,0.03095
3432.24675,0.03100
3430.18657,0.03118
3428.12640,0.03166
3426.06623,0.03217
3424.00606,0.03245
3421.94589,0.03269
3419.88571,0.03287
3417.82554,0.03283
3415.76537,0.03282
3413.70520,0.03315
3411.64503,0.03346
3409.58485,0.03349
3407.52468,0.03359
3405.46451,0.03379
3403.40434,0.03395
3401.34416,0.03414
3399.28399,0.03441
3397.22382,0.03457
3395.16365,0.03452
3393.10348,0.03456
3391.04330,0.03487
3388.98313,0.03525
3386.92296,0.03534
3384.86279,0.03516
3382.80262,0.03508
3380.74244,0.03523
3378.68227,0.03542
3376.62210,0.03560
3374.56193,0.03595
3372.50176,0.03615
3370.44158,0.03613
3368.38141,0.03626
3366.32124,0.03646
3364.26107,0.03652
3362.20089,0.03652
3360.14072,0.03659
3358.08055,0.03663
3356.02038,0.03652
3353.96021,0.03644
3351.90003,0.03658
3349.83986,0.03681
3347.77969,0.03699
3345.71952,0.03696
3343.65935,0.03689
3341.59917,0.03691
3339.53900,0.03687
3337.47883,0.03678
3335.41866,0.03682
3333.35849,0.03690
3331.29831,0.03698
3329.23814,0.03715
3327.17797,0.03733
3325.11780,0.03737
3323.05762,0.03738
3320.99745,0.03751
3318.93728,0.03759
3316.87711,0.03756
3314.81694,0.03764
3312.75676,0.03792
3310.69659,0.03823
3308.63642,0.03829
3306.57625,0.03806
3304.51608,0.03798
3302.45590,0.03813
3300.39573,0.03825
3298.33556,0.03834
3296.27539,0.03853
3294.21521,0.03873
3292.15504,0.03868
3290.09487,0.03831
3288.03470,0.03804
3285.97453,0.03825
3283.91435,0.03869
3281.85418,0.03899
3279.79401,0.03897
3277.73384,0.03870
3275.67367,0.03839
3273.61349,0.03822
3271.55332,0.03836
3269.49315,0.03862
3267.43298,0.03856
3265.37281,0.03828
3263.31263,0.03815
3261.25246,0.03820
3259.19229,0.03820
3257.13212,0.03810
3255.07194,0.03819
3253.01177,0.03841
3250.95160,0.03862
3248.89143,0.03877
3246.83126,0.03860
3244.77108,0.03830
3242.71091,0.03826
3240.65074,0.03841
3238.59057,0.03853
3236.53040,0.03855
3234.47022,0.03844
3232.41005,0.03824
3230.34988,0.03809
3228.28971,0.03812
3226.22954,0.03821
3224.16936,0.03834
3222.10919,0.03854
3220.04902,0.03872
3217.98885,0.03883
3215.92867,0.03891
3213.86850,0.03878
3211.80833,0.03831
3209.74816,0.03786
3207.68799,0.03775
3205.62781,0.03776
3203.56764,0.03768
3201.50747,0.03754
3199.44730,0.03743
3197.38713,0.03737
3195.32695,0.03737
3193.26678,0.03748
3191.20661,0.03748
3189.14644,0.03721
3187.08626,0.03689
3185.02609,0.03683
3182.96592,0.03686
3180.90575,0.03683
3178.84558,0.03693
3176.78540,0.03699
3174.72523,0.03678
3172.66506,0.03654
3170.60489,0.03650
3168.54472,0.03664
3166.48454,0.03676
3164.42437,0.03675
3162.36420,0.03663
3160.30403,0.03642
3158.24386,0.03624
3156.18368,0.03614
3154.12351,0.03606
3152.06334,0.03599
3150.00317,0.03596
3147.94299,0.03581
3145.88282,0.03560
3143.82265,0.03556
3141.76248,0.03548
3139.70231,0.03520
3137.64213,0.03513
3135.58196,0.03535
3133.52179,0.03539
3131.46162,0.03513
3129.40145,0.03490
3127.34127,0.03480
3125.28110,0.03477
3123.22093,0.03472
3121.16076,0.03455
3119.10058,0.03432
3117.04041,0.03413
3114.98024,0.03390
3112.92007,0.03372
3110.85990,0.03375
3108.79972,0.03371
3106.73955,0.03339
3104.67938,0.03302
3102.61921,0.03300
3100.55904,0.03333
3098.49886,0.03351
3096.43869,0.03332
3094.37852,0.03304
3092.31835,0.03288
3090.25818,0.03272
3088.19800,0.03248
3086.13783,0.03224
3084.07766,0.03196
3082.01749,0.03168
3079.95731,0.03160
3077.89714,0.03168
3075.83697,0.03171
3073.77680,0.03147
3071.71663,0.03113
3069.65645,0.03107
3067.59628,0.03119
3065.53611,0.03116
3063.47594,0.03097
3061.41577,0.03077
3059.35559,0.03075
3057.29542,0.03075
3055.23525,0.03052
3053.17508,0.03014
3051.11491,0.02999
3049.05473,0.02999
3046.99456,0.02983
3044.93439,0.02965
3042.87422,0.02946
3040.81404,0.02917
3038.75387,0.02893
3036.69370,0.02871
3034.63353,0.02855
3032.57336,0.02858
3030.51318,0.02860
3028.45301,0.02843
3026.39284,0.02823
3024.33267,0.02803
3022.27250,0.02778
3020.21232,0.02763
3018.15215,0.02765
3016.09198,0.02761
3014.03181,0.02752
3011.97163,0.02739
3009.91146,0.02708
3007.85129,0.02664
3005.79112,0.02634
3003.73095,0.02627
3001.67077,0.02631
2999.61060,0.02631
2997.55043,0.02615
2995.49026,0.02589
2993.43009,0.02570
2991.36991,0.02569
2989.30974,0.02578
2987.24957,0.02589
2985.18940,0.02592
2983.12923,0.02573
2981.06905,0.02546
2979.00888,0.02535
2976.94871,0.02543
2974.88854,0.02551
2972.82836,0.02540
2970.76819,0.02525
2968.70802,0.02524
2966.64785,0.02523
2964.58768,0.02517
2962.52750,0.02511
2960.46733,0.02493
2958.40716,0.02479
2956.34699,0.02496
2954.28682,0.02527
2952.22664,0.02529
2950.16647,0.02499
2948.10630,0.02477
2946.04613,0.02464
2943.98596,0.02448
2941.92578,0.02454
2939.86561,0.02468
2937.80544,0.02460
2935.74527,0.02450
2933.68509,0.02457
2931.62492,0.02461
2929.56475,0.02448
2927.50458,0.02436
2925.44441,0.02445
2923.38423,0.02460
2921.32406,0.02459
2919.26389,0.02442
2917.20372,0.02403
2915.14355,0.02354
2913.08337,0.02328
2911.02320,0.02323
2908.96303,0.02309
2906.90286,0.02284
2904.84268,0.02255
2902.78251,0.02234
2900.72234,0.02226
2898.66217,0.02220
2896.60200,0.02207
2894.54182,0.02185
2892.48165,0.02167
2890.42148,0.02161
2888.36131,0.02164
2886.30114,0.02162
2884.24096,0.02138
2882.18079,0.02102
2880.12062,0.02082
2878.06045,0.02093
2876.00028,0.02104
2873.94010,0.02101
2871.87993,0.02100
2869.81976,0.02099
2867.75959,0.02080
2865.69941,0.02047
2863.63924,0.02021
2861.57907,0.02007
2859.51890,0.02004
2857.45873,0.02006
2855.39855,0.01998
2853.33838,0.01977
2851.27821,0.01950
2849.21804,0.01910
2847.15787,0.01865
2845.09769,0.01848
2843.03752,0.01855
2840.97735,0.01870
2838.91718,0.01894
2836.85700,0.01889
2834.79683,0.01833
2832.73666,0.01776
2830.67649,0.01762
2828.61632,0.01772
2826.55614,0.01763
2824.49597,0.01719
2822.43580,0.01677
2820.37563,0.01671
2818.31546,0.01681
2816.25528,0.01673
2814.19511,0.01663
2812.13494,0.01669
2810.07477,0.01676
2808.01460,0.01649
2805.95442,0.01592
2803.89425,0.01563
2801.83408,0.01576
2799.77391,0.01586
2797.71373,0.01578
2795.65356,0.01566
2793.59339,0.01555
2791.53322,0.01547
2789.47305,0.01545
2787.41287,0.01546
2785.35270,0.01546
2783.29253,0.01537
2781.23236,0.01518
2779.17219,0.01505
2777.11201,0.01495
2775.05184,0.01476
2772.99167,0.01458
2770.93150,0.01451
2768.87133,0.01454
2766.81115,0.01459
2764.75098,0.01467
2762.69081,0.01464
2760.63064,0.01444
2758.57046,0.01426
2756.51029,0.01408
2754.45012,0.01391
2752.38995,0.01388
2750.32978,0.01383
2748.26960,0.01365
2746.20943,0.01347
2744.14926,0.01336
2742.08909,0.01333
2740.02892,0.01327
2737.96874,0.01314
2735.90857,0.01302
2733.84840,0.01294
2731.78823,0.01286
2729.72805,0.01273
2727.66788,0.01256
2725.60771,0.01254
2723.54754,0.01266
2721.48737,0.01275
2719.42719,0.01271
2717.36702,0.01258
2715.30685,0.01243
2713.24668,0.01227
2711.18651,0.01213
2709.12633,0.01207
2707.06616,0.01198
2705.00599,0.01186
2702.94582,0.01175
2700.88565,0.01164
2698.82547,0.01171
2696.76530,0.01192
2694.70513,0.01192
2692.64496,0.01170
2690.58478,0.01152
2688.52461,0.01148
2686.46444,0.01141
2684.40427,0.01126
2682.34410,0.01113
2680.28392,0.01105
2678.22375,0.01108
2676.16358,0.01107
2674.10341,0.01096
2672.04324,0.01083
2669.98306,0.01069
2667.92289,0.01054
2665.86272,0.01038
2663.80255,0.01024
2661.74238,0.01023
2659.68220,0.01036
2657.62203,0.01057
2655.56186,0.01064
2653.50169,0.01046
2651.44151,0.01031
2649.38134,0.01042
2647.32117,0.01060
2645.26100,0.01060
2643.20083,0.01038
2641.14065,0.01004
2639.08048,0.00977
2637.02031,0.00972
2634.96014,0.00987
2632.89997,0.01007
2630.83979,0.01010
2628.77962,0.00988
2626.71945,0.00962
2624.65928,0.00933
2622.59910,0.00905
2620.53893,0.00912
2618.47876,0.00938
2616.41859,0.00934
2614.35842,0.00908
2612.29824,0.00897
2610.23807,0.00896
2608.17790,0.00897
2606.11773,0.00907
2604.05756,0.00902
2601.99738,0.00865
2599.93721,0.00842
2597.87704,0.00852
2595.81687,0.00854
2593.75670,0.00854
2591.69652,0.00873
2589.63635,0.00866
2587.57618,0.00821
2585.51601,0.00771
2583.45583,0.00731
2581.39566,0.00724
2579.33549,0.00756
2577.27532,0.00778
2575.21515,0.00760
2573.15497,0.00731
2571.09480,0.00733
2569.03463,0.00756
2566.97446,0.00764
2564.91429,0.00769
2562.85411,0.00780
2560.79394,0.00784
2558.73377,0.00798
2556.67360,0.00812
2554.61342,0.00797
2552.55325,0.00779
2550.49308,0.00777
2548.43291,0.00779
2546.37274,0.00784
2544.31256,0.00780
2542.25239,0.00761
2540.19222,0.00748
2538.13205,0.00749
2536.07188,0.00763
2534.01170,0.00788
2531.95153,0.00803
2529.89136,0.00798
2527.83119,0.00795
2525.77102,0.00799
2523.71084,0.00807
2521.65067,0.00807
2519.59050,0.00768
2517.53033,0.00716
2515.47015,0.00709
2513.40998,0.00745
2511.34981,0.00781
2509.28964,0.00808
2507.22947,0.00815
2505.16929,0.00795
2503.10912,0.00780
2501.04895,0.00786
2498.98878,0.00803
2496.92861,0.00814
2494.86843,0.00799
2492.80826,0.00765
2490.74809,0.00746
2488.68792,0.00754
2486.62775,0.00766
2484.56757,0.00776
2482.50740,0.00800
2480.44723,0.00836
2478.38706,0.00870
2476.32688,0.00883
2474.26671,0.00859
2472.20654,0.00833
2470.14637,0.00834
2468.08620,0.00835
2466.02602,0.00846
2463.96585,0.00863
2461.90568,0.00859
2459.84551,0.00864
2457.78534,0.00890
2455.72516,0.00898
2453.66499,0.00883
2451.60482,0.00879
2449.54465,0.00870
2447.48447,0.00825
2445.42430,0.00795
2443.36413,0.00807
2441.30396,0.00813
2439.24379,0.00802
2437.18361,0.00803
2435.12344,0.00820
2433.06327,0.00825
2431.00310,0.00793
2428.94293,0.00759
2426.88275,0.00759
2424.82258,0.00790
2422.76241,0.00826
2420.70224,0.00828
2418.64207,0.00813
2416.58189,0.00798
2414.52172,0.00775
2412.46155,0.00773
2410.40138,0.00803
2408.34120,0.00826
2406.28103,0.00820
2404.22086,0.00806
2402.16069,0.00807
2400.10052,0.00828
2398.04034,0.00842
2395.98017,0.00835
2393.92000,0.00809
2391.85983,0.00785
2389.79966,0.00781
2387.73948,0.00806
2385.67931,0.00847
2383.61914,0.00866
2381.55897,0.00854
2379.49880,0.00845
2377.43862,0.00846
2375.37845,0.00786
2373.31828,0.00721
2371.25811,0.00738
2369.19793,0.00846
2367.13776,0.00979
2365.07759,0.00914
2363.01742,0.00608
2360.95725,0.00575
2358.89707,0.00565
2356.83690,0.00549
2354.77673,0.00604
2352.71656,0.00725
2350.65639,0.01056
2348.59621,0.01243
2346.53604,0.00843
2344.47587,0.00737
2342.41570,0.00781
2340.35552,0.00857
2338.29535,0.00987
2336.23518,0.01058
2334.17501,0.01053
2332.11484,0.00980
2330.05466,0.00968
2327.99449,0.00954
2325.93432,0.01013
2323.87415,0.00987
2321.81398,0.00946
2319.75380,0.00874
2317.69363,0.00918
2315.63346,0.00911
2313.57329,0.00860
2311.51312,0.00870
2309.45294,0.00905
2307.39277,0.00886
2305.33260,0.00819
2303.27243,0.00788
2301.21225,0.00781
2299.15208,0.00792
2297.09191,0.00816
2295.03174,0.00851
2292.97157,0.00869
2290.91139,0.00862
2288.85122,0.00869
2286.79105,0.00889
2284.73088,0.00873
2282.67071,0.00815
2280.61053,0.00779
2278.55036,0.00791
2276.49019,0.00807
2274.43002,0.00804
2272.36984,0.00780
2270.30967,0.00732
2268.24950,0.00679
2266.18933,0.00662
2264.12916,0.00690
2262.06898,0.00722
2260.00881,0.00731
2257.94864,0.00734
2255.88847,0.00718
2253.82830,0.00698
2251.76812,0.00676
2249.70795,0.00617
2247.64778,0.00566
2245.58761,0.00597
2243.52744,0.00673
2241.46726,0.00716
2239.40709,0.00699
2237.34692,0.00696
2235.28675,0.00739
2233.22657,0.00728
2231.16640,0.00654
2229.10623,0.00586
2227.04606,0.00561
2224.98589,0.00557
2222.92571,0.00555
2220.86554,0.00547
2218.80537,0.00522
2216.74520,0.00506
2214.68503,0.00474
2212.62485,0.00467
2210.56468,0.00567
2208.50451,0.00685
2206.44434,0.00683
2204.38417,0.00592
2202.32399,0.00534
2200.26382,0.00488
2198.20365,0.00413
2196.14348,0.00397
2194.08330,0.00476
2192.02313,0.00558
2189.96296,0.00553
2187.90279,0.00509
2185.84262,0.00511
2183.78244,0.00511
2181.72227,0.00429
2179.66210,0.00314
2177.60193,0.00282
2175.54176,0.00364
2173.48158,0.00507
2171.42141,0.00613
2169.36124,0.00621
2167.30107,0.00574
2165.24089,0.00539
2163.18072,0.00513
2161.12055,0.00429
2159.06038,0.00312
2157.00021,0.00247
2154.94003,0.00229
2152.87986,0.00307
2150.81969,0.00427
2148.75952,0.00402
2146.69935,0.00290
2144.63917,0.00241
2142.57900,0.00233
2140.51883,0.00263
2138.45866,0.00335
2136.39849,0.00336
2134.33831,0.00293
2132.27814,0.00310
2130.21797,0.00358
2128.15780,0.00401
2126.09762,0.00406
2124.03745,0.00392
2121.97728,0.00448
2119.91711,0.00513
2117.85694,0.00468
2115.79676,0.00359
2113.73659,0.00305
2111.67642,0.00356
2109.61625,0.00426
2107.55608,0.00418
2105.49590,0.00395
2103.43573,0.00415
2101.37556,0.00444
2099.31539,0.00478
2097.25521,0.00510
2095.19504,0.00524
2093.13487,0.00509
2091.07470,0.00462
2089.01453,0.00397
2086.95435,0.00337
2084.89418,0.00337
2082.83401,0.00409
2080.77384,0.00491
2078.71367,0.00546
2076.65349,0.00568
2074.59332,0.00554
2072.53315,0.00507
2070.47298,0.00444
2068.41281,0.00395
2066.35263,0.00351
2064.29246,0.00311
2062.23229,0.00331
2060.17212,0.00411
2058.11194,0.00493
2056.05177,0.00519
2053.99160,0.00493
2051.93143,0.00484
2049.87126,0.00522
2047.81108,0.00586
2045.75091,0.00603
2043.69074,0.00523
2041.63057,0.00416
2039.57040,0.00382
2037.51022,0.00416
2035.45005,0.00426
2033.38988,0.00370
2031.32971,0.00281
2029.26954,0.00199
2027.20936,0.00233
2025.14919,0.00366
2023.08902,0.00360
2021.02885,0.00275
2018.96867,0.00299
2016.90850,0.00363
2014.84833,0.00405
2012.78816,0.00415
2010.72799,0.00313
2008.66781,0.00096
2006.60764,0.00000
2004.54747,0.00153
2002.48730,0.00330
2000.42713,0.00379
1998.36695,0.00394
1996.30678,0.00374
1994.24661,0.00280
1992.18644,0.00260
1990.12626,0.00373
1988.06609,0.00454
1986.00592,0.00378
1983.94575,0.00239
1981.88558,0.00220
1979.82540,0.00283
1977.76523,0.00260
1975.70506,0.00164
1973.64489,0.00108
1971.58472,0.00116
1969.52454,0.00136
1967.46437,0.00142
1965.40420,0.00152
1963.34403,0.00138
1961.28386,0.00100
1959.22368,0.00066
1957.16351,0.00033
1955.10334,0.00018
1953.04317,0.00059
1950.98299,0.00149
1948.92282,0.00248
1946.86265,0.00329
1944.80248,0.00345
1942.74231,0.00262
1940.68213,0.00163
1938.62196,0.00136
1936.56179,0.00170
1934.50162,0.00215
1932.44145,0.00233
1930.38127,0.00218
1928.32110,0.00187
1926.26093,0.00157
1924.20076,0.00138
1922.14059,0.00160
1920.08041,0.00228
1918.02024,0.00287
1915.96007,0.00283
1913.89990,0.00246
1911.83972,0.00244
1909.77955,0.00282
1907.71938,0.00297
1905.65921,0.00270
1903.59904,0.00259
1901.53886,0.00283
1899.47869,0.00304
1897.41852,0.00293
1895.35835,0.00255
1893.29818,0.00216
1891.23800,0.00211
1889.17783,0.00247
1887.11766,0.00280
1885.05749,0.00282
1882.99731,0.00257
1880.93714,0.00224
1878.87697,0.00207
1876.81680,0.00209
1874.75663,0.00217
1872.69645,0.00224
1870.63628,0.00211
1868.57611,0.00175
1866.51594,0.00158
1864.45577,0.00189
1862.39559,0.00239
1860.33542,0.00261
1858.27525,0.00245
1856.21508,0.00229
1854.15491,0.00234
1852.09473,0.00253
1850.03456,0.00268
1847.97439,0.00256
1845.91422,0.00220
1843.85404,0.00189
1841.79387,0.00183
1839.73370,0.00208
1837.67353,0.00252
1835.61336,0.00269
1833.55318,0.00249
1831.49301,0.00228
1829.43284,0.00223
1827.37267,0.00222
1825.31250,0.00213
1823.25232,0.00210
1821.19215,0.00222
1819.13198,0.00234
1817.07181,0.00244
1815.01163,0.00252
1812.95146,0.00239
1810.89129,0.00213
1808.83112,0.00210
1806.77095,0.00227
1804.71077,0.00237
1802.65060,0.00237
1800.59043,0.00240
1798.53026,0.00246
1796.47009,0.00250
1794.40991,0.00255
1792.34974,0.00256
1790.28957,0.00248
1788.22940,0.00240
1786.16923,0.00234
1784.10905,0.00229
1782.04888,0.00235
1779.98871,0.00254
1777.92854,0.00266
1775.86836,0.00254
1773.80819,0.00231
1771.74802,0.00235
1769.68785,0.00268
1767.62768,0.00298
1765.56750,0.00313
1763.50733,0.00309
1761.44716,0.00300
1759.38699,0.00315
1757.32682,0.00351
1755.26664,0.00374
1753.20647,0.00377
1751.14630,0.00373
1749.08613,0.00378
1747.02596,0.00398
1744.96578,0.00435
1742.90561,0.00474
1740.84544,0.00493
1738.78527,0.00489
1736.72509,0.00477
1734.66492,0.00472
1732.60475,0.00487
1730.54458,0.00509
1728.48441,0.00519
1726.42423,0.00526
1724.36406,0.00540
1722.30389,0.00554
1720.24372,0.00557
1718.18355,0.00556
1716.12337,0.00563
1714.06320,0.00574
1712.00303,0.00580
1709.94286,0.00602
1707.88268,0.00652
1705.82251,0.00710
1703.76234,0.00761
1701.70217,0.00823
1699.64200,0.00889
1697.58182,0.00930
1695.52165,0.00961
1693.46148,0.01001
1691.40131,0.01059
1689.34114,0.01130
1687.28096,0.01196
1685.22079,0.01257
1683.16062,0.01338
1681.10045,0.01434
1679.04028,0.01518
1676.98010,0.01582
1674.91993,0.01639
1672.85976,0.01711
1670.79959,0.01790
1668.73941,0.01859
1666.67924,0.01918
1664.61907,0.01988
1662.55890,0.02069
1660.49873,0.02138
1658.43855,0.02189
1656.37838,0.02225
1654.31821,0.02229
1652.25804,0.02197
1650.19787,0.02174
1648.13769,0.02144
1646.07752,0.02100
1644.01735,0.02089
1641.95718,0.02105
1639.89701,0.02118
1637.83683,0.02094
1635.77666,0.02015
1633.71649,0.01937
1631.65632,0.01901
1629.59614,0.01878
1627.53597,0.01843
1625.47580,0.01795
1623.41563,0.01731
1621.35546,0.01672
1619.29528,0.01630
1617.23511,0.01583
1615.17494,0.01538
1613.11477,0.01509
1611.05460,0.01488
1608.99442,0.01475
1606.93425,0.01464
1604.87408,0.01439
1602.81391,0.01407
1600.75373,0.01382
1598.69356,0.01363
1596.63339,0.01342
1594.57322,0.01319
1592.51305,0.01296
1590.45287,0.01269
1588.39270,0.01240
1586.33253,0.01212
1584.27236,0.01193
1582.21219,0.01183
1580.15201,0.01176
1578.09184,0.01159
1576.03167,0.01122
1573.97150,0.01093
1571.91133,0.01084
1569.85115,0.01066
1567.79098,0.01042
1565.73081,0.01039
1563.67064,0.01052
1561.61046,0.01060
1559.55029,0.01050
1557.49012,0.01037
1555.42995,0.01039
1553.36978,0.01036
1551.30960,0.01027
1549.24943,0.01023
1547.18926,0.01017
1545.12909,0.00995
1543.06892,0.00954
1541.00874,0.00898
1538.94857,0.00842
1536.88840,0.00817
1534.82823,0.00812
1532.76805,0.00808
1530.70788,0.00800
1528.64771,0.00786
1526.58754,0.00760
1524.52737,0.00736
1522.46719,0.00717
1520.40702,0.00703
1518.34685,0.00699
1516.28668,0.00684
1514.22651,0.00658
1512.16633,0.00639
1510.10616,0.00618
1508.04599,0.00561
1505.98582,0.00498
1503.92565,0.00499
1501.86547,0.00516
1499.80530,0.00500
1497.74513,0.00459
1495.68496,0.00440
1493.62478,0.00455
1491.56461,0.00469
1489.50444,0.00452
1487.44427,0.00422
1485.38410,0.00410
1483.32392,0.00410
1481.26375,0.00411
1479.20358,0.00420
1477.14341,0.00448
1475.08324,0.00481
1473.02306,0.00493
1470.96289,0.00492
1468.90272,0.00504
1466.84255,0.00525
1464.78238,0.00547
1462.72220,0.00568
1460.66203,0.00581
1458.60186,0.00559
1456.54169,0.00514
1454.48151,0.00512
1452.42134,0.00540
1450.36117,0.00562
1448.30100,0.00569
1446.24083,0.00567
1444.18065,0.00564
1442.12048,0.00568
1440.06031,0.00581
1438.00014,0.00590
1435.93997,0.00579
1433.87979,0.00568
1431.81962,0.00580
1429.75945,0.00603
1427.69928,0.00616
1425.63910,0.00624
1423.57893,0.00634
1421.51876,0.00635
1419.45859,0.00623
1417.39842,0.00622
1415.33824,0.00635
1413.27807,0.00639
1411.21790,0.00637
1409.15773,0.00637
1407.09756,0.00632
1405.03738,0.00618
1402.97721,0.00604
1400.91704,0.00594
1398.85687,0.00575
1396.79670,0.00548
1394.73652,0.00526
1392.67635,0.00514
1390.61618,0.00508
1388.55601,0.00494
1386.49583,0.00469
1384.43566,0.00451
1382.37549,0.00449
1380.31532,0.00459
1378.25515,0.00473
1376.19497,0.00470
1374.13480,0.00447
1372.07463,0.00423
1370.01446,0.00413
1367.95429,0.00415
1365.89411,0.00422
1363.83394,0.00417
1361.77377,0.00397
1359.71360,0.00377
1357.65343,0.00369
1355.59325,0.00372
1353.53308,0.00372
1351.47291,0.00363
1349.41274,0.00347
1347.35256,0.00332
1345.29239,0.00325
1343.23222,0.00328
1341.17205,0.00330
1339.11188,0.00323
1337.05170,0.00314
1334.99153,0.00308
1332.93136,0.00303
1330.87119,0.00300
1328.81102,0.00301
1326.75084,0.00307
1324.69067,0.00321
1322.63050,0.00338
1320.57033,0.00343
1318.51015,0.00334
1316.44998,0.00329
1314.38981,0.00338
1312.32964,0.00350
1310.26947,0.00356
1308.20929,0.00354
1306.14912,0.00357
1304.08895,0.00368
1302.02878,0.00380
1299.96861,0.00384
1297.90843,0.00385
1295.84826,0.00394
1293.78809,0.00409
1291.72792,0.00417
1289.66775,0.00417
1287.60757,0.00417
1285.54740,0.00416
1283.48723,0.00404
1281.42706,0.00392
1279.36688,0.00393
1277.30671,0.00404
1275.24654,0.00414
1273.18637,0.00415
1271.12620,0.00411
1269.06602,0.00411
1267.00585,0.00408
1264.94568,0.00405
1262.88551,0.00410
1260.82534,0.00415
1258.76516,0.00414
1256.70499,0.00418
1254.64482,0.00429
1252.58465,0.00439
1250.52447,0.00447
1248.46430,0.00454
1246.40413,0.00457
1244.34396,0.00447
1242.28379,0.00424
1240.22361,0.00397
1238.16344,0.00377
1236.10327,0.00365
1234.04310,0.00357
1231.98293,0.00350
1229.92275,0.00332
1227.86258,0.00298
1225.80241,0.00269
1223.74224,0.00245
1221.68207,0.00219
1219.62189,0.00196
1217.56172,0.00185
1215.50155,0.00172
1213.44138,0.00147
1211.38120,0.00124
1209.32103,0.00106
1207.26086,0.00093
1205.20069,0.00077
1203.14052,0.00050
1201.08034,0.00035
1199.02017,0.00032
1196.96000,0.00020
1194.89983,0.00004
1192.83966,0.00000
1190.77948,0.00006
1188.71931,0.00022
1186.65914,0.00034
1184.59897,0.00045
1182.53880,0.00067
1180.47862,0.00088
1178.41845,0.00097
1176.35828,0.00107
1174.29811,0.00133
1172.23793,0.00176
1170.17776,0.00212
1168.11759,0.00224
1166.05742,0.00237
1163.99725,0.00283
1161.93707,0.00345
1159.87690,0.00401
1157.81673,0.00458
1155.75656,0.00517
1153.69639,0.00577
1151.63621,0.00643
1149.57604,0.00708
1147.51587,0.00773
1145.45570,0.00842
1143.39552,0.00915
1141.33535,0.01007
1139.27518,0.01104
1137.21501,0.01187
1135.15484,0.01295
1133.09466,0.01436
1131.03449,0.01565
1128.97432,0.01674
1126.91415,0.01795
1124.85398,0.01930
1122.79380,0.02065
1120.73363,0.02206
1118.67346,0.02359
1116.61329,0.02518
1114.55312,0.02670
1112.49294,0.02804
1110.43277,0.02922
1108.37260,0.03035
1106.31243,0.03163
1104.25225,0.03299
1102.19208,0.03408
1100.13191,0.03487
1098.07174,0.03568
1096.01157,0.03665
1093.95139,0.03764
1091.89122,0.03845
1089.83105,0.03916
1087.77088,0.03997
1085.71071,0.04074
1083.65053,0.04141
1081.59036,0.04209
1079.53019,0.04270
1077.47002,0.04315
1075.40985,0.04357
1073.34967,0.04406
1071.28950,0.04440
1069.22933,0.04435
1067.16916,0.04414
1065.10898,0.04402
1063.04881,0.04393
1060.98864,0.04367
1058.92847,0.04317
1056.86830,0.04249
1054.80812,0.04160
1052.74795,0.04041
1050.68778,0.03896
1048.62761,0.03758
1046.56744,0.03641
1044.50726,0.03505
1042.44709,0.03327
1040.38692,0.03151
1038.32675,0.03001
1036.26657,0.02846
1034.20640,0.02679
1032.14623,0.02515
1030.08606,0.02371
1028.02589,0.02259
1025.96571,0.02151
1023.90554,0.02023
1021.84537,0.01903
1019.78520,0.01814
1017.72503,0.01751
1015.66485,0.01706
1013.60468,0.01684
1011.54451,0.01676
1009.48434,0.01673
1007.42417,0.01697
1005.36399,0.01746
1003.30382,0.01819
1001.24365,0.01932
999.18348,0.02045
997.12330,0.02122
995.06313,0.02192
993.00296,0.02285
990.94279,0.02384
988.88262,0.02474
986.82244,0.02555
984.76227,0.02612
982.70210,0.02629
980.64193,0.02622
978.58176,0.02611
976.52158,0.02595
974.46141,0.02564
972.40124,0.02500
970.34107,0.02402
968.28089,0.02294
966.22072,0.02187
964.16055,0.02079
962.10038,0.01963
960.04021,0.01823
957.98003,0.01677
955.91986,0.01556
953.85969,0.01444
951.79952,0.01328
949.73935,0.01234
947.67917,0.01159
945.61900,0.01086
943.55883,0.01010
941.49866,0.00913
939.43849,0.00796
937.37831,0.00705
935.31814,0.00666
933.25797,0.00633
931.19780,0.00560
929.13762,0.00485
927.07745,0.00453
925.01728,0.00442
922.95711,0.00419
920.89694,0.00378
918.83676,0.00335
916.77659,0.00302
914.71642,0.00286
912.65625,0.00291
910.59608,0.00306
908.53590,0.00305
906.47573,0.00289
904.41556,0.00293
902.35539,0.00305
900.29522,0.00288
898.23504,0.00273
896.17487,0.00303
894.11470,0.00357
892.05453,0.00377
889.99435,0.00394
887.93418,0.00473
885.87401,0.00567
883.81384,0.00621
881.75367,0.00647
879.69349,0.00677
877.63332,0.00716
875.57315,0.00759
873.51298,0.00817
871.45281,0.00881
869.39263,0.00946
867.33246,0.00992
865.27229,0.01011
863.21212,0.01016
861.15194,0.01015
859.09177,0.01027
857.03160,0.01045
854.97143,0.01005
852.91126,0.00937
850.85108,0.00943
848.79091,0.00978
846.73074,0.00982
844.67057,0.00988
842.61040,0.00971
840.55022,0.00900
838.49005,0.00825
836.42988,0.00776
834.36971,0.00738
832.30954,0.00681
830.24936,0.00606
828.18919,0.00562
826.12902,0.00552
824.06885,0.00542
822.00867,0.00493
819.94850,0.00412
817.88833,0.00367
815.82816,0.00364
813.76799,0.00384
811.70781,0.00424
809.64764,0.00420
807.58747,0.00336
805.52730,0.00263
803.46713,0.00258
801.40695,0.00260
799.34678,0.00249
797.28661,0.00268
795.22644,0.00274
793.16627,0.00233
791.10609,0.00212
789.04592,0.00217
786.98575,0.00203
784.92558,0.00199
782.86540,0.00230
780.80523,0.00236
778.74506,0.00210
776.68489,0.00194
774.62472,0.00176
772.56454,0.00154
770.50437,0.00127
768.44420,0.00114
766.38403,0.00129
764.32386,0.00153
762.26368,0.00161
760.20351,0.00174
758.14334,0.00198
756.08317,0.00197
754.02299,0.00196
751.96282,0.00211
749.90265,0.00227
747.84248,0.00230
745.78231,0.00199
743.72213,0.00163
741.66196,0.00162
739.60179,0.00159
737.54162,0.00147
735.48145,0.00180
733.42127,0.00214
731.36110,0.00172
729.30093,0.00080
727.24076,0.00036
725.18059,0.00062
723.12041,0.00133
721.06024,0.00176
719.00007,0.00286
716.93990,0.00285
714.87972,0.00184
712.81955,0.00146
710.75938,0.00182
708.69921,0.00228
706.63904,0.00255
704.57886,0.00284
702.51869,0.00338
700.45852,0.00376
698.39835,0.00357
696.33818,0.00308
694.27800,0.00282
692.21783,0.00303
690.15766,0.00363
688.09749,0.00449
686.03731,0.00524
683.97714,0.00534
681.91697,0.00502
679.85680,0.00477
677.79663,0.00444
675.73645,0.00420
673.67628,0.00552
671.61611,0.00832
669.55594,0.00498
667.49577,0.00000
665.43559,0.00798
663.37542,0.00671
661.31525,0.00486
659.25508,0.00557
657.19491,0.00617
655.13473,0.00510
653.07456,0.00344
651.01439,0.00259
648.95422,0.00293
646.89404,0.00439
644.83387,0.00494
642.77370,0.00392
640.71353,0.00248
638.65336,0.00190
636.59318,0.00209
634.53301,0.00244
632.47284,0.00280
630.41267,0.00316
628.35250,0.00336
626.29232,0.00349
624.23215,0.00314
622.17198,0.00230
620.11181,0.00272
618.05164,0.00453
615.99146,0.00592
613.93129,0.00557
611.87112,0.00311
609.81095,0.00055
607.75077,0.00011
605.69060,0.00134
603.63043,0.00172
601.57026,0.00044
599.51009,0.00000
