3996.73391,0.00025
3994.67373,0.00026
3992.61356,0.00003
3990.55339,0.00001
3988.49322,0.00026
3986.43305,0.00045
3984.37287,0.00046
3982.31270,0.00025
3980.25253,0.00006
3978.19236,0.00013
3976.13219,0.00031
3974.07201,0.00046
3972.01184,0.00057
3969.95167,0.00055
3967.89150,0.00042
3965.83133,0.00042
3963.77115,0.00047
3961.71098,0.00035
3959.65081,0.00013
3957.59064,0.00000
3955.53046,0.00006
3953.47029,0.00028
3951.41012,0.00042
3949.34995,0.00034
3947.28978,0.00026
3945.22960,0.00033
3943.16943,0.00046
3941.10926,0.00053
3939.04909,0.00044
3936.98892,0.00012
3934.92874,-0.00015
3932.86857,-0.00008
3930.80840,0.00011
3928.74823,0.00029
3926.68805,0.00051
3924.62788,0.00053
3922.56771,0.00029
3920.50754,0.00009
3918.44737,0.00000
3916.38719,0.00006
3914.32702,0.00040
3912.26685,0.00080
3910.20668,0.00095
3908.14651,0.00082
3906.08633,0.00055
3904.02616,0.00031
3901.96599,0.00039
3899.90582,0.00073
3897.84565,0.00088
3895.78547,0.00073
3893.72530,0.00057
3891.66513,0.00060
3889.60496,0.00087
3887.54478,0.00123
3885.48461,0.00126
3883.42444,0.00083
3881.36427,0.00042
3879.30410,0.00034
3877.24392,0.00040
3875.18375,0.00044
3873.12358,0.00055
3871.06341,0.00073
3869.00324,0.00081
3866.94306,0.00062
3864.88289,0.00036
3862.82272,0.00046
3860.76255,0.00089
3858.70237,0.00119
3856.64220,0.00121
3854.58203,0.00095
3852.52186,0.00058
3850.46169,0.00060
3848.40151,0.00087
3846.34134,0.00103
3844.28117,0.00093
3842.22100,0.00066
3840.16083,0.00050
3838.10065,0.00039
3836.04048,0.00013
3833.98031,0.00000
3831.92014,0.00028
3829.85997,0.00083
3827.79979,0.00109
3825.73962,0.00084
3823.67945,0.00057
3821.61928,0.00058
3819.55910,0.00068
3817.49893,0.00076
3815.43876,0.00083
3813.37859,0.00094
3811.31842,0.00117
3809.25824,0.00141
3807.19807,0.00147
3805.13790,0.00136
3803.07773,0.00135
3801.01756,0.00145
3798.95738,0.00136
3796.89721,0.00110
3794.83704,0.00084
3792.77687,0.00073
3790.71670,0.00086
3788.65652,0.00108
3786.59635,0.00111
3784.53618,0.00101
3782.47601,0.00098
3780.41583,0.00097
3778.35566,0.00093
3776.29549,0.00097
3774.23532,0.00118
3772.17515,0.00143
3770.11497,0.00152
3768.05480,0.00151
3765.99463,0.00145
3763.93446,0.00126
3761.87429,0.00122
3759.81411,0.00147
3757.75394,0.00161
3755.69377,0.00137
3753.63360,0.00106
3751.57342,0.00097
3749.51325,0.00106
3747.45308,0.00135
3745.39291,0.00166
3743.33274,0.00175
3741.27256,0.00158
3739.21239,0.00111
3737.15222,0.00041
3735.09205,0.00000
3733.03188,0.00033
3730.97170,0.00103
3728.91153,0.00156
3726.85136,0.00152
3724.79119,0.00109
3722.73102,0.00109
3720.67084,0.00150
3718.61067,0.00165
3716.55050,0.00142
3714.49033,0.00116
3712.43015,0.00104
3710.36998,0.00109
3708.30981,0.00134
3706.24964,0.00146
3704.18947,0.00149
3702.12929,0.00163
3700.06912,0.00173
3698.00895,0.00173
3695.94878,0.00181
3693.88861,0.00194
3691.82843,0.00180
3689.76826,0.00134
3687.70809,0.00107
3685.64792,0.00128
3683.58775,0.00153
3681.52757,0.00144
3679.46740,0.00123
3677.40723,0.00167
3675.34706,0.00280
3673.28688,0.00328
3671.22671,0.00276
3669.16654,0.00213
3667.10637,0.00181
3665.04620,0.00169
3662.98602,0.00185
3660.92585,0.00228
3658.86568,0.00262
3656.80551,0.00262
3654.74534,0.00232
3652.68516,0.00189
3650.62499,0.00150
3648.56482,0.00158
3646.50465,0.00233
3644.44447,0.00302
3642.38430,0.00316
3640.32413,0.00304
3638.26396,0.00320
3636.20379,0.00358
3634.14361,0.00372
3632.08344,0.00353
3630.02327,0.00341
3627.96310,0.00365
3625.90293,0.00401
3623.84275,0.00439
3621.78258,0.00475
3619.72241,0.00479
3617.66224,0.00458
3615.60207,0.00483
3613.54189,0.00560
3611.48172,0.00619
3609.42155,0.00619
3607.36138,0.00601
3605.30120,0.00595
3603.24103,0.00583
3601.18086,0.00570
3599.12069,0.00584
3597.06052,0.00619
3595.00034,0.00646
3592.94017,0.00665
3590.88000,0.00665
3588.81983,0.00635
3586.75966,0.00620
3584.69948,0.00655
3582.63931,0.00698
3580.57914,0.00735
3578.51897,0.00778
3576.45879,0.00810
3574.39862,0.00818
3572.33845,0.00827
3570.27828,0.00860
3568.21811,0.00883
3566.15793,0.00867
3564.09776,0.00849
3562.03759,0.00846
3559.97742,0.00844
3557.91725,0.00843
3555.85707,0.00848
3553.79690,0.00867
3551.73673,0.00910
3549.67656,0.00959
3547.61639,0.00990
3545.55621,0.01008
3543.49604,0.01017
3541.43587,0.01032
3539.37570,0.01069
3537.31552,0.01100
3535.25535,0.01102
3533.19518,0.01101
3531.13501,0.01107
3529.07484,0.01096
3527.01466,0.01081
3524.95449,0.01100
3522.89432,0.01139
3520.83415,0.01173
3518.77398,0.01192
3516.71380,0.01194
3514.65363,0.01202
3512.59346,0.01224
3510.53329,0.01239
3508.47312,0.01249
3506.41294,0.01261
3504.35277,0.01259
3502.29260,0.01268
3500.23243,0.01324
3498.17225,0.01379
3496.11208,0.01386
3494.05191,0.01381
3491.99174,0.01395
3489.93157,0.01400
3487.87139,0.01382
3485.81122,0.01359
3483.75105,0.01346
3481.69088,0.01354
3479.63071,0.01377
3477.57053,0.01400
3475.51036,0.01422
3473.45019,0.01444
3471.39002,0.01470
3469.32984,0.01491
3467.26967,0.01503
3465.20950,0.01515
3463.14933,0.01513
3461.08916,0.01493
3459.02898,0.01492
3456.96881,0.01516
3454.90864,0.01532
3452.84847,0.01539
3450.78830,0.01551
3448.72812,0.01569
3446.66795,0.01599
3444.60778,0.01631
3442.54761,0.01643
3440.48744,0.01642
3438.42726,0.01646
3436.36709,0.01639
3434.30692,0.01610
3432.24675,0.01603
3430.18657,0.01632
3428.12640,0.01664
3426.06623,0.01677
3424.00606,0.01690
3421.94589,0.01722
3419.88571,0.01749
3417.82554,0.01758
3415.76537,0.01767
3413.70520,0.01769
3411.64503,0.01747
3409.58485,0.01729
3407.52468,0.01741
3405.46451,0.01767
3403.40434,0.01785
3401.34416,0.01790
3399.28399,0.01797
3397.22382,0.01808
3395.16365,0.01798
3393.10348,0.01781
3391.04330,0.01797
3388.98313,0.01829
3386.92296,0.01830
3384.86279,0.01822
3382.80262,0.01845
3380.74244,0.01872
3378.68227,0.01864
3376.62210,0.01843
3374.56193,0.01856
3372.50176,0.01892
3370.44158,0.01906
3368.38141,0.01892
3366.32124,0.01874
3364.26107,0.01876
3362.20089,0.01908
3360.14072,0.01940
3358.08055,0.01952
3356.02038,0.01950
3353.96021,0.01944
3351.90003,0.01937
3349.83986,0.01923
3347.77969,0.01904
3345.71952,0.01887
3343.65935,0.01891
3341.59917,0.01923
3339.53900,0.01952
3337.47883,0.01965
3335.41866,0.01962
3333.35849,0.01951
3331.29831,0.01951
3329.23814,0.01963
3327.17797,0.01969
3325.11780,0.01964
3323.05762,0.01959
3320.99745,0.01962
3318.93728,0.01968
3316.87711,0.01979
3314.81694,0.01995
3312.75676,0.01996
3310.69659,0.01984
3308.63642,0.01968
3306.57625,0.01963
3304.51608,0.01979
3302.45590,0.01989
3300.39573,0.01983
3298.33556,0.01981
3296.27539,0.01991
3294.21521,0.02003
3292.15504,0.02007
3290.09487,0.02006
3288.03470,0.01998
3285.97453,0.02002
3283.91435,0.02033
3281.85418,0.02058
3279.79401,0.02052
3277.73384,0.02026
3275.67367,0.02005
3273.61349,0.02003
3271.55332,0.02016
3269.49315,0.02027
3267.43298,0.02010
3265.37281,0.01995
3263.31263,0.01997
3261.25246,0.01992
3259.19229,0.01986
3257.13212,0.01990
3255.07194,0.01993
3253.01177,0.01997
3250.95160,0.02017
3248.89143,0.02035
3246.83126,0.02022
3244.77108,0.02016
3242.71091,0.02033
3240.65074,0.02038
3238.59057,0.02031
3236.53040,0.02047
3234.47022,0.02074
3232.41005,0.02069
3230.34988,0.02041
3228.28971,0.02024
3226.22954,0.02019
3224.16936,0.02024
3222.10919,0.02034
3220.04902,0.02028
3217.98885,0.02025
3215.92867,0.02045
3213.86850,0.02056
3211.80833,0.02036
3209.74816,0.02010
3207.68799,0.02007
3205.62781,0.02018
3203.56764,0.02013
3201.50747,0.01994
3199.44730,0.01985
3197.38713,0.02000
3195.32695,0.02017
3193.26678,0.02009
3191.20661,0.01987
3189.14644,0.01961
3187.08626,0.01937
3185.02609,0.01926
3182.96592,0.01925
3180.90575,0.01942
3178.84558,0.01986
3176.78540,0.02014
3174.72523,0.01999
3172.66506,0.01970
3170.60489,0.01953
3168.54472,0.01962
3166.48454,0.01986
3164.42437,0.01986
3162.36420,0.01962
3160.30403,0.01951
3158.24386,0.01949
3156.18368,0.01932
3154.12351,0.01918
3152.06334,0.01922
3150.00317,0.01930
3147.94299,0.01933
3145.88282,0.01936
3143.82265,0.01941
3141.76248,0.01940
3139.70231,0.01932
3137.64213,0.01930
3135.58196,0.01933
3133.52179,0.01933
3131.46162,0.01931
3129.40145,0.01912
3127.34127,0.01875
3125.28110,0.01856
3123.22093,0.01867
3121.16076,0.01874
3119.10058,0.01869
3117.04041,0.01871
3114.98024,0.01877
3112.92007,0.01874
3110.85990,0.01875
3108.79972,0.01872
3106.73955,0.01838
3104.67938,0.01798
3102.61921,0.01787
3100.55904,0.01804
3098.49886,0.01824
3096.43869,0.01818
3094.37852,0.01802
3092.31835,0.01805
3090.25818,0.01811
3088.19800,0.01804
3086.13783,0.01793
3084.07766,0.01768
3082.01749,0.01737
3079.95731,0.01726
3077.89714,0.01730
3075.83697,0.01739
3073.77680,0.01750
3071.71663,0.01745
3069.65645,0.01721
3067.59628,0.01709
3065.53611,0.01720
3063.47594,0.01737
3061.41577,0.01746
3059.35559,0.01741
3057.29542,0.01727
3055.23525,0.01715
3053.17508,0.01698
3051.11491,0.01674
3049.05473,0.01657
3046.99456,0.01655
3044.93439,0.01661
3042.87422,0.01654
3040.81404,0.01639
3038.75387,0.01628
3036.69370,0.01609
3034.63353,0.01580
3032.57336,0.01562
3030.51318,0.01561
3028.45301,0.01562
3026.39284,0.01556
3024.33267,0.01551
3022.27250,0.01544
3020.21232,0.01532
3018.15215,0.01529
3016.09198,0.01528
3014.03181,0.01524
3011.97163,0.01521
3009.91146,0.01509
3007.85129,0.01489
3005.79112,0.01479
3003.73095,0.01469
3001.67077,0.01464
2999.61060,0.01469
2997.55043,0.01474
2995.49026,0.01471
2993.43009,0.01456
2991.36991,0.01449
2989.30974,0.01450
2987.24957,0.01443
2985.18940,0.01432
2983.12923,0.01419
2981.06905,0.01408
2979.00888,0.01410
2976.94871,0.01417
2974.88854,0.01412
2972.82836,0.01402
2970.76819,0.01404
2968.70802,0.01409
2966.64785,0.01401
2964.58768,0.01391
2962.52750,0.01381
2960.46733,0.01366
2958.40716,0.01370
2956.34699,0.01392
2954.28682,0.01413
2952.22664,0.01414
2950.16647,0.01382
2948.10630,0.01345
2946.04613,0.01328
2943.98596,0.01329
2941.92578,0.01336
2939.86561,0.01336
2937.80544,0.01328
2935.74527,0.01328
2933.68509,0.01339
2931.62492,0.01337
2929.56475,0.01314
2927.50458,0.01297
2925.44441,0.01294
2923.38423,0.01287
2921.32406,0.01285
2919.26389,0.01280
2917.20372,0.01254
2915.14355,0.01245
2913.08337,0.01272
2911.02320,0.01284
2908.96303,0.01263
2906.90286,0.01232
2904.84268,0.01200
2902.78251,0.01197
2900.72234,0.01218
2898.66217,0.01225
2896.60200,0.01219
2894.54182,0.01209
2892.48165,0.01201
2890.42148,0.01199
2888.36131,0.01187
2886.30114,0.01172
2884.24096,0.01169
2882.18079,0.01163
2880.12062,0.01153
2878.06045,0.01162
2876.00028,0.01177
2873.94010,0.01172
2871.87993,0.01144
2869.81976,0.01116
2867.75959,0.01110
2865.69941,0.01108
2863.63924,0.01101
2861.57907,0.01107
2859.51890,0.01114
2857.45873,0.01114
2855.39855,0.01111
2853.33838,0.01105
2851.27821,0.01086
2849.21804,0.01054
2847.15787,0.01030
2845.09769,0.01038
2843.03752,0.01064
2840.97735,0.01076
2838.91718,0.01081
2836.85700,0.01077
2834.79683,0.01051
2832.73666,0.01015
2830.67649,0.00983
2828.61632,0.00968
2826.55614,0.00962
2824.49597,0.00957
2822.43580,0.00963
2820.37563,0.00975
2818.31546,0.00974
2816.25528,0.00968
2814.19511,0.00971
2812.13494,0.00962
2810.07477,0.00937
2808.01460,0.00920
2805.95442,0.00909
2803.89425,0.00906
2801.83408,0.00914
2799.77391,0.00918
2797.71373,0.00906
2795.65356,0.00891
2793.59339,0.00891
2791.53322,0.00900
2789.47305,0.00899
2787.41287,0.00888
2785.35270,0.00884
2783.29253,0.00884
2781.23236,0.00879
2779.17219,0.00873
2777.11201,0.00867
2775.05184,0.00850
2772.99167,0.00825
2770.93150,0.00819
2768.87133,0.00828
2766.81115,0.00836
2764.75098,0.00844
2762.69081,0.00850
2760.63064,0.00847
2758.57046,0.00841
2756.51029,0.00828
2754.45012,0.00808
2752.38995,0.00791
2750.32978,0.00786
2748.26960,0.00798
2746.20943,0.00810
2744.14926,0.00806
2742.08909,0.00797
2740.02892,0.00783
2737.96874,0.00764
2735.90857,0.00752
2733.84840,0.00745
2731.78823,0.00739
2729.72805,0.00733
2727.66788,0.00730
2725.60771,0.00725
2723.54754,0.00721
2721.48737,0.00718
2719.42719,0.00718
2717.36702,0.00727
2715.30685,0.00734
2713.24668,0.00728
2711.18651,0.00717
2709.12633,0.00697
2707.06616,0.00677
2705.00599,0.00681
2702.94582,0.00693
2700.88565,0.00694
2698.82547,0.00699
2696.76530,0.00702
2694.70513,0.00690
2692.64496,0.00690
2690.58478,0.00695
2688.52461,0.00687
2686.46444,0.00672
2684.40427,0.00670
2682.34410,0.00679
2680.28392,0.00677
2678.22375,0.00660
2676.16358,0.00638
2674.10341,0.00628
2672.04324,0.00632
2669.98306,0.00641
2667.92289,0.00655
2665.86272,0.00653
2663.80255,0.00629
2661.74238,0.00611
2659.68220,0.00617
2657.62203,0.00633
2655.56186,0.00642
2653.50169,0.00634
2651.44151,0.00618
2649.38134,0.00616
2647.32117,0.00624
2645.26100,0.00630
2643.20083,0.00633
2641.14065,0.00629
2639.08048,0.00612
2637.02031,0.00588
2634.96014,0.00581
2632.89997,0.00596
2630.83979,0.00597
2628.77962,0.00580
2626.71945,0.00569
2624.65928,0.00564
2622.59910,0.00573
2620.53893,0.00594
2618.47876,0.00596
2616.41859,0.00581
2614.35842,0.00569
2612.29824,0.00557
2610.23807,0.00556
2608.17790,0.00583
2606.11773,0.00603
2604.05756,0.00574
2601.99738,0.00524
2599.93721,0.00524
2597.87704,0.00567
2595.81687,0.00590
2593.75670,0.00585
2591.69652,0.00571
2589.63635,0.00553
2587.57618,0.00526
2585.51601,0.00474
2583.45583,0.00434
2581.39566,0.00452
2579.33549,0.00490
2577.27532,0.00495
2575.21515,0.00474
2573.15497,0.00443
2571.09480,0.00438
2569.03463,0.00457
2566.97446,0.00475
2564.91429,0.00503
2562.85411,0.00511
2560.79394,0.00487
2558.73377,0.00487
2556.67360,0.00495
2554.61342,0.00489
2552.55325,0.00493
2550.49308,0.00493
2548.43291,0.00491
2546.37274,0.00512
2544.31256,0.00531
2542.25239,0.00514
2540.19222,0.00486
2538.13205,0.00475
2536.07188,0.00479
2534.01170,0.00492
2531.95153,0.00478
2529.89136,0.00432
2527.83119,0.00440
2525.77102,0.00499
2523.71084,0.00511
2521.65067,0.00486
2519.59050,0.00457
2517.53033,0.00433
2515.47015,0.00443
2513.40998,0.00479
2511.34981,0.00506
2509.28964,0.00508
2507.22947,0.00485
2505.16929,0.00465
2503.10912,0.00476
2501.04895,0.00496
2498.98878,0.00508
2496.92861,0.00518
2494.86843,0.00499
2492.80826,0.00467
2490.74809,0.00481
2488.68792,0.00531
2486.62775,0.00548
2484.56757,0.00527
2482.50740,0.00501
2480.44723,0.00496
2478.38706,0.00533
2476.32688,0.00588
2474.26671,0.00602
2472.20654,0.00577
2470.14637,0.00544
2468.08620,0.00503
2466.02602,0.00483
2463.96585,0.00492
2461.90568,0.00509
2459.84551,0.00525
2457.78534,0.00515
2455.72516,0.00497
2453.66499,0.00506
2451.60482,0.00535
2449.54465,0.00553
2447.48447,0.00543
2445.42430,0.00515
2443.36413,0.00482
2441.30396,0.00453
2439.24379,0.00433
2437.18361,0.00436
2435.12344,0.00468
2433.06327,0.00505
2431.00310,0.00513
2428.94293,0.00491
2426.88275,0.00481
2424.82258,0.00512
2422.76241,0.00533
2420.70224,0.00503
2418.64207,0.00472
2416.58189,0.00466
2414.52172,0.00477
2412.46155,0.00499
2410.40138,0.00507
2408.34120,0.00510
2406.28103,0.00519
2404.22086,0.00505
2402.16069,0.00479
2400.10052,0.00481
2398.04034,0.00495
2395.98017,0.00502
2393.92000,0.00504
2391.85983,0.00515
2389.79966,0.00532
2387.73948,0.00536
2385.67931,0.00518
2383.61914,0.00493
2381.55897,0.00485
2379.49880,0.00501
2377.43862,0.00538
2375.37845,0.00595
2373.31828,0.00622
2371.25811,0.00607
2369.19793,0.00649
2367.13776,0.00704
2365.07759,0.00585
2363.01742,0.00352
2360.95725,0.00127
2358.89707,0.00147
2356.83690,0.00404
2354.77673,0.00672
2352.71656,0.00756
2350.65639,0.00624
2348.59621,0.00531
2346.53604,0.00652
2344.47587,0.00672
2342.41570,0.00669
2340.35552,0.00712
2338.29535,0.00719
2336.23518,0.00717
2334.17501,0.00722
2332.11484,0.00688
2330.05466,0.00622
2327.99449,0.00593
2325.93432,0.00542
2323.87415,0.00516
2321.81398,0.00537
2319.75380,0.00609
2317.69363,0.00620
2315.63346,0.00579
2313.57329,0.00548
2311.51312,0.00570
2309.45294,0.00615
2307.39277,0.00611
2305.33260,0.00560
2303.27243,0.00526
2301.21225,0.00543
2299.15208,0.00569
2297.09191,0.00590
2295.03174,0.00605
2292.97157,0.00603
2290.91139,0.00598
2288.85122,0.00606
2286.79105,0.00627
2284.73088,0.00659
2282.67071,0.00675
2280.61053,0.00659
2278.55036,0.00635
2276.49019,0.00624
2274.43002,0.00617
2272.36984,0.00598
2270.30967,0.00567
2268.24950,0.00542
2266.18933,0.00526
2264.12916,0.00517
2262.06898,0.00511
2260.00881,0.00522
2257.94864,0.00556
2255.88847,0.00565
2253.82830,0.00513
2251.76812,0.00442
2249.70795,0.00392
2247.64778,0.00376
2245.58761,0.00436
2243.52744,0.00569
2241.46726,0.00654
2239.40709,0.00644
2237.34692,0.00612
2235.28675,0.00559
2233.22657,0.00478
2231.16640,0.00434
2229.10623,0.00423
2227.04606,0.00444
2224.98589,0.00486
2222.92571,0.00451
2220.86554,0.00370
2218.80537,0.00338
2216.74520,0.00328
2214.68503,0.00336
2212.62485,0.00437
2210.56468,0.00556
2208.50451,0.00546
2206.44434,0.00433
2204.38417,0.00334
2202.32399,0.00326
2200.26382,0.00324
2198.20365,0.00248
2196.14348,0.00198
2194.08330,0.00215
2192.02313,0.00274
2189.96296,0.00391
2187.90279,0.00503
2185.84262,0.00559
2183.78244,0.00569
2181.72227,0.00462
2179.66210,0.00298
2177.60193,0.00230
2175.54176,0.00284
2173.48158,0.00376
2171.42141,0.00398
2169.36124,0.00361
2167.30107,0.00315
2165.24089,0.00310
2163.18072,0.00335
2161.12055,0.00268
2159.06038,0.00148
2157.00021,0.00069
2154.94003,0.00028
2152.87986,0.00114
2150.81969,0.00280
2148.75952,0.00365
2146.69935,0.00328
2144.63917,0.00222
2142.57900,0.00158
2140.51883,0.00207
2138.45866,0.00311
2136.39849,0.00306
2134.33831,0.00205
2132.27814,0.00163
2130.21797,0.00190
2128.15780,0.00217
2126.09762,0.00223
2124.03745,0.00260
2121.97728,0.00345
2119.91711,0.00411
2117.85694,0.00419
2115.79676,0.00377
2113.73659,0.00347
2111.67642,0.00366
2109.61625,0.00375
2107.55608,0.00341
2105.49590,0.00321
2103.43573,0.00337
2101.37556,0.00335
2099.31539,0.00301
2097.25521,0.00285
2095.19504,0.00323
2093.13487,0.00361
2091.07470,0.00321
2089.01453,0.00243
2086.95435,0.00216
2084.89418,0.00266
2082.83401,0.00328
2080.77384,0.00339
2078.71367,0.00352
2076.65349,0.00422
2074.59332,0.00491
2072.53315,0.00461
2070.47298,0.00358
2068.41281,0.00292
2066.35263,0.00274
2064.29246,0.00275
2062.23229,0.00296
2060.17212,0.00331
2058.11194,0.00397
2056.05177,0.00455
2053.99160,0.00436
2051.93143,0.00419
2049.87126,0.00488
2047.81108,0.00554
2045.75091,0.00517
2043.69074,0.00439
2041.63057,0.00396
2039.57040,0.00389
2037.51022,0.00434
2035.45005,0.00447
2033.38988,0.00374
2031.32971,0.00333
2029.26954,0.00294
2027.20936,0.00273
2025.14919,0.00404
2023.08902,0.00467
2021.02885,0.00329
2018.96867,0.00247
2016.90850,0.00260
2014.84833,0.00215
2012.78816,0.00133
2010.72799,0.00059
2008.66781,0.00000
2006.60764,0.00026
2004.54747,0.00183
2002.48730,0.00356
2000.42713,0.00392
1998.36695,0.00343
1996.30678,0.00334
1994.24661,0.00345
1992.18644,0.00364
1990.12626,0.00406
1988.06609,0.00402
1986.00592,0.00319
1983.94575,0.00280
1981.88558,0.00372
1979.82540,0.00453
1977.76523,0.00403
1975.70506,0.00291
1973.64489,0.00208
1971.58472,0.00161
1969.52454,0.00117
1967.46437,0.00086
1965.40420,0.00131
1963.34403,0.00197
1961.28386,0.00187
1959.22368,0.00158
1957.16351,0.00150
1955.10334,0.00107
1953.04317,0.00071
1950.98299,0.00103
1948.92282,0.00186
1946.86265,0.00317
1944.80248,0.00439
1942.74231,0.00445
1940.68213,0.00340
1938.62196,0.00223
1936.56179,0.00176
1934.50162,0.00201
1932.44145,0.00227
1930.38127,0.00221
1928.32110,0.00225
1926.26093,0.00253
1924.20076,0.00255
1922.14059,0.00237
1920.08041,0.00255
1918.02024,0.00301
1915.96007,0.00315
1913.89990,0.00294
1911.83972,0.00296
1909.77955,0.00313
1907.71938,0.00308
1905.65921,0.00309
1903.59904,0.00316
1901.53886,0.00286
1899.47869,0.00241
1897.41852,0.00211
1895.35835,0.00175
1893.29818,0.00153
1891.23800,0.00199
1889.17783,0.00284
1887.11766,0.00314
1885.05749,0.00272
1882.99731,0.00206
1880.93714,0.00177
1878.87697,0.00203
1876.81680,0.00245
1874.75663,0.00267
1872.69645,0.00267
1870.63628,0.00241
1868.57611,0.00189
1866.51594,0.00152
1864.45577,0.00158
1862.39559,0.00182
1860.33542,0.00198
1858.27525,0.00213
1856.21508,0.00225
1854.15491,0.00225
1852.09473,0.00217
1850.03456,0.00214
1847.97439,0.00218
1845.91422,0.00216
1843.85404,0.00211
1841.79387,0.00214
1839.73370,0.00224
1837.67353,0.00237
1835.61336,0.00252
1833.55318,0.00265
1831.49301,0.00277
1829.43284,0.00286
1827.37267,0.00275
1825.31250,0.00247
1823.25232,0.00226
1821.19215,0.00218
1819.13198,0.00211
1817.07181,0.00207
1815.01163,0.00200
1812.95146,0.00186
1810.89129,0.00192
1808.83112,0.00218
1806.77095,0.00212
1804.71077,0.00170
1802.65060,0.00132
1800.59043,0.00126
1798.53026,0.00143
1796.47009,0.00169
1794.40991,0.00198
1792.34974,0.00217
1790.28957,0.00216
1788.22940,0.00210
1786.16923,0.00208
1784.10905,0.00205
1782.04888,0.00204
1779.98871,0.00213
1777.92854,0.00218
1775.86836,0.00200
1773.80819,0.00168
1771.74802,0.00167
1769.68785,0.00211
1767.62768,0.00258
1765.56750,0.00276
1763.50733,0.00271
1761.44716,0.00266
1759.38699,0.00275
1757.32682,0.00291
1755.26664,0.00297
1753.20647,0.00279
1751.14630,0.00241
1749.08613,0.00221
1747.02596,0.00242
1744.96578,0.00281
1742.90561,0.00306
1740.84544,0.00304
1738.78527,0.00291
1736.72509,0.00274
1734.66492,0.00250
1732.60475,0.00251
1730.54458,0.00290
1728.48441,0.00325
1726.42423,0.00334
1724.36406,0.00336
1722.30389,0.00343
1720.24372,0.00328
1718.18355,0.00298
1716.12337,0.00307
1714.06320,0.00348
1712.00303,0.00369
1709.94286,0.00382
1707.88268,0.00404
1705.82251,0.00422
1703.76234,0.00436
1701.70217,0.00462
1699.64200,0.00492
1697.58182,0.00511
1695.52165,0.00529
1693.46148,0.00547
1691.40131,0.00564
1689.34114,0.00583
1687.28096,0.00591
1685.22079,0.00592
1683.16062,0.00617
1681.10045,0.00673
1679.04028,0.00721
1676.98010,0.00743
1674.91993,0.00759
1672.85976,0.00801
1670.79959,0.00856
1668.73941,0.00888
1666.67924,0.00900
1664.61907,0.00916
1662.55890,0.00936
1660.49873,0.00954
1658.43855,0.00982
1656.37838,0.01010
1654.31821,0.01009
1652.25804,0.00981
1650.19787,0.00958
1648.13769,0.00934
1646.07752,0.00926
1644.01735,0.00953
1641.95718,0.00981
1639.89701,0.01001
1637.83683,0.00999
1635.77666,0.00963
1633.71649,0.00932
1631.65632,0.00925
1629.59614,0.00912
1627.53597,0.00883
1625.47580,0.00856
1623.41563,0.00840
1621.35546,0.00830
1619.29528,0.00808
1617.23511,0.00774
1615.17494,0.00763
1613.11477,0.00780
1611.05460,0.00789
1608.99442,0.00779
1606.93425,0.00765
1604.87408,0.00754
1602.81391,0.00742
1600.75373,0.00726
1598.69356,0.00704
1596.63339,0.00676
1594.57322,0.00658
1592.51305,0.00658
1590.45287,0.00662
1588.39270,0.00656
1586.33253,0.00644
1584.27236,0.00634
1582.21219,0.00626
1580.15201,0.00614
1578.09184,0.00593
1576.03167,0.00566
1573.97150,0.00551
1571.91133,0.00550
1569.85115,0.00543
1567.79098,0.00526
1565.73081,0.00516
1563.67064,0.00516
1561.61046,0.00509
1559.55029,0.00479
1557.49012,0.00454
1555.42995,0.00473
1553.36978,0.00496
1551.30960,0.00495
1549.24943,0.00485
1547.18926,0.00481
1545.12909,0.00473
1543.06892,0.00452
1541.00874,0.00414
1538.94857,0.00374
1536.88840,0.00360
1534.82823,0.00367
1532.76805,0.00388
1530.70788,0.00404
1528.64771,0.00396
1526.58754,0.00357
1524.52737,0.00315
1522.46719,0.00300
1520.40702,0.00310
1518.34685,0.00325
1516.28668,0.00338
1514.22651,0.00341
1512.16633,0.00329
1510.10616,0.00297
1508.04599,0.00243
1505.98582,0.00206
1503.92565,0.00223
1501.86547,0.00249
1499.80530,0.00258
1497.74513,0.00255
1495.68496,0.00253
1493.62478,0.00254
1491.56461,0.00245
1489.50444,0.00224
1487.44427,0.00217
1485.38410,0.00232
1483.32392,0.00248
1481.26375,0.00252
1479.20358,0.00244
1477.14341,0.00236
1475.08324,0.00232
1473.02306,0.00232
1470.96289,0.00241
1468.90272,0.00252
1466.84255,0.00261
1464.78238,0.00276
1462.72220,0.00297
1460.66203,0.00302
1458.60186,0.00266
1456.54169,0.00224
1454.48151,0.00232
1452.42134,0.00257
1450.36117,0.00268
1448.30100,0.00276
1446.24083,0.00294
1444.18065,0.00312
1442.12048,0.00317
1440.06031,0.00310
1438.00014,0.00291
1435.93997,0.00273
1433.87979,0.00281
1431.81962,0.00305
1429.75945,0.00319
1427.69928,0.00311
1425.63910,0.00295
1423.57893,0.00291
1421.51876,0.00296
1419.45859,0.00301
1417.39842,0.00314
1415.33824,0.00330
1413.27807,0.00346
1411.21790,0.00361
1409.15773,0.00363
1407.09756,0.00349
1405.03738,0.00332
1402.97721,0.00318
1400.91704,0.00305
1398.85687,0.00284
1396.79670,0.00260
1394.73652,0.00248
1392.67635,0.00251
1390.61618,0.00249
1388.55601,0.00232
1386.49583,0.00219
1384.43566,0.00223
1382.37549,0.00232
1380.31532,0.00242
1378.25515,0.00252
1376.19497,0.00257
1374.13480,0.00251
1372.07463,0.00233
1370.01446,0.00215
1367.95429,0.00208
1365.89411,0.00207
1363.83394,0.00198
1361.77377,0.00188
1359.71360,0.00194
1357.65343,0.00208
1355.59325,0.00215
1353.53308,0.00210
1351.47291,0.00197
1349.41274,0.00188
1347.35256,0.00185
1345.29239,0.00187
1343.23222,0.00187
1341.17205,0.00175
1339.11188,0.00160
1337.05170,0.00161
1334.99153,0.00169
1332.93136,0.00167
1330.87119,0.00164
1328.81102,0.00167
1326.75084,0.00171
1324.69067,0.00178
1322.63050,0.00192
1320.57033,0.00203
1318.51015,0.00202
1316.44998,0.00196
1314.38981,0.00199
1312.32964,0.00208
1310.26947,0.00214
1308.20929,0.00212
1306.14912,0.00205
1304.08895,0.00199
1302.02878,0.00201
1299.96861,0.00206
1297.90843,0.00201
1295.84826,0.00186
1293.78809,0.00181
1291.72792,0.00186
1289.66775,0.00185
1287.60757,0.00182
1285.54740,0.00186
1283.48723,0.00188
1281.42706,0.00190
1279.36688,0.00200
1277.30671,0.00208
1275.24654,0.00211
1273.18637,0.00212
1271.12620,0.00209
1269.06602,0.00206
1267.00585,0.00211
1264.94568,0.00223
1262.88551,0.00228
1260.82534,0.00225
1258.76516,0.00227
1256.70499,0.00232
1254.64482,0.00230
1252.58465,0.00226
1250.52447,0.00228
1248.46430,0.00234
1246.40413,0.00237
1244.34396,0.00229
1242.28379,0.00208
1240.22361,0.00187
1238.16344,0.00178
1236.10327,0.00184
1234.04310,0.00192
1231.98293,0.00194
1229.92275,0.00193
1227.86258,0.00188
1225.80241,0.00174
1223.74224,0.00153
1221.68207,0.00135
1219.62189,0.00127
1217.56172,0.00123
1215.50155,0.00121
1213.44138,0.00117
1211.38120,0.00106
1209.32103,0.00094
1207.26086,0.00083
1205.20069,0.00063
1203.14052,0.00041
1201.08034,0.00035
1199.02017,0.00034
1196.96000,0.00034
1194.89983,0.00040
1192.83966,0.00037
1190.77948,0.00017
1188.71931,0.00000
1186.65914,0.00006
1184.59897,0.00034
1182.53880,0.00063
1180.47862,0.00073
1178.41845,0.00075
1176.35828,0.00079
1174.29811,0.00085
1172.23793,0.00094
1170.17776,0.00104
1168.11759,0.00109
1166.05742,0.00104
1163.99725,0.00122
1161.93707,0.00168
1159.87690,0.00200
1157.81673,0.00215
1155.75656,0.00230
1153.69639,0.00254
1151.63621,0.00282
1149.57604,0.00307
1147.51587,0.00332
1145.45570,0.00355
1143.39552,0.00375
1141.33535,0.00411
1139.27518,0.00446
1137.21501,0.00459
1135.15484,0.00487
1133.09466,0.00538
1131.03449,0.00589
1128.97432,0.00644
1126.91415,0.00703
1124.85398,0.00751
1122.79380,0.00813
1120.73363,0.00901
1118.67346,0.00983
1116.61329,0.01048
1114.55312,0.01110
1112.49294,0.01165
1110.43277,0.01206
1108.37260,0.01249
1106.31243,0.01324
1104.25225,0.01406
1102.19208,0.01454
1100.13191,0.01476
1098.07174,0.01509
1096.01157,0.01571
1093.95139,0.01639
1091.89122,0.01694
1089.83105,0.01742
1087.77088,0.01791
1085.71071,0.01828
1083.65053,0.01856
1081.59036,0.01886
1079.53019,0.01912
1077.47002,0.01952
1075.40985,0.02006
1073.34967,0.02036
1071.28950,0.02035
1069.22933,0.02021
1067.16916,0.02007
1065.10898,0.02017
1063.04881,0.02049
1060.98864,0.02059
1058.92847,0.02026
1056.86830,0.01981
1054.80812,0.01946
1052.74795,0.01915
1050.68778,0.01884
1048.62761,0.01848
1046.56744,0.01797
1044.50726,0.01729
1042.44709,0.01629
1040.38692,0.01518
1038.32675,0.01438
1036.26657,0.01382
1034.20640,0.01328
1032.14623,0.01263
1030.08606,0.01194
1028.02589,0.01146
1025.96571,0.01106
1023.90554,0.01045
1021.84537,0.00988
1019.78520,0.00945
1017.72503,0.00889
1015.66485,0.00847
1013.60468,0.00847
1011.54451,0.00853
1009.48434,0.00847
1007.42417,0.00847
1005.36399,0.00847
1003.30382,0.00863
1001.24365,0.00917
999.18348,0.00984
997.12330,0.01037
995.06313,0.01072
993.00296,0.01108
990.94279,0.01154
988.88262,0.01197
986.82244,0.01230
984.76227,0.01262
982.70210,0.01286
980.64193,0.01285
978.58176,0.01269
976.52158,0.01265
974.46141,0.01271
972.40124,0.01260
970.34107,0.01216
968.28089,0.01144
966.22072,0.01065
964.16055,0.01009
962.10038,0.00977
960.04021,0.00924
957.98003,0.00836
955.91986,0.00757
953.85969,0.00720
951.79952,0.00692
949.73935,0.00650
947.67917,0.00617
945.61900,0.00593
943.55883,0.00568
941.49866,0.00536
939.43849,0.00491
937.37831,0.00447
935.31814,0.00410
933.25797,0.00369
931.19780,0.00326
929.13762,0.00299
927.07745,0.00285
925.01728,0.00278
922.95711,0.00290
920.89694,0.00285
918.83676,0.00234
916.77659,0.00178
914.71642,0.00155
912.65625,0.00176
910.59608,0.00214
908.53590,0.00227
906.47573,0.00224
904.41556,0.00240
902.35539,0.00249
900.29522,0.00217
898.23504,0.00181
896.17487,0.00185
894.11470,0.00211
892.05453,0.00225
889.99435,0.00224
887.93418,0.00246
885.87401,0.00301
883.81384,0.00339
881.75367,0.00331
879.69349,0.00314
877.63332,0.00326
875.57315,0.00347
873.51298,0.00375
871.45281,0.00421
869.39263,0.00463
867.33246,0.00499
865.27229,0.00537
863.21212,0.00555
861.15194,0.00555
859.09177,0.00564
857.03160,0.00573
854.97143,0.00545
852.91126,0.00503
850.85108,0.00504
848.79091,0.00536
846.73074,0.00547
844.67057,0.00527
842.61040,0.00512
840.55022,0.00511
838.49005,0.00501
836.42988,0.00474
834.36971,0.00448
832.30954,0.00411
830.24936,0.00368
828.18919,0.00350
826.12902,0.00351
824.06885,0.00338
822.00867,0.00292
819.94850,0.00252
817.88833,0.00258
815.82816,0.00277
813.76799,0.00297
811.70781,0.00342
809.64764,0.00348
807.58747,0.00266
805.52730,0.00174
803.46713,0.00141
801.40695,0.00153
799.34678,0.00190
797.28661,0.00247
795.22644,0.00274
793.16627,0.00250
791.10609,0.00225
789.04592,0.00213
786.98575,0.00190
784.92558,0.00195
782.86540,0.00244
780.80523,0.00249
778.74506,0.00211
776.68489,0.00188
774.62472,0.00189
772.56454,0.00181
770.50437,0.00149
768.44420,0.00129
766.38403,0.00129
764.32386,0.00156
762.26368,0.00201
760.20351,0.00213
758.14334,0.00192
756.08317,0.00162
754.02299,0.00134
751.96282,0.00146
749.90265,0.00192
747.84248,0.00220
745.78231,0.00221
743.72213,0.00183
741.66196,0.00135
739.60179,0.00146
737.54162,0.00214
735.48145,0.00263
733.42127,0.00237
731.36110,0.00177
729.30093,0.00113
727.24076,0.00039
725.18059,0.00000
723.12041,0.00051
721.06024,0.00196
719.00007,0.00285
716.93990,0.00247
714.87972,0.00153
712.81955,0.00105
710.75938,0.00117
708.69921,0.00135
706.63904,0.00145
704.57886,0.00183
702.51869,0.00262
700.45852,0.00326
698.39835,0.00317
696.33818,0.00257
694.27800,0.00216
692.21783,0.00214
690.15766,0.00215
688.09749,0.00191
686.03731,0.00169
683.97714,0.00169
681.91697,0.00187
679.85680,0.00216
677.79663,0.00192
675.73645,0.00111
673.67628,0.00063
671.61611,0.00036
669.55594,0.00176
667.49577,0.00375
665.43559,0.00228
663.37542,0.00355
661.31525,0.00431
659.25508,0.00390
657.19491,0.00304
655.13473,0.00208
653.07456,0.00138
651.01439,0.00125
648.95422,0.00182
646.89404,0.00278
644.83387,0.00342
642.77370,0.00291
640.71353,0.00240
638.65336,0.00287
636.59318,0.00322
634.53301,0.00276
632.47284,0.00216
630.41267,0.00193
628.35250,0.00182
626.29232,0.00111
624.23215,0.00000
622.17198,-0.00014
620.11181,0.00158
618.05164,0.00422
615.99146,0.00547
613.93129,0.00410
611.87112,0.00160
609.81095,-0.00041
607.75077,-0.00115
605.69060,-0.00077
603.63043,-0.00059
601.57026,-0.00079
599.51009,0.00000
