3996.73391,0.00045
3994.67373,0.00056
3992.61356,0.00079
3990.55339,0.00091
3988.49322,0.00073
3986.43305,0.00032
3984.37287,0.00000
3982.31270,0.00007
3980.25253,0.00037
3978.19236,0.00055
3976.13219,0.00058
3974.07201,0.00055
3972.01184,0.00040
3969.95167,0.00015
3967.89150,0.00008
3965.83133,0.00033
3963.77115,0.00061
3961.71098,0.00065
3959.65081,0.00060
3957.59064,0.00057
3955.53046,0.00048
3953.47029,0.00042
3951.41012,0.00067
3949.34995,0.00109
3947.28978,0.00114
3945.22960,0.00073
3943.16943,0.00051
3941.10926,0.00063
3939.04909,0.00060
3936.98892,0.00047
3934.92874,0.00058
3932.86857,0.00078
3930.80840,0.00069
3928.74823,0.00041
3926.68805,0.00027
3924.62788,0.00041
3922.56771,0.00070
3920.50754,0.00084
3918.44737,0.00089
3916.38719,0.00093
3914.32702,0.00078
3912.26685,0.00056
3910.20668,0.00059
3908.14651,0.00078
3906.08633,0.00092
3904.02616,0.00103
3901.96599,0.00113
3899.90582,0.00122
3897.84565,0.00132
3895.78547,0.00114
3893.72530,0.00079
3891.66513,0.00077
3889.60496,0.00095
3887.54478,0.00104
3885.48461,0.00123
3883.42444,0.00141
3881.36427,0.00152
3879.30410,0.00170
3877.24392,0.00155
3875.18375,0.00108
3873.12358,0.00090
3871.06341,0.00113
3869.00324,0.00134
3866.94306,0.00125
3864.88289,0.00117
3862.82272,0.00144
3860.76255,0.00168
3858.70237,0.00159
3856.64220,0.00146
3854.58203,0.00160
3852.52186,0.00202
3850.46169,0.00202
3848.40151,0.00154
3846.34134,0.00105
3844.28117,0.00083
3842.22100,0.00083
3840.16083,0.00090
3838.10065,0.00112
3836.04048,0.00141
3833.98031,0.00155
3831.92014,0.00145
3829.85997,0.00123
3827.79979,0.00106
3825.73962,0.00082
3823.67945,0.00033
3821.61928,0.00000
3819.55910,0.00025
3817.49893,0.00066
3815.43876,0.00107
3813.37859,0.00131
3811.31842,0.00123
3809.25824,0.00116
3807.19807,0.00148
3805.13790,0.00179
3803.07773,0.00157
3801.01756,0.00127
3798.95738,0.00132
3796.89721,0.00155
3794.83704,0.00165
3792.77687,0.00150
3790.71670,0.00127
3788.65652,0.00112
3786.59635,0.00117
3784.53618,0.00140
3782.47601,0.00134
3780.41583,0.00093
3778.35566,0.00077
3776.29549,0.00107
3774.23532,0.00143
3772.17515,0.00162
3770.11497,0.00166
3768.05480,0.00165
3765.99463,0.00166
3763.93446,0.00157
3761.87429,0.00132
3759.81411,0.00119
3757.75394,0.00145
3755.69377,0.00174
3753.63360,0.00176
3751.57342,0.00185
3749.51325,0.00221
3747.45308,0.00236
3745.39291,0.00253
3743.33274,0.00285
3741.27256,0.00298
3739.21239,0.00286
3737.15222,0.00260
3735.09205,0.00243
3733.03188,0.00227
3730.97170,0.00199
3728.91153,0.00188
3726.85136,0.00206
3724.79119,0.00215
3722.73102,0.00205
3720.67084,0.00218
3718.61067,0.00241
3716.55050,0.00239
3714.49033,0.00217
3712.43015,0.00201
3710.36998,0.00217
3708.30981,0.00236
3706.24964,0.00215
3704.18947,0.00171
3702.12929,0.00161
3700.06912,0.00196
3698.00895,0.00217
3695.94878,0.00194
3693.88861,0.00151
3691.82843,0.00143
3689.76826,0.00206
3687.70809,0.00284
3685.64792,0.00290
3683.58775,0.00240
3681.52757,0.00169
3679.46740,0.00114
3677.40723,0.00119
3675.34706,0.00178
3673.28688,0.00214
3671.22671,0.00207
3669.16654,0.00222
3667.10637,0.00262
3665.04620,0.00287
3662.98602,0.00302
3660.92585,0.00322
3658.86568,0.00333
3656.80551,0.00329
3654.74534,0.00332
3652.68516,0.00335
3650.62499,0.00355
3648.56482,0.00444
3646.50465,0.00527
3644.44447,0.00539
3642.38430,0.00519
3640.32413,0.00525
3638.26396,0.00569
3636.20379,0.00615
3634.14361,0.00630
3632.08344,0.00632
3630.02327,0.00655
3627.96310,0.00694
3625.90293,0.00711
3623.84275,0.00724
3621.78258,0.00754
3619.72241,0.00786
3617.66224,0.00818
3615.60207,0.00865
3613.54189,0.00927
3611.48172,0.00979
3609.42155,0.01012
3607.36138,0.01035
3605.30120,0.01048
3603.24103,0.01055
3601.18086,0.01061
3599.12069,0.01063
3597.06052,0.01072
3595.00034,0.01094
3592.94017,0.01121
3590.88000,0.01139
3588.81983,0.01160
3586.75966,0.01200
3584.69948,0.01238
3582.63931,0.01262
3580.57914,0.01273
3578.51897,0.01279
3576.45879,0.01310
3574.39862,0.01360
3572.33845,0.01387
3570.27828,0.01396
3568.21811,0.01429
3566.15793,0.01470
3564.09776,0.01482
3562.03759,0.01482
3559.97742,0.01501
3557.91725,0.01550
3555.85707,0.01609
3553.79690,0.01639
3551.73673,0.01647
3549.67656,0.01668
3547.61639,0.01708
3545.55621,0.01736
3543.49604,0.01746
3541.43587,0.01758
3539.37570,0.01768
3537.31552,0.01765
3535.25535,0.01778
3533.19518,0.01827
3531.13501,0.01890
3529.07484,0.01935
3527.01466,0.01954
3524.95449,0.01959
3522.89432,0.01963
3520.83415,0.01973
3518.77398,0.02000
3516.71380,0.02040
3514.65363,0.02077
3512.59346,0.02106
3510.53329,0.02132
3508.47312,0.02161
3506.41294,0.02180
3504.35277,0.02195
3502.29260,0.02223
3500.23243,0.02258
3498.17225,0.02285
3496.11208,0.02301
3494.05191,0.02297
3491.99174,0.02282
3489.93157,0.02291
3487.87139,0.02336
3485.81122,0.02390
3483.75105,0.02426
3481.69088,0.02431
3479.63071,0.02421
3477.57053,0.02428
3475.51036,0.02467
3473.45019,0.02517
3471.39002,0.02545
3469.32984,0.02547
3467.26967,0.02543
3465.20950,0.02538
3463.14933,0.02537
3461.08916,0.02567
3459.02898,0.02614
3456.96881,0.02647
3454.90864,0.02663
3452.84847,0.02666
3450.78830,0.02665
3448.72812,0.02668
3446.66795,0.02680
3444.60778,0.02702
3442.54761,0.02718
3440.48744,0.02733
3438.42726,0.02761
3436.36709,0.02791
3434.30692,0.02815
3432.24675,0.02829
3430.18657,0.02839
3428.12640,0.02857
3426.06623,0.02869
3424.00606,0.02873
3421.94589,0.02891
3419.88571,0.02932
3417.82554,0.02971
3415.76537,0.02977
3413.70520,0.02953
3411.64503,0.02940
3409.58485,0.02962
3407.52468,0.03002
3405.46451,0.03037
3403.40434,0.03050
3401.34416,0.03050
3399.28399,0.03078
3397.22382,0.03077
3395.16365,0.03066
3393.10348,0.03075
3391.04330,0.03088
3388.98313,0.03088
3386.92296,0.03083
3384.86279,0.03064
3382.80262,0.03035
3380.74244,0.03029
3378.68227,0.03047
3376.62210,0.03072
3374.56193,0.03104
3372.50176,0.03126
3370.44158,0.03123
3368.38141,0.03101
3366.32124,0.03081
3364.26107,0.03093
3362.20089,0.03132
3360.14072,0.03156
3358.08055,0.03147
3356.02038,0.03127
3353.96021,0.03123
3351.90003,0.03118
3349.83986,0.03093
3347.77969,0.03074
3345.71952,0.03091
3343.65935,0.03124
3341.59917,0.03146
3339.53900,0.03143
3337.47883,0.03123
3335.41866,0.03105
3333.35849,0.03098
3331.29831,0.03107
3329.23814,0.03128
3327.17797,0.03156
3325.11780,0.03176
3323.05762,0.03174
3320.99745,0.03163
3318.93728,0.03166
3316.87711,0.03181
3314.81694,0.03195
3312.75676,0.03194
3310.69659,0.03187
3308.63642,0.03195
3306.57625,0.03200
3304.51608,0.03182
3302.45590,0.03165
3300.39573,0.03157
3298.33556,0.03144
3296.27539,0.03130
3294.21521,0.03132
3292.15504,0.03138
3290.09487,0.03144
3288.03470,0.03170
3285.97453,0.03212
3283.91435,0.03252
3281.85418,0.03254
3279.79401,0.03218
3277.73384,0.03185
3275.67367,0.03173
3273.61349,0.03181
3271.55332,0.03192
3269.49315,0.03188
3267.43298,0.03174
3265.37281,0.03171
3263.31263,0.03178
3261.25246,0.03190
3259.19229,0.03209
3257.13212,0.03217
3255.07194,0.03195
3253.01177,0.03163
3250.95160,0.03148
3248.89143,0.03152
3246.83126,0.03159
3244.77108,0.03146
3242.71091,0.03121
3240.65074,0.03113
3238.59057,0.03119
3236.53040,0.03123
3234.47022,0.03121
3232.41005,0.03109
3230.34988,0.03095
3228.28971,0.03094
3226.22954,0.03103
3224.16936,0.03107
3222.10919,0.03108
3220.04902,0.03104
3217.98885,0.03076
3215.92867,0.03045
3213.86850,0.03034
3211.80833,0.03040
3209.74816,0.03055
3207.68799,0.03062
3205.62781,0.03060
3203.56764,0.03054
3201.50747,0.03034
3199.44730,0.03010
3197.38713,0.03008
3195.32695,0.03020
3193.26678,0.03022
3191.20661,0.03009
3189.14644,0.02987
3187.08626,0.02972
3185.02609,0.02970
3182.96592,0.02976
3180.90575,0.02971
3178.84558,0.02947
3176.78540,0.02934
3174.72523,0.02928
3172.66506,0.02902
3170.60489,0.02879
3168.54472,0.02872
3166.48454,0.02863
3164.42437,0.02849
3162.36420,0.02843
3160.30403,0.02841
3158.24386,0.02837
3156.18368,0.02842
3154.12351,0.02860
3152.06334,0.02877
3150.00317,0.02874
3147.94299,0.02849
3145.88282,0.02819
3143.82265,0.02801
3141.76248,0.02796
3139.70231,0.02790
3137.64213,0.02781
3135.58196,0.02765
3133.52179,0.02738
3131.46162,0.02720
3129.40145,0.02729
3127.34127,0.02739
3125.28110,0.02722
3123.22093,0.02699
3121.16076,0.02702
3119.10058,0.02706
3117.04041,0.02687
3114.98024,0.02666
3112.92007,0.02661
3110.85990,0.02659
3108.79972,0.02641
3106.73955,0.02619
3104.67938,0.02612
3102.61921,0.02610
3100.55904,0.02606
3098.49886,0.02606
3096.43869,0.02603
3094.37852,0.02586
3092.31835,0.02560
3090.25818,0.02532
3088.19800,0.02507
3086.13783,0.02496
3084.07766,0.02501
3082.01749,0.02495
3079.95731,0.02470
3077.89714,0.02446
3075.83697,0.02437
3073.77680,0.02439
3071.71663,0.02433
3069.65645,0.02413
3067.59628,0.02395
3065.53611,0.02389
3063.47594,0.02382
3061.41577,0.02364
3059.35559,0.02344
3057.29542,0.02331
3055.23525,0.02327
3053.17508,0.02331
3051.11491,0.02336
3049.05473,0.02328
3046.99456,0.02292
3044.93439,0.02249
3042.87422,0.02230
3040.81404,0.02223
3038.75387,0.02210
3036.69370,0.02193
3034.63353,0.02177
3032.57336,0.02175
3030.51318,0.02182
3028.45301,0.02170
3026.39284,0.02145
3024.33267,0.02128
3022.27250,0.02111
3020.21232,0.02105
3018.15215,0.02112
3016.09198,0.02099
3014.03181,0.02070
3011.97163,0.02063
3009.91146,0.02056
3007.85129,0.02019
3005.79112,0.01998
3003.73095,0.02015
3001.67077,0.02028
2999.61060,0.02020
2997.55043,0.02005
2995.49026,0.01972
2993.43009,0.01943
2991.36991,0.01943
2989.30974,0.01958
2987.24957,0.01958
2985.18940,0.01936
2983.12923,0.01916
2981.06905,0.01907
2979.00888,0.01903
2976.94871,0.01908
2974.88854,0.01929
2972.82836,0.01945
2970.76819,0.01939
2968.70802,0.01916
2966.64785,0.01888
2964.58768,0.01876
2962.52750,0.01890
2960.46733,0.01904
2958.40716,0.01892
2956.34699,0.01865
2954.28682,0.01853
2952.22664,0.01855
2950.16647,0.01863
2948.10630,0.01885
2946.04613,0.01898
2943.98596,0.01886
2941.92578,0.01865
2939.86561,0.01845
2937.80544,0.01837
2935.74527,0.01840
2933.68509,0.01832
2931.62492,0.01815
2929.56475,0.01802
2927.50458,0.01795
2925.44441,0.01793
2923.38423,0.01784
2921.32406,0.01757
2919.26389,0.01729
2917.20372,0.01720
2915.14355,0.01717
2913.08337,0.01700
2911.02320,0.01683
2908.96303,0.01676
2906.90286,0.01676
2904.84268,0.01678
2902.78251,0.01666
2900.72234,0.01638
2898.66217,0.01611
2896.60200,0.01595
2894.54182,0.01579
2892.48165,0.01567
2890.42148,0.01565
2888.36131,0.01561
2886.30114,0.01549
2884.24096,0.01537
2882.18079,0.01532
2880.12062,0.01533
2878.06045,0.01530
2876.00028,0.01523
2873.94010,0.01518
2871.87993,0.01514
2869.81976,0.01503
2867.75959,0.01485
2865.69941,0.01467
2863.63924,0.01461
2861.57907,0.01465
2859.51890,0.01449
2857.45873,0.01408
2855.39855,0.01376
2853.33838,0.01374
2851.27821,0.01375
2849.21804,0.01357
2847.15787,0.01341
2845.09769,0.01331
2843.03752,0.01315
2840.97735,0.01304
2838.91718,0.01299
2836.85700,0.01287
2834.79683,0.01277
2832.73666,0.01280
2830.67649,0.01287
2828.61632,0.01282
2826.55614,0.01263
2824.49597,0.01243
2822.43580,0.01229
2820.37563,0.01221
2818.31546,0.01211
2816.25528,0.01197
2814.19511,0.01192
2812.13494,0.01203
2810.07477,0.01209
2808.01460,0.01196
2805.95442,0.01178
2803.89425,0.01165
2801.83408,0.01154
2799.77391,0.01142
2797.71373,0.01133
2795.65356,0.01136
2793.59339,0.01135
2791.53322,0.01129
2789.47305,0.01120
2787.41287,0.01103
2785.35270,0.01092
2783.29253,0.01084
2781.23236,0.01074
2779.17219,0.01077
2777.11201,0.01084
2775.05184,0.01076
2772.99167,0.01051
2770.93150,0.01030
2768.87133,0.01029
2766.81115,0.01029
2764.75098,0.01015
2762.69081,0.01002
2760.63064,0.01002
2758.57046,0.01008
2756.51029,0.01015
2754.45012,0.01010
2752.38995,0.00986
2750.32978,0.00963
2748.26960,0.00966
2746.20943,0.00979
2744.14926,0.00973
2742.08909,0.00951
2740.02892,0.00940
2737.96874,0.00937
2735.90857,0.00932
2733.84840,0.00930
2731.78823,0.00931
2729.72805,0.00928
2727.66788,0.00918
2725.60771,0.00909
2723.54754,0.00911
2721.48737,0.00918
2719.42719,0.00916
2717.36702,0.00898
2715.30685,0.00880
2713.24668,0.00881
2711.18651,0.00887
2709.12633,0.00872
2707.06616,0.00848
2705.00599,0.00836
2702.94582,0.00846
2700.88565,0.00863
2698.82547,0.00867
2696.76530,0.00861
2694.70513,0.00852
2692.64496,0.00840
2690.58478,0.00827
2688.52461,0.00813
2686.46444,0.00805
2684.40427,0.00802
2682.34410,0.00795
2680.28392,0.00776
2678.22375,0.00761
2676.16358,0.00762
2674.10341,0.00769
2672.04324,0.00764
2669.98306,0.00750
2667.92289,0.00744
2665.86272,0.00752
2663.80255,0.00763
2661.74238,0.00769
2659.68220,0.00765
2657.62203,0.00746
2655.56186,0.00719
2653.50169,0.00696
2651.44151,0.00695
2649.38134,0.00719
2647.32117,0.00736
2645.26100,0.00724
2643.20083,0.00698
2641.14065,0.00682
2639.08048,0.00683
2637.02031,0.00686
2634.96014,0.00688
2632.89997,0.00688
2630.83979,0.00675
2628.77962,0.00660
2626.71945,0.00663
2624.65928,0.00677
2622.59910,0.00676
2620.53893,0.00668
2618.47876,0.00661
2616.41859,0.00638
2614.35842,0.00616
2612.29824,0.00611
2610.23807,0.00608
2608.17790,0.00609
2606.11773,0.00619
2604.05756,0.00617
2601.99738,0.00594
2599.93721,0.00563
2597.87704,0.00550
2595.81687,0.00555
2593.75670,0.00563
2591.69652,0.00568
2589.63635,0.00566
2587.57618,0.00558
2585.51601,0.00569
2583.45583,0.00589
2581.39566,0.00597
2579.33549,0.00589
2577.27532,0.00565
2575.21515,0.00542
2573.15497,0.00533
2571.09480,0.00530
2569.03463,0.00549
2566.97446,0.00581
2564.91429,0.00573
2562.85411,0.00526
2560.79394,0.00506
2558.73377,0.00525
2556.67360,0.00527
2554.61342,0.00526
2552.55325,0.00558
2550.49308,0.00587
2548.43291,0.00592
2546.37274,0.00595
2544.31256,0.00591
2542.25239,0.00559
2540.19222,0.00526
2538.13205,0.00528
2536.07188,0.00532
2534.01170,0.00526
2531.95153,0.00524
2529.89136,0.00505
2527.83119,0.00490
2525.77102,0.00499
2523.71084,0.00509
2521.65067,0.00519
2519.59050,0.00535
2517.53033,0.00531
2515.47015,0.00526
2513.40998,0.00542
2511.34981,0.00556
2509.28964,0.00564
2507.22947,0.00561
2505.16929,0.00538
2503.10912,0.00525
2501.04895,0.00532
2498.98878,0.00537
2496.92861,0.00523
2494.86843,0.00504
2492.80826,0.00510
2490.74809,0.00535
2488.68792,0.00562
2486.62775,0.00582
2484.56757,0.00583
2482.50740,0.00567
2480.44723,0.00553
2478.38706,0.00548
2476.32688,0.00540
2474.26671,0.00538
2472.20654,0.00552
2470.14637,0.00576
2468.08620,0.00587
2466.02602,0.00576
2463.96585,0.00573
2461.90568,0.00590
2459.84551,0.00597
2457.78534,0.00585
2455.72516,0.00579
2453.66499,0.00583
2451.60482,0.00584
2449.54465,0.00569
2447.48447,0.00549
2445.42430,0.00553
2443.36413,0.00579
2441.30396,0.00591
2439.24379,0.00563
2437.18361,0.00520
2435.12344,0.00521
2433.06327,0.00568
2431.00310,0.00601
2428.94293,0.00590
2426.88275,0.00571
2424.82258,0.00560
2422.76241,0.00552
2420.70224,0.00545
2418.64207,0.00548
2416.58189,0.00568
2414.52172,0.00573
2412.46155,0.00550
2410.40138,0.00531
2408.34120,0.00538
2406.28103,0.00566
2404.22086,0.00575
2402.16069,0.00557
2400.10052,0.00534
2398.04034,0.00527
2395.98017,0.00549
2393.92000,0.00595
2391.85983,0.00635
2389.79966,0.00630
2387.73948,0.00593
2385.67931,0.00582
2383.61914,0.00604
2381.55897,0.00608
2379.49880,0.00577
2377.43862,0.00545
2375.37845,0.00540
2373.31828,0.00553
2371.25811,0.00565
2369.19793,0.00558
2367.13776,0.00548
2365.07759,0.00548
2363.01742,0.00534
2360.95725,0.00570
2358.89707,0.00679
2356.83690,0.00709
2354.77673,0.00616
2352.71656,0.00537
2350.65639,0.00517
2348.59621,0.00509
2346.53604,0.00508
2344.47587,0.00514
2342.41570,0.00500
2340.35552,0.00460
2338.29535,0.00425
2336.23518,0.00432
2334.17501,0.00477
2332.11484,0.00538
2330.05466,0.00607
2327.99449,0.00669
2325.93432,0.00695
2323.87415,0.00677
2321.81398,0.00651
2319.75380,0.00664
2317.69363,0.00715
2315.63346,0.00748
2313.57329,0.00728
2311.51312,0.00687
2309.45294,0.00666
2307.39277,0.00672
2305.33260,0.00680
2303.27243,0.00672
2301.21225,0.00661
2299.15208,0.00654
2297.09191,0.00630
2295.03174,0.00601
2292.97157,0.00604
2290.91139,0.00614
2288.85122,0.00591
2286.79105,0.00564
2284.73088,0.00566
2282.67071,0.00583
2280.61053,0.00580
2278.55036,0.00554
2276.49019,0.00549
2274.43002,0.00563
2272.36984,0.00555
2270.30967,0.00543
2268.24950,0.00542
2266.18933,0.00527
2264.12916,0.00523
2262.06898,0.00552
2260.00881,0.00573
2257.94864,0.00566
2255.88847,0.00558
2253.82830,0.00562
2251.76812,0.00540
2249.70795,0.00492
2247.64778,0.00472
2245.58761,0.00474
2243.52744,0.00437
2241.46726,0.00422
2239.40709,0.00467
2237.34692,0.00481
2235.28675,0.00456
2233.22657,0.00412
2231.16640,0.00361
2229.10623,0.00387
2227.04606,0.00459
2224.98589,0.00504
2222.92571,0.00545
2220.86554,0.00557
2218.80537,0.00529
2216.74520,0.00513
2214.68503,0.00484
2212.62485,0.00453
2210.56468,0.00464
2208.50451,0.00478
2206.44434,0.00492
2204.38417,0.00491
2202.32399,0.00459
2200.26382,0.00442
2198.20365,0.00412
2196.14348,0.00351
2194.08330,0.00366
2192.02313,0.00469
2189.96296,0.00512
2187.90279,0.00454
2185.84262,0.00401
2183.78244,0.00377
2181.72227,0.00335
2179.66210,0.00300
2177.60193,0.00273
2175.54176,0.00250
2173.48158,0.00267
2171.42141,0.00269
2169.36124,0.00225
2167.30107,0.00193
2165.24089,0.00199
2163.18072,0.00212
2161.12055,0.00171
2159.06038,0.00119
2157.00021,0.00194
2154.94003,0.00304
2152.87986,0.00323
2150.81969,0.00318
2148.75952,0.00346
2146.69935,0.00347
2144.63917,0.00305
2142.57900,0.00280
2140.51883,0.00271
2138.45866,0.00228
2136.39849,0.00189
2134.33831,0.00252
2132.27814,0.00353
2130.21797,0.00381
2128.15780,0.00352
2126.09762,0.00317
2124.03745,0.00302
2121.97728,0.00307
2119.91711,0.00318
2117.85694,0.00311
2115.79676,0.00292
2113.73659,0.00305
2111.67642,0.00351
2109.61625,0.00359
2107.55608,0.00338
2105.49590,0.00369
2103.43573,0.00419
2101.37556,0.00425
2099.31539,0.00392
2097.25521,0.00364
2095.19504,0.00338
2093.13487,0.00322
2091.07470,0.00332
2089.01453,0.00345
2086.95435,0.00354
2084.89418,0.00358
2082.83401,0.00327
2080.77384,0.00269
2078.71367,0.00225
2076.65349,0.00208
2074.59332,0.00219
2072.53315,0.00256
2070.47298,0.00310
2068.41281,0.00374
2066.35263,0.00418
2064.29246,0.00390
2062.23229,0.00322
2060.17212,0.00315
2058.11194,0.00394
2056.05177,0.00478
2053.99160,0.00524
2051.93143,0.00525
2049.87126,0.00432
2047.81108,0.00313
2045.75091,0.00256
2043.69074,0.00218
2041.63057,0.00168
2039.57040,0.00122
2037.51022,0.00091
2035.45005,0.00096
2033.38988,0.00170
2031.32971,0.00255
2029.26954,0.00285
2027.20936,0.00285
2025.14919,0.00297
2023.08902,0.00323
2021.02885,0.00338
2018.96867,0.00327
2016.90850,0.00288
2014.84833,0.00230
2012.78816,0.00161
2010.72799,0.00087
2008.66781,0.00013
2006.60764,0.00000
2004.54747,0.00070
2002.48730,0.00120
2000.42713,0.00152
1998.36695,0.00251
1996.30678,0.00326
1994.24661,0.00298
1992.18644,0.00275
1990.12626,0.00334
1988.06609,0.00385
1986.00592,0.00354
1983.94575,0.00298
1981.88558,0.00291
1979.82540,0.00300
1977.76523,0.00287
1975.70506,0.00302
1973.64489,0.00348
1971.58472,0.00332
1969.52454,0.00229
1967.46437,0.00122
1965.40420,0.00080
1963.34403,0.00074
1961.28386,0.00050
1959.22368,0.00043
1957.16351,0.00097
1955.10334,0.00177
1953.04317,0.00249
1950.98299,0.00278
1948.92282,0.00243
1946.86265,0.00205
1944.80248,0.00185
1942.74231,0.00155
1940.68213,0.00118
1938.62196,0.00083
1936.56179,0.00064
1934.50162,0.00091
1932.44145,0.00162
1930.38127,0.00227
1928.32110,0.00229
1926.26093,0.00167
1924.20076,0.00118
1922.14059,0.00155
1920.08041,0.00232
1918.02024,0.00242
1915.96007,0.00182
1913.89990,0.00158
1911.83972,0.00195
1909.77955,0.00214
1907.71938,0.00192
1905.65921,0.00171
1903.59904,0.00173
1901.53886,0.00183
1899.47869,0.00184
1897.41852,0.00169
1895.35835,0.00151
1893.29818,0.00144
1891.23800,0.00151
1889.17783,0.00170
1887.11766,0.00178
1885.05749,0.00159
1882.99731,0.00151
1880.93714,0.00175
1878.87697,0.00199
1876.81680,0.00197
1874.75663,0.00197
1872.69645,0.00222
1870.63628,0.00250
1868.57611,0.00256
1866.51594,0.00243
1864.45577,0.00225
1862.39559,0.00211
1860.33542,0.00206
1858.27525,0.00220
1856.21508,0.00250
1854.15491,0.00264
1852.09473,0.00251
1850.03456,0.00239
1847.97439,0.00233
1845.91422,0.00233
1843.85404,0.00240
1841.79387,0.00245
1839.73370,0.00237
1837.67353,0.00226
1835.61336,0.00215
1833.55318,0.00200
1831.49301,0.00189
1829.43284,0.00198
1827.37267,0.00213
1825.31250,0.00216
1823.25232,0.00212
1821.19215,0.00196
1819.13198,0.00171
1817.07181,0.00169
1815.01163,0.00193
1812.95146,0.00209
1810.89129,0.00213
1808.83112,0.00221
1806.77095,0.00226
1804.71077,0.00214
1802.65060,0.00201
1800.59043,0.00202
1798.53026,0.00216
1796.47009,0.00236
1794.40991,0.00243
1792.34974,0.00234
1790.28957,0.00226
1788.22940,0.00231
1786.16923,0.00241
1784.10905,0.00243
1782.04888,0.00238
1779.98871,0.00245
1777.92854,0.00261
1775.86836,0.00265
1773.80819,0.00264
1771.74802,0.00278
1769.68785,0.00299
1767.62768,0.00309
1765.56750,0.00316
1763.50733,0.00335
1761.44716,0.00362
1759.38699,0.00384
1757.32682,0.00397
1755.26664,0.00406
1753.20647,0.00402
1751.14630,0.00386
1749.08613,0.00390
1747.02596,0.00430
1744.96578,0.00470
1742.90561,0.00480
1740.84544,0.00471
1738.78527,0.00461
1736.72509,0.00449
1734.66492,0.00446
1732.60475,0.00477
1730.54458,0.00516
1728.48441,0.00538
1726.42423,0.00542
1724.36406,0.00541
1722.30389,0.00544
1720.24372,0.00536
1718.18355,0.00522
1716.12337,0.00539
1714.06320,0.00570
1712.00303,0.00598
1709.94286,0.00610
1707.88268,0.00602
1705.82251,0.00603
1703.76234,0.00627
1701.70217,0.00645
1699.64200,0.00659
1697.58182,0.00715
1695.52165,0.00815
1693.46148,0.00895
1691.40131,0.00928
1689.34114,0.00947
1687.28096,0.00958
1685.22079,0.00972
1683.16062,0.01052
1681.10045,0.01152
1679.04028,0.01206
1676.98010,0.01230
1674.91993,0.01261
1672.85976,0.01298
1670.79959,0.01334
1668.73941,0.01403
1666.67924,0.01493
1664.61907,0.01562
1662.55890,0.01609
1660.49873,0.01649
1658.43855,0.01680
1656.37838,0.01689
1654.31821,0.01673
1652.25804,0.01677
1650.19787,0.01706
1648.13769,0.01730
1646.07752,0.01753
1644.01735,0.01779
1641.95718,0.01781
1639.89701,0.01740
1637.83683,0.01667
1635.77666,0.01624
1633.71649,0.01647
1631.65632,0.01669
1629.59614,0.01651
1627.53597,0.01614
1625.47580,0.01576
1623.41563,0.01542
1621.35546,0.01523
1619.29528,0.01496
1617.23511,0.01444
1615.17494,0.01409
1613.11477,0.01402
1611.05460,0.01383
1608.99442,0.01345
1606.93425,0.01314
1604.87408,0.01297
1602.81391,0.01286
1600.75373,0.01277
1598.69356,0.01261
1596.63339,0.01235
1594.57322,0.01208
1592.51305,0.01191
1590.45287,0.01178
1588.39270,0.01156
1586.33253,0.01125
1584.27236,0.01092
1582.21219,0.01064
1580.15201,0.01037
1578.09184,0.01004
1576.03167,0.00984
1573.97150,0.00985
1571.91133,0.00977
1569.85115,0.00959
1567.79098,0.00953
1565.73081,0.00953
1563.67064,0.00944
1561.61046,0.00920
1559.55029,0.00883
1557.49012,0.00867
1555.42995,0.00884
1553.36978,0.00923
1551.30960,0.00947
1549.24943,0.00942
1547.18926,0.00921
1545.12909,0.00885
1543.06892,0.00828
1541.00874,0.00771
1538.94857,0.00774
1536.88840,0.00813
1534.82823,0.00824
1532.76805,0.00790
1530.70788,0.00749
1528.64771,0.00724
1526.58754,0.00717
1524.52737,0.00706
1522.46719,0.00677
1520.40702,0.00656
1518.34685,0.00654
1516.28668,0.00668
1514.22651,0.00684
1512.16633,0.00673
1510.10616,0.00617
1508.04599,0.00535
1505.98582,0.00500
1503.92565,0.00526
1501.86547,0.00542
1499.80530,0.00509
1497.74513,0.00458
1495.68496,0.00440
1493.62478,0.00442
1491.56461,0.00434
1489.50444,0.00414
1487.44427,0.00403
1485.38410,0.00404
1483.32392,0.00408
1481.26375,0.00409
1479.20358,0.00406
1477.14341,0.00394
1475.08324,0.00380
1473.02306,0.00388
1470.96289,0.00420
1468.90272,0.00445
1466.84255,0.00448
1464.78238,0.00452
1462.72220,0.00471
1460.66203,0.00473
1458.60186,0.00461
1456.54169,0.00477
1454.48151,0.00493
1452.42134,0.00486
1450.36117,0.00472
1448.30100,0.00471
1446.24083,0.00479
1444.18065,0.00477
1442.12048,0.00461
1440.06031,0.00446
1438.00014,0.00451
1435.93997,0.00475
1433.87979,0.00489
1431.81962,0.00491
1429.75945,0.00498
1427.69928,0.00512
1425.63910,0.00525
1423.57893,0.00535
1421.51876,0.00540
1419.45859,0.00550
1417.39842,0.00582
1415.33824,0.00609
1413.27807,0.00618
1411.21790,0.00618
1409.15773,0.00614
1407.09756,0.00605
1405.03738,0.00595
1402.97721,0.00584
1400.91704,0.00565
1398.85687,0.00550
1396.79670,0.00541
1394.73652,0.00521
1392.67635,0.00497
1390.61618,0.00484
1388.55601,0.00477
1386.49583,0.00472
1384.43566,0.00470
1382.37549,0.00463
1380.31532,0.00447
1378.25515,0.00426
1376.19497,0.00411
1374.13480,0.00409
1372.07463,0.00410
1370.01446,0.00403
1367.95429,0.00401
1365.89411,0.00402
1363.83394,0.00385
1361.77377,0.00361
1359.71360,0.00352
1357.65343,0.00353
1355.59325,0.00350
1353.53308,0.00339
1351.47291,0.00326
1349.41274,0.00315
1347.35256,0.00307
1345.29239,0.00293
1343.23222,0.00277
1341.17205,0.00268
1339.11188,0.00273
1337.05170,0.00276
1334.99153,0.00270
1332.93136,0.00264
1330.87119,0.00265
1328.81102,0.00268
1326.75084,0.00266
1324.69067,0.00264
1322.63050,0.00265
1320.57033,0.00263
1318.51015,0.00261
1316.44998,0.00266
1314.38981,0.00269
1312.32964,0.00261
1310.26947,0.00257
1308.20929,0.00263
1306.14912,0.00263
1304.08895,0.00258
1302.02878,0.00257
1299.96861,0.00258
1297.90843,0.00255
1295.84826,0.00251
1293.78809,0.00249
1291.72792,0.00255
1289.66775,0.00263
1287.60757,0.00264
1285.54740,0.00261
1283.48723,0.00258
1281.42706,0.00257
1279.36688,0.00257
1277.30671,0.00268
1275.24654,0.00286
1273.18637,0.00295
1271.12620,0.00294
1269.06602,0.00291
1267.00585,0.00286
1264.94568,0.00289
1262.88551,0.00302
1260.82534,0.00319
1258.76516,0.00328
1256.70499,0.00327
1254.64482,0.00320
1252.58465,0.00310
1250.52447,0.00309
1248.46430,0.00324
1246.40413,0.00334
1244.34396,0.00322
1242.28379,0.00299
1240.22361,0.00283
1238.16344,0.00276
1236.10327,0.00275
1234.04310,0.00274
1231.98293,0.00266
1229.92275,0.00255
1227.86258,0.00243
1225.80241,0.00221
1223.74224,0.00190
1221.68207,0.00165
1219.62189,0.00153
1217.56172,0.00151
1215.50155,0.00145
1213.44138,0.00121
1211.38120,0.00081
1209.32103,0.00053
1207.26086,0.00049
1205.20069,0.00052
1203.14052,0.00042
1201.08034,0.00023
1199.02017,0.00011
1196.96000,0.00007
1194.89983,0.00006
1192.83966,0.00004
1190.77948,0.00000
1188.71931,-0.00001
1186.65914,0.00011
1184.59897,0.00018
1182.53880,0.00016
1180.47862,0.00029
1178.41845,0.00053
1176.35828,0.00074
1174.29811,0.00091
1172.23793,0.00104
1170.17776,0.00118
1168.11759,0.00141
1166.05742,0.00168
1163.99725,0.00195
1161.93707,0.00220
1159.87690,0.00240
1157.81673,0.00272
1155.75656,0.00322
1153.69639,0.00368
1151.63621,0.00404
1149.57604,0.00443
1147.51587,0.00486
1145.45570,0.00524
1143.39552,0.00559
1141.33535,0.00607
1139.27518,0.00667
1137.21501,0.00727
1135.15484,0.00778
1133.09466,0.00824
1131.03449,0.00883
1128.97432,0.00961
1126.91415,0.01057
1124.85398,0.01149
1122.79380,0.01223
1120.73363,0.01300
1118.67346,0.01388
1116.61329,0.01488
1114.55312,0.01592
1112.49294,0.01694
1110.43277,0.01797
1108.37260,0.01893
1106.31243,0.01977
1104.25225,0.02063
1102.19208,0.02157
1100.13191,0.02237
1098.07174,0.02293
1096.01157,0.02345
1093.95139,0.02423
1091.89122,0.02515
1089.83105,0.02578
1087.77088,0.02610
1085.71071,0.02652
1083.65053,0.02725
1081.59036,0.02801
1079.53019,0.02850
1077.47002,0.02881
1075.40985,0.02917
1073.34967,0.02959
1071.28950,0.02985
1069.22933,0.02991
1067.16916,0.02987
1065.10898,0.02983
1063.04881,0.02977
1060.98864,0.02957
1058.92847,0.02921
1056.86830,0.02866
1054.80812,0.02794
1052.74795,0.02725
1050.68778,0.02660
1048.62761,0.02591
1046.56744,0.02511
1044.50726,0.02419
1042.44709,0.02317
1040.38692,0.02217
1038.32675,0.02116
1036.26657,0.02014
1034.20640,0.01923
1032.14623,0.01825
1030.08606,0.01712
1028.02589,0.01605
1025.96571,0.01517
1023.90554,0.01450
1021.84537,0.01397
1019.78520,0.01352
1017.72503,0.01316
1015.66485,0.01274
1013.60468,0.01224
1011.54451,0.01191
1009.48434,0.01184
1007.42417,0.01193
1005.36399,0.01204
1003.30382,0.01230
1001.24365,0.01287
999.18348,0.01360
997.12330,0.01433
995.06313,0.01511
993.00296,0.01583
990.94279,0.01632
988.88262,0.01664
986.82244,0.01686
984.76227,0.01690
982.70210,0.01688
980.64193,0.01699
978.58176,0.01698
976.52158,0.01661
974.46141,0.01603
972.40124,0.01542
970.34107,0.01466
968.28089,0.01379
966.22072,0.01297
964.16055,0.01200
962.10038,0.01092
960.04021,0.01002
957.98003,0.00933
955.91986,0.00860
953.85969,0.00780
951.79952,0.00709
949.73935,0.00644
947.67917,0.00566
945.61900,0.00484
943.55883,0.00427
941.49866,0.00396
939.43849,0.00368
937.37831,0.00333
935.31814,0.00296
933.25797,0.00261
931.19780,0.00228
929.13762,0.00189
927.07745,0.00147
925.01728,0.00124
922.95711,0.00109
920.89694,0.00085
918.83676,0.00057
916.77659,0.00036
914.71642,0.00037
912.65625,0.00037
910.59608,0.00018
908.53590,0.00000
906.47573,0.00008
904.41556,0.00036
902.35539,0.00065
900.29522,0.00085
898.23504,0.00071
896.17487,0.00051
894.11470,0.00081
892.05453,0.00144
889.99435,0.00176
887.93418,0.00170
885.87401,0.00177
883.81384,0.00201
881.75367,0.00210
879.69349,0.00235
877.63332,0.00294
875.57315,0.00340
873.51298,0.00365
871.45281,0.00401
869.39263,0.00436
867.33246,0.00465
865.27229,0.00489
863.21212,0.00486
861.15194,0.00470
859.09177,0.00477
857.03160,0.00496
854.97143,0.00513
852.91126,0.00530
850.85108,0.00543
848.79091,0.00563
846.73074,0.00569
844.67057,0.00537
842.61040,0.00486
840.55022,0.00430
838.49005,0.00392
836.42988,0.00385
834.36971,0.00383
832.30954,0.00337
830.24936,0.00261
828.18919,0.00233
826.12902,0.00241
824.06885,0.00228
822.00867,0.00203
819.94850,0.00187
817.88833,0.00195
815.82816,0.00207
813.76799,0.00173
811.70781,0.00122
809.64764,0.00103
807.58747,0.00102
805.52730,0.00093
803.46713,0.00070
801.40695,0.00046
799.34678,0.00041
797.28661,0.00059
795.22644,0.00080
793.16627,0.00079
791.10609,0.00078
789.04592,0.00094
786.98575,0.00111
784.92558,0.00127
782.86540,0.00140
780.80523,0.00128
778.74506,0.00074
776.68489,0.00015
774.62472,0.00015
772.56454,0.00066
770.50437,0.00088
768.44420,0.00061
766.38403,0.00045
764.32386,0.00057
762.26368,0.00066
760.20351,0.00049
758.14334,0.00048
756.08317,0.00074
754.02299,0.00071
751.96282,0.00052
749.90265,0.00033
747.84248,0.00009
745.78231,0.00000
743.72213,0.00004
741.66196,0.00006
739.60179,0.00027
737.54162,0.00063
735.48145,0.00076
733.42127,0.00083
731.36110,0.00110
729.30093,0.00129
727.24076,0.00103
725.18059,0.00060
723.12041,0.00045
721.06024,0.00051
719.00007,0.00067
716.93990,0.00077
714.87972,0.00055
712.81955,0.00032
710.75938,0.00040
708.69921,0.00075
706.63904,0.00112
704.57886,0.00107
702.51869,0.00051
700.45852,0.00004
698.39835,0.00018
696.33818,0.00080
694.27800,0.00119
692.21783,0.00108
690.15766,0.00073
688.09749,0.00025
686.03731,0.00004
683.97714,0.00050
681.91697,0.00132
679.85680,0.00203
677.79663,0.00214
675.73645,0.00163
673.67628,0.00102
671.61611,0.00081
669.55594,0.00125
667.49577,0.00203
665.43559,0.00238
663.37542,0.00201
661.31525,0.00124
659.25508,0.00102
657.19491,0.00164
655.13473,0.00224
653.07456,0.00189
651.01439,0.00103
648.95422,0.00083
646.89404,0.00113
644.83387,0.00128
642.77370,0.00179
640.71353,0.00261
638.65336,0.00224
636.59318,0.00069
634.53301,0.00000
632.47284,0.00057
630.41267,0.00132
628.35250,0.00158
626.29232,0.00110
624.23215,0.00036
622.17198,0.00084
620.11181,0.00211
618.05164,0.00248
615.99146,0.00170
613.93129,0.00137
611.87112,0.00177
609.81095,0.00139
607.75077,0.00020
605.69060,-0.00042
603.63043,-0.00031
601.57026,-0.00016
599.51009,0.00000
