3996.73391,0.00052
3994.67373,0.00049
3992.61356,0.00058
3990.55339,0.00058
3988.49322,0.00042
3986.43305,0.00025
3984.37287,0.00014
3982.31270,0.00005
3980.25253,0.00000
3978.19236,0.00015
3976.13219,0.00056
3974.07201,0.00091
3972.01184,0.00088
3969.95167,0.00067
3967.89150,0.00068
3965.83133,0.00092
3963.77115,0.00110
3961.71098,0.00119
3959.65081,0.00123
3957.59064,0.00109
3955.53046,0.00081
3953.47029,0.00074
3951.41012,0.00104
3949.34995,0.00154
3947.28978,0.00182
3945.22960,0.00164
3943.16943,0.00138
3941.10926,0.00127
3939.04909,0.00108
3936.98892,0.00097
3934.92874,0.00119
3932.86857,0.00146
3930.80840,0.00128
3928.74823,0.00084
3926.68805,0.00080
3924.62788,0.00118
3922.56771,0.00142
3920.50754,0.00144
3918.44737,0.00159
3916.38719,0.00182
3914.32702,0.00173
3912.26685,0.00140
3910.20668,0.00127
3908.14651,0.00142
3906.08633,0.00153
3904.02616,0.00139
3901.96599,0.00124
3899.90582,0.00146
3897.84565,0.00182
3895.78547,0.00175
3893.72530,0.00145
3891.66513,0.00151
3889.60496,0.00179
3887.54478,0.00195
3885.48461,0.00219
3883.42444,0.00253
3881.36427,0.00269
3879.30410,0.00257
3877.24392,0.00230
3875.18375,0.00226
3873.12358,0.00242
3871.06341,0.00249
3869.00324,0.00241
3866.94306,0.00233
3864.88289,0.00244
3862.82272,0.00258
3860.76255,0.00246
3858.70237,0.00230
3856.64220,0.00252
3854.58203,0.00305
3852.52186,0.00334
3850.46169,0.00297
3848.40151,0.00238
3846.34134,0.00202
3844.28117,0.00204
3842.22100,0.00233
3840.16083,0.00265
3838.10065,0.00274
3836.04048,0.00248
3833.98031,0.00234
3831.92014,0.00248
3829.85997,0.00246
3827.79979,0.00230
3825.73962,0.00224
3823.67945,0.00227
3821.61928,0.00233
3819.55910,0.00232
3817.49893,0.00231
3815.43876,0.00246
3813.37859,0.00226
3811.31842,0.00163
3809.25824,0.00121
3807.19807,0.00151
3805.13790,0.00223
3803.07773,0.00273
3801.01756,0.00295
3798.95738,0.00305
3796.89721,0.00315
3794.83704,0.00306
3792.77687,0.00269
3790.71670,0.00231
3788.65652,0.00213
3786.59635,0.00229
3784.53618,0.00264
3782.47601,0.00269
3780.41583,0.00234
3778.35566,0.00207
3776.29549,0.00212
3774.23532,0.00227
3772.17515,0.00242
3770.11497,0.00264
3768.05480,0.00276
3765.99463,0.00270
3763.93446,0.00253
3761.87429,0.00230
3759.81411,0.00226
3757.75394,0.00264
3755.69377,0.00308
3753.63360,0.00358
3751.57342,0.00448
3749.51325,0.00531
3747.45308,0.00531
3745.39291,0.00495
3743.33274,0.00484
3741.27256,0.00489
3739.21239,0.00482
3737.15222,0.00488
3735.09205,0.00508
3733.03188,0.00488
3730.97170,0.00409
3728.91153,0.00365
3726.85136,0.00359
3724.79119,0.00346
3722.73102,0.00364
3720.67084,0.00373
3718.61067,0.00351
3716.55050,0.00285
3714.49033,0.00253
3712.43015,0.00326
3710.36998,0.00372
3708.30981,0.00370
3706.24964,0.00339
3704.18947,0.00319
3702.12929,0.00316
3700.06912,0.00302
3698.00895,0.00282
3695.94878,0.00262
3693.88861,0.00256
3691.82843,0.00245
3689.76826,0.00283
3687.70809,0.00344
3685.64792,0.00376
3683.58775,0.00348
3681.52757,0.00310
3679.46740,0.00301
3677.40723,0.00339
3675.34706,0.00401
3673.28688,0.00446
3671.22671,0.00466
3669.16654,0.00485
3667.10637,0.00493
3665.04620,0.00481
3662.98602,0.00462
3660.92585,0.00445
3658.86568,0.00436
3656.80551,0.00441
3654.74534,0.00462
3652.68516,0.00497
3650.62499,0.00570
3648.56482,0.00677
3646.50465,0.00713
3644.44447,0.00681
3642.38430,0.00641
3640.32413,0.00636
3638.26396,0.00671
3636.20379,0.00710
3634.14361,0.00736
3632.08344,0.00768
3630.02327,0.00837
3627.96310,0.00900
3625.90293,0.00915
3623.84275,0.00894
3621.78258,0.00920
3619.72241,0.00999
3617.66224,0.01035
3615.60207,0.01036
3613.54189,0.01044
3611.48172,0.01089
3609.42155,0.01130
3607.36138,0.01146
3605.30120,0.01154
3603.24103,0.01148
3601.18086,0.01157
3599.12069,0.01162
3597.06052,0.01188
3595.00034,0.01214
3592.94017,0.01253
3590.88000,0.01275
3588.81983,0.01311
3586.75966,0.01337
3584.69948,0.01340
3582.63931,0.01348
3580.57914,0.01365
3578.51897,0.01380
3576.45879,0.01392
3574.39862,0.01412
3572.33845,0.01441
3570.27828,0.01489
3568.21811,0.01571
3566.15793,0.01634
3564.09776,0.01630
3562.03759,0.01617
3559.97742,0.01624
3557.91725,0.01642
3555.85707,0.01679
3553.79690,0.01726
3551.73673,0.01757
3549.67656,0.01782
3547.61639,0.01827
3545.55621,0.01873
3543.49604,0.01878
3541.43587,0.01851
3539.37570,0.01830
3537.31552,0.01838
3535.25535,0.01877
3533.19518,0.01933
3531.13501,0.01991
3529.07484,0.02052
3527.01466,0.02107
3524.95449,0.02130
3522.89432,0.02114
3520.83415,0.02094
3518.77398,0.02113
3516.71380,0.02148
3514.65363,0.02158
3512.59346,0.02158
3510.53329,0.02180
3508.47312,0.02209
3506.41294,0.02227
3504.35277,0.02255
3502.29260,0.02304
3500.23243,0.02341
3498.17225,0.02367
3496.11208,0.02388
3494.05191,0.02391
3491.99174,0.02377
3489.93157,0.02369
3487.87139,0.02384
3485.81122,0.02422
3483.75105,0.02469
3481.69088,0.02500
3479.63071,0.02492
3477.57053,0.02478
3475.51036,0.02510
3473.45019,0.02577
3471.39002,0.02633
3469.32984,0.02647
3467.26967,0.02632
3465.20950,0.02625
3463.14933,0.02640
3461.08916,0.02672
3459.02898,0.02710
3456.96881,0.02733
3454.90864,0.02728
3452.84847,0.02724
3450.78830,0.02748
3448.72812,0.02792
3446.66795,0.02818
3444.60778,0.02823
3442.54761,0.02826
3440.48744,0.02839
3438.42726,0.02870
3436.36709,0.02909
3434.30692,0.02926
3432.24675,0.02912
3430.18657,0.02902
3428.12640,0.02922
3426.06623,0.02948
3424.00606,0.02965
3421.94589,0.02984
3419.88571,0.03007
3417.82554,0.03032
3415.76537,0.03053
3413.70520,0.03047
3411.64503,0.03021
3409.58485,0.03017
3407.52468,0.03059
3405.46451,0.03115
3403.40434,0.03132
3401.34416,0.03115
3399.28399,0.03121
3397.22382,0.03128
3395.16365,0.03149
3393.10348,0.03180
3391.04330,0.03182
3388.98313,0.03164
3386.92296,0.03150
3384.86279,0.03133
3382.80262,0.03120
3380.74244,0.03131
3378.68227,0.03154
3376.62210,0.03175
3374.56193,0.03203
3372.50176,0.03226
3370.44158,0.03243
3368.38141,0.03255
3366.32124,0.03249
3364.26107,0.03238
3362.20089,0.03241
3360.14072,0.03245
3358.08055,0.03236
3356.02038,0.03226
3353.96021,0.03225
3351.90003,0.03231
3349.83986,0.03248
3347.77969,0.03267
3345.71952,0.03271
3343.65935,0.03261
3341.59917,0.03257
3339.53900,0.03271
3337.47883,0.03287
3335.41866,0.03298
3333.35849,0.03314
3331.29831,0.03324
3329.23814,0.03327
3327.17797,0.03343
3325.11780,0.03359
3323.05762,0.03350
3320.99745,0.03331
3318.93728,0.03312
3316.87711,0.03297
3314.81694,0.03308
3312.75676,0.03345
3310.69659,0.03377
3308.63642,0.03373
3306.57625,0.03342
3304.51608,0.03320
3302.45590,0.03315
3300.39573,0.03315
3298.33556,0.03331
3296.27539,0.03359
3294.21521,0.03371
3292.15504,0.03357
3290.09487,0.03346
3288.03470,0.03365
3285.97453,0.03399
3283.91435,0.03416
3281.85418,0.03407
3279.79401,0.03389
3277.73384,0.03381
3275.67367,0.03390
3273.61349,0.03412
3271.55332,0.03427
3269.49315,0.03405
3267.43298,0.03374
3265.37281,0.03387
3263.31263,0.03422
3261.25246,0.03429
3259.19229,0.03421
3257.13212,0.03420
3255.07194,0.03419
3253.01177,0.03404
3250.95160,0.03382
3248.89143,0.03367
3246.83126,0.03355
3244.77108,0.03343
3242.71091,0.03336
3240.65074,0.03334
3238.59057,0.03344
3236.53040,0.03363
3234.47022,0.03364
3232.41005,0.03348
3230.34988,0.03345
3228.28971,0.03365
3226.22954,0.03383
3224.16936,0.03374
3222.10919,0.03356
3220.04902,0.03351
3217.98885,0.03351
3215.92867,0.03344
3213.86850,0.03330
3211.80833,0.03313
3209.74816,0.03309
3207.68799,0.03317
3205.62781,0.03321
3203.56764,0.03318
3201.50747,0.03310
3199.44730,0.03291
3197.38713,0.03280
3195.32695,0.03288
3193.26678,0.03292
3191.20661,0.03284
3189.14644,0.03283
3187.08626,0.03294
3185.02609,0.03293
3182.96592,0.03271
3180.90575,0.03250
3178.84558,0.03246
3176.78540,0.03261
3174.72523,0.03266
3172.66506,0.03231
3170.60489,0.03187
3168.54472,0.03175
3166.48454,0.03177
3164.42437,0.03181
3162.36420,0.03195
3160.30403,0.03195
3158.24386,0.03164
3156.18368,0.03143
3154.12351,0.03156
3152.06334,0.03171
3150.00317,0.03169
3147.94299,0.03151
3145.88282,0.03128
3143.82265,0.03116
3141.76248,0.03118
3139.70231,0.03114
3137.64213,0.03094
3135.58196,0.03065
3133.52179,0.03047
3131.46162,0.03042
3129.40145,0.03039
3127.34127,0.03039
3125.28110,0.03042
3123.22093,0.03038
3121.16076,0.03026
3119.10058,0.03015
3117.04041,0.03011
3114.98024,0.03008
3112.92007,0.02997
3110.85990,0.02981
3108.79972,0.02970
3106.73955,0.02971
3104.67938,0.02976
3102.61921,0.02968
3100.55904,0.02951
3098.49886,0.02928
3096.43869,0.02909
3094.37852,0.02908
3092.31835,0.02910
3090.25818,0.02895
3088.19800,0.02876
3086.13783,0.02880
3084.07766,0.02897
3082.01749,0.02898
3079.95731,0.02875
3077.89714,0.02843
3075.83697,0.02817
3073.77680,0.02809
3071.71663,0.02807
3069.65645,0.02786
3067.59628,0.02755
3065.53611,0.02751
3063.47594,0.02759
3061.41577,0.02751
3059.35559,0.02746
3057.29542,0.02747
3055.23525,0.02734
3053.17508,0.02719
3051.11491,0.02724
3049.05473,0.02720
3046.99456,0.02683
3044.93439,0.02650
3042.87422,0.02651
3040.81404,0.02656
3038.75387,0.02634
3036.69370,0.02599
3034.63353,0.02579
3032.57336,0.02584
3030.51318,0.02599
3028.45301,0.02599
3026.39284,0.02580
3024.33267,0.02551
3022.27250,0.02526
3020.21232,0.02517
3018.15215,0.02519
3016.09198,0.02507
3014.03181,0.02479
3011.97163,0.02465
3009.91146,0.02469
3007.85129,0.02461
3005.79112,0.02439
3003.73095,0.02423
3001.67077,0.02418
2999.61060,0.02413
2997.55043,0.02408
2995.49026,0.02398
2993.43009,0.02386
2991.36991,0.02386
2989.30974,0.02400
2987.24957,0.02399
2985.18940,0.02372
2983.12923,0.02358
2981.06905,0.02368
2979.00888,0.02367
2976.94871,0.02351
2974.88854,0.02340
2972.82836,0.02335
2970.76819,0.02327
2968.70802,0.02321
2966.64785,0.02317
2964.58768,0.02320
2962.52750,0.02333
2960.46733,0.02339
2958.40716,0.02328
2956.34699,0.02307
2954.28682,0.02288
2952.22664,0.02277
2950.16647,0.02284
2948.10630,0.02305
2946.04613,0.02306
2943.98596,0.02292
2941.92578,0.02281
2939.86561,0.02277
2937.80544,0.02278
2935.74527,0.02278
2933.68509,0.02265
2931.62492,0.02244
2929.56475,0.02231
2927.50458,0.02232
2925.44441,0.02232
2923.38423,0.02229
2921.32406,0.02228
2919.26389,0.02217
2917.20372,0.02199
2915.14355,0.02191
2913.08337,0.02183
2911.02320,0.02158
2908.96303,0.02134
2906.90286,0.02128
2904.84268,0.02130
2902.78251,0.02115
2900.72234,0.02086
2898.66217,0.02070
2896.60200,0.02069
2894.54182,0.02068
2892.48165,0.02058
2890.42148,0.02047
2888.36131,0.02039
2886.30114,0.02031
2884.24096,0.02029
2882.18079,0.02022
2880.12062,0.02006
2878.06045,0.02000
2876.00028,0.02001
2873.94010,0.02000
2871.87993,0.02002
2869.81976,0.02007
2867.75959,0.01998
2865.69941,0.01977
2863.63924,0.01967
2861.57907,0.01961
2859.51890,0.01933
2857.45873,0.01888
2855.39855,0.01859
2853.33838,0.01857
2851.27821,0.01870
2849.21804,0.01871
2847.15787,0.01859
2845.09769,0.01846
2843.03752,0.01830
2840.97735,0.01814
2838.91718,0.01804
2836.85700,0.01799
2834.79683,0.01799
2832.73666,0.01794
2830.67649,0.01782
2828.61632,0.01762
2826.55614,0.01741
2824.49597,0.01733
2822.43580,0.01732
2820.37563,0.01728
2818.31546,0.01713
2816.25528,0.01700
2814.19511,0.01702
2812.13494,0.01703
2810.07477,0.01696
2808.01460,0.01687
2805.95442,0.01679
2803.89425,0.01668
2801.83408,0.01647
2799.77391,0.01624
2797.71373,0.01621
2795.65356,0.01639
2793.59339,0.01654
2791.53322,0.01658
2789.47305,0.01652
2787.41287,0.01634
2785.35270,0.01613
2783.29253,0.01597
2781.23236,0.01582
2779.17219,0.01581
2777.11201,0.01591
2775.05184,0.01584
2772.99167,0.01561
2770.93150,0.01552
2768.87133,0.01551
2766.81115,0.01538
2764.75098,0.01534
2762.69081,0.01545
2760.63064,0.01544
2758.57046,0.01531
2756.51029,0.01528
2754.45012,0.01533
2752.38995,0.01523
2750.32978,0.01504
2748.26960,0.01502
2746.20943,0.01507
2744.14926,0.01496
2742.08909,0.01476
2740.02892,0.01467
2737.96874,0.01468
2735.90857,0.01469
2733.84840,0.01470
2731.78823,0.01471
2729.72805,0.01464
2727.66788,0.01458
2725.60771,0.01453
2723.54754,0.01439
2721.48737,0.01426
2719.42719,0.01429
2717.36702,0.01431
2715.30685,0.01420
2713.24668,0.01420
2711.18651,0.01431
2709.12633,0.01427
2707.06616,0.01411
2705.00599,0.01399
2702.94582,0.01402
2700.88565,0.01409
2698.82547,0.01403
2696.76530,0.01392
2694.70513,0.01387
2692.64496,0.01379
2690.58478,0.01360
2688.52461,0.01345
2686.46444,0.01351
2684.40427,0.01364
2682.34410,0.01358
2680.28392,0.01345
2678.22375,0.01342
2676.16358,0.01344
2674.10341,0.01337
2672.04324,0.01319
2669.98306,0.01305
2667.92289,0.01308
2665.86272,0.01319
2663.80255,0.01331
2661.74238,0.01335
2659.68220,0.01321
2657.62203,0.01300
2655.56186,0.01280
2653.50169,0.01261
2651.44151,0.01257
2649.38134,0.01269
2647.32117,0.01280
2645.26100,0.01268
2643.20083,0.01247
2641.14065,0.01242
2639.08048,0.01256
2637.02031,0.01273
2634.96014,0.01276
2632.89997,0.01256
2630.83979,0.01235
2628.77962,0.01226
2626.71945,0.01228
2624.65928,0.01227
2622.59910,0.01213
2620.53893,0.01203
2618.47876,0.01215
2616.41859,0.01231
2614.35842,0.01233
2612.29824,0.01223
2610.23807,0.01201
2608.17790,0.01189
2606.11773,0.01187
2604.05756,0.01180
2601.99738,0.01170
2599.93721,0.01155
2597.87704,0.01141
2595.81687,0.01142
2593.75670,0.01155
2591.69652,0.01174
2589.63635,0.01189
2587.57618,0.01183
2585.51601,0.01161
2583.45583,0.01138
2581.39566,0.01125
2579.33549,0.01123
2577.27532,0.01122
2575.21515,0.01125
2573.15497,0.01125
2571.09480,0.01105
2569.03463,0.01090
2566.97446,0.01108
2564.91429,0.01131
2562.85411,0.01127
2560.79394,0.01118
2558.73377,0.01121
2556.67360,0.01118
2554.61342,0.01124
2552.55325,0.01160
2550.49308,0.01188
2548.43291,0.01173
2546.37274,0.01157
2544.31256,0.01164
2542.25239,0.01151
2540.19222,0.01122
2538.13205,0.01119
2536.07188,0.01125
2534.01170,0.01120
2531.95153,0.01116
2529.89136,0.01117
2527.83119,0.01126
2525.77102,0.01141
2523.71084,0.01131
2521.65067,0.01104
2519.59050,0.01102
2517.53033,0.01114
2515.47015,0.01147
2513.40998,0.01187
2511.34981,0.01185
2509.28964,0.01174
2507.22947,0.01188
2505.16929,0.01181
2503.10912,0.01149
2501.04895,0.01139
2498.98878,0.01152
2496.92861,0.01157
2494.86843,0.01154
2492.80826,0.01161
2490.74809,0.01185
2488.68792,0.01210
2486.62775,0.01218
2484.56757,0.01206
2482.50740,0.01184
2480.44723,0.01180
2478.38706,0.01193
2476.32688,0.01195
2474.26671,0.01188
2472.20654,0.01181
2470.14637,0.01186
2468.08620,0.01198
2466.02602,0.01200
2463.96585,0.01197
2461.90568,0.01211
2459.84551,0.01225
2457.78534,0.01222
2455.72516,0.01230
2453.66499,0.01249
2451.60482,0.01232
2449.54465,0.01190
2447.48447,0.01175
2445.42430,0.01190
2443.36413,0.01217
2441.30396,0.01238
2439.24379,0.01221
2437.18361,0.01176
2435.12344,0.01158
2433.06327,0.01167
2431.00310,0.01187
2428.94293,0.01215
2426.88275,0.01226
2424.82258,0.01209
2422.76241,0.01200
2420.70224,0.01209
2418.64207,0.01228
2416.58189,0.01249
2414.52172,0.01232
2412.46155,0.01188
2410.40138,0.01183
2408.34120,0.01211
2406.28103,0.01235
2404.22086,0.01245
2402.16069,0.01236
2400.10052,0.01209
2398.04034,0.01203
2395.98017,0.01226
2393.92000,0.01253
2391.85983,0.01253
2389.79966,0.01228
2387.73948,0.01189
2385.67931,0.01143
2383.61914,0.01133
2381.55897,0.01168
2379.49880,0.01183
2377.43862,0.01170
2375.37845,0.01294
2373.31828,0.01292
2371.25811,0.01240
2369.19793,0.01324
2367.13776,0.01328
2365.07759,0.01115
2363.01742,0.01286
2360.95725,0.01078
2358.89707,0.01319
2356.83690,0.01539
2354.77673,0.01715
2352.71656,0.01597
2350.65639,0.00655
2348.59621,0.00000
2346.53604,0.01481
2344.47587,0.01696
2342.41570,0.01297
2340.35552,0.01004
2338.29535,0.00921
2336.23518,0.00983
2334.17501,0.01046
2332.11484,0.01182
2330.05466,0.01191
2327.99449,0.01389
2325.93432,0.01209
2323.87415,0.01381
2321.81398,0.01373
2319.75380,0.01522
2317.69363,0.01312
2315.63346,0.01272
2313.57329,0.01392
2311.51312,0.01382
2309.45294,0.01354
2307.39277,0.01331
2305.33260,0.01297
2303.27243,0.01246
2301.21225,0.01287
2299.15208,0.01279
2297.09191,0.01250
2295.03174,0.01259
2292.97157,0.01248
2290.91139,0.01239
2288.85122,0.01232
2286.79105,0.01215
2284.73088,0.01216
2282.67071,0.01239
2280.61053,0.01239
2278.55036,0.01212
2276.49019,0.01190
2274.43002,0.01153
2272.36984,0.01115
2270.30967,0.01085
2268.24950,0.01085
2266.18933,0.01108
2264.12916,0.01133
2262.06898,0.01140
2260.00881,0.01133
2257.94864,0.01088
2255.88847,0.01075
2253.82830,0.01111
2251.76812,0.01147
2249.70795,0.01135
2247.64778,0.01078
2245.58761,0.01037
2243.52744,0.01011
2241.46726,0.01012
2239.40709,0.01037
2237.34692,0.01031
2235.28675,0.00987
2233.22657,0.00937
2231.16640,0.00914
2229.10623,0.00957
2227.04606,0.01022
2224.98589,0.01062
2222.92571,0.01103
2220.86554,0.01109
2218.80537,0.01061
2216.74520,0.01047
2214.68503,0.01075
2212.62485,0.01102
2210.56468,0.01087
2208.50451,0.01002
2206.44434,0.00967
2204.38417,0.01013
2202.32399,0.01030
2200.26382,0.01026
2198.20365,0.01016
2196.14348,0.00964
2194.08330,0.00929
2192.02313,0.00926
2189.96296,0.00914
2187.90279,0.00912
2185.84262,0.00934
2183.78244,0.00954
2181.72227,0.00918
2179.66210,0.00849
2177.60193,0.00798
2175.54176,0.00808
2173.48158,0.00913
2171.42141,0.01002
2169.36124,0.00975
2167.30107,0.00896
2165.24089,0.00885
2163.18072,0.00960
2161.12055,0.00925
2159.06038,0.00721
2157.00021,0.00657
2154.94003,0.00812
2152.87986,0.00939
2150.81969,0.00940
2148.75952,0.00886
2146.69935,0.00829
2144.63917,0.00805
2142.57900,0.00809
2140.51883,0.00825
2138.45866,0.00805
2136.39849,0.00758
2134.33831,0.00778
2132.27814,0.00805
2130.21797,0.00801
2128.15780,0.00851
2126.09762,0.00913
2124.03745,0.00887
2121.97728,0.00825
2119.91711,0.00836
2117.85694,0.00902
2115.79676,0.00906
2113.73659,0.00843
2111.67642,0.00831
2109.61625,0.00857
2107.55608,0.00853
2105.49590,0.00852
2103.43573,0.00867
2101.37556,0.00865
2099.31539,0.00839
2097.25521,0.00843
2095.19504,0.00894
2093.13487,0.00931
2091.07470,0.00917
2089.01453,0.00915
2086.95435,0.00943
2084.89418,0.00932
2082.83401,0.00867
2080.77384,0.00788
2078.71367,0.00721
2076.65349,0.00706
2074.59332,0.00764
2072.53315,0.00825
2070.47298,0.00846
2068.41281,0.00853
2066.35263,0.00851
2064.29246,0.00834
2062.23229,0.00823
2060.17212,0.00829
2058.11194,0.00848
2056.05177,0.00870
2053.99160,0.00915
2051.93143,0.00992
2049.87126,0.00998
2047.81108,0.00884
2045.75091,0.00764
2043.69074,0.00726
2041.63057,0.00731
2039.57040,0.00689
2037.51022,0.00610
2035.45005,0.00606
2033.38988,0.00671
2031.32971,0.00689
2029.26954,0.00684
2027.20936,0.00752
2025.14919,0.00839
2023.08902,0.00848
2021.02885,0.00771
2018.96867,0.00677
2016.90850,0.00637
2014.84833,0.00630
2012.78816,0.00625
2010.72799,0.00605
2008.66781,0.00523
2006.60764,0.00478
2004.54747,0.00598
2002.48730,0.00750
2000.42713,0.00812
1998.36695,0.00856
1996.30678,0.00891
1994.24661,0.00861
1992.18644,0.00799
1990.12626,0.00760
1988.06609,0.00718
1986.00592,0.00665
1983.94575,0.00679
1981.88558,0.00762
1979.82540,0.00789
1977.76523,0.00700
1975.70506,0.00581
1973.64489,0.00505
1971.58472,0.00484
1969.52454,0.00526
1967.46437,0.00612
1965.40420,0.00647
1963.34403,0.00553
1961.28386,0.00431
1959.22368,0.00405
1957.16351,0.00479
1955.10334,0.00610
1953.04317,0.00719
1950.98299,0.00720
1948.92282,0.00644
1946.86265,0.00584
1944.80248,0.00559
1942.74231,0.00563
1940.68213,0.00610
1938.62196,0.00664
1936.56179,0.00675
1934.50162,0.00660
1932.44145,0.00678
1930.38127,0.00705
1928.32110,0.00687
1926.26093,0.00641
1924.20076,0.00625
1922.14059,0.00669
1920.08041,0.00747
1918.02024,0.00788
1915.96007,0.00756
1913.89990,0.00699
1911.83972,0.00666
1909.77955,0.00658
1907.71938,0.00669
1905.65921,0.00677
1903.59904,0.00675
1901.53886,0.00667
1899.47869,0.00669
1897.41852,0.00689
1895.35835,0.00705
1893.29818,0.00699
1891.23800,0.00685
1889.17783,0.00677
1887.11766,0.00665
1885.05749,0.00656
1882.99731,0.00670
1880.93714,0.00703
1878.87697,0.00727
1876.81680,0.00725
1874.75663,0.00717
1872.69645,0.00743
1870.63628,0.00810
1868.57611,0.00865
1866.51594,0.00842
1864.45577,0.00772
1862.39559,0.00737
1860.33542,0.00744
1858.27525,0.00754
1856.21508,0.00757
1854.15491,0.00757
1852.09473,0.00752
1850.03456,0.00759
1847.97439,0.00780
1845.91422,0.00793
1843.85404,0.00790
1841.79387,0.00780
1839.73370,0.00781
1837.67353,0.00782
1835.61336,0.00769
1833.55318,0.00751
1831.49301,0.00745
1829.43284,0.00750
1827.37267,0.00762
1825.31250,0.00787
1823.25232,0.00798
1821.19215,0.00769
1819.13198,0.00731
1817.07181,0.00722
1815.01163,0.00741
1812.95146,0.00770
1810.89129,0.00794
1808.83112,0.00800
1806.77095,0.00779
1804.71077,0.00756
1802.65060,0.00756
1800.59043,0.00777
1798.53026,0.00806
1796.47009,0.00844
1794.40991,0.00876
1792.34974,0.00870
1790.28957,0.00822
1788.22940,0.00779
1786.16923,0.00769
1784.10905,0.00788
1782.04888,0.00820
1779.98871,0.00845
1777.92854,0.00850
1775.86836,0.00851
1773.80819,0.00867
1771.74802,0.00891
1769.68785,0.00902
1767.62768,0.00897
1765.56750,0.00890
1763.50733,0.00909
1761.44716,0.00952
1759.38699,0.00979
1757.32682,0.00982
1755.26664,0.00987
1753.20647,0.01017
1751.14630,0.01069
1749.08613,0.01117
1747.02596,0.01140
1744.96578,0.01136
1742.90561,0.01115
1740.84544,0.01098
1738.78527,0.01102
1736.72509,0.01123
1734.66492,0.01148
1732.60475,0.01159
1730.54458,0.01142
1728.48441,0.01121
1726.42423,0.01112
1724.36406,0.01120
1722.30389,0.01142
1720.24372,0.01174
1718.18355,0.01221
1716.12337,0.01259
1714.06320,0.01251
1712.00303,0.01234
1709.94286,0.01227
1707.88268,0.01224
1705.82251,0.01243
1703.76234,0.01293
1701.70217,0.01354
1699.64200,0.01414
1697.58182,0.01459
1695.52165,0.01489
1693.46148,0.01505
1691.40131,0.01516
1689.34114,0.01544
1687.28096,0.01595
1685.22079,0.01674
1683.16062,0.01778
1681.10045,0.01832
1679.04028,0.01831
1676.98010,0.01836
1674.91993,0.01877
1672.85976,0.01934
1670.79959,0.01993
1668.73941,0.02047
1666.67924,0.02076
1664.61907,0.02107
1662.55890,0.02162
1660.49873,0.02206
1658.43855,0.02221
1656.37838,0.02234
1654.31821,0.02280
1652.25804,0.02360
1650.19787,0.02398
1648.13769,0.02393
1646.07752,0.02366
1644.01735,0.02337
1641.95718,0.02313
1639.89701,0.02290
1637.83683,0.02271
1635.77666,0.02262
1633.71649,0.02246
1631.65632,0.02218
1629.59614,0.02195
1627.53597,0.02187
1625.47580,0.02178
1623.41563,0.02152
1621.35546,0.02121
1619.29528,0.02092
1617.23511,0.02054
1615.17494,0.02018
1613.11477,0.01996
1611.05460,0.01975
1608.99442,0.01949
1606.93425,0.01918
1604.87408,0.01889
1602.81391,0.01871
1600.75373,0.01864
1598.69356,0.01854
1596.63339,0.01836
1594.57322,0.01811
1592.51305,0.01789
1590.45287,0.01779
1588.39270,0.01768
1586.33253,0.01743
1584.27236,0.01712
1582.21219,0.01688
1580.15201,0.01679
1578.09184,0.01680
1576.03167,0.01678
1573.97150,0.01664
1571.91133,0.01651
1569.85115,0.01641
1567.79098,0.01625
1565.73081,0.01603
1563.67064,0.01591
1561.61046,0.01608
1559.55029,0.01659
1557.49012,0.01691
1555.42995,0.01661
1553.36978,0.01628
1551.30960,0.01611
1549.24943,0.01590
1547.18926,0.01575
1545.12909,0.01590
1543.06892,0.01608
1541.00874,0.01584
1538.94857,0.01545
1536.88840,0.01528
1534.82823,0.01517
1532.76805,0.01486
1530.70788,0.01449
1528.64771,0.01443
1526.58754,0.01463
1524.52737,0.01478
1522.46719,0.01479
1520.40702,0.01461
1518.34685,0.01426
1516.28668,0.01395
1514.22651,0.01377
1512.16633,0.01380
1510.10616,0.01403
1508.04599,0.01396
1505.98582,0.01309
1503.92565,0.01233
1501.86547,0.01209
1499.80530,0.01193
1497.74513,0.01173
1495.68496,0.01166
1493.62478,0.01173
1491.56461,0.01192
1489.50444,0.01201
1487.44427,0.01171
1485.38410,0.01122
1483.32392,0.01086
1481.26375,0.01065
1479.20358,0.01055
1477.14341,0.01060
1475.08324,0.01091
1473.02306,0.01130
1470.96289,0.01135
1468.90272,0.01119
1466.84255,0.01116
1464.78238,0.01132
1462.72220,0.01146
1460.66203,0.01161
1458.60186,0.01200
1456.54169,0.01234
1454.48151,0.01212
1452.42134,0.01169
1450.36117,0.01139
1448.30100,0.01127
1446.24083,0.01131
1444.18065,0.01139
1442.12048,0.01138
1440.06031,0.01137
1438.00014,0.01150
1435.93997,0.01171
1433.87979,0.01170
1431.81962,0.01162
1429.75945,0.01166
1427.69928,0.01177
1425.63910,0.01190
1423.57893,0.01212
1421.51876,0.01248
1419.45859,0.01295
1417.39842,0.01313
1415.33824,0.01287
1413.27807,0.01262
1411.21790,0.01252
1409.15773,0.01242
1407.09756,0.01234
1405.03738,0.01236
1402.97721,0.01241
1400.91704,0.01251
1398.85687,0.01272
1396.79670,0.01277
1394.73652,0.01238
1392.67635,0.01183
1390.61618,0.01157
1388.55601,0.01163
1386.49583,0.01167
1384.43566,0.01147
1382.37549,0.01121
1380.31532,0.01110
1378.25515,0.01111
1376.19497,0.01118
1374.13480,0.01125
1372.07463,0.01117
1370.01446,0.01097
1367.95429,0.01082
1365.89411,0.01079
1363.83394,0.01082
1361.77377,0.01074
1359.71360,0.01057
1357.65343,0.01050
1355.59325,0.01050
1353.53308,0.01033
1351.47291,0.01004
1349.41274,0.00988
1347.35256,0.00984
1345.29239,0.00976
1343.23222,0.00977
1341.17205,0.01006
1339.11188,0.01039
1337.05170,0.01029
1334.99153,0.00988
1332.93136,0.00955
1330.87119,0.00950
1328.81102,0.00958
1326.75084,0.00959
1324.69067,0.00958
1322.63050,0.00966
1320.57033,0.00981
1318.51015,0.00993
1316.44998,0.00999
1314.38981,0.00997
1312.32964,0.00984
1310.26947,0.00972
1308.20929,0.00968
1306.14912,0.00967
1304.08895,0.00968
1302.02878,0.00972
1299.96861,0.00971
1297.90843,0.00967
1295.84826,0.00967
1293.78809,0.00971
1291.72792,0.00982
1289.66775,0.00997
1287.60757,0.01002
1285.54740,0.00998
1283.48723,0.00996
1281.42706,0.00993
1279.36688,0.00987
1277.30671,0.00983
1275.24654,0.00985
1273.18637,0.00993
1271.12620,0.01005
1269.06602,0.01012
1267.00585,0.01014
1264.94568,0.01016
1262.88551,0.01024
1260.82534,0.01044
1258.76516,0.01065
1256.70499,0.01067
1254.64482,0.01050
1252.58465,0.01036
1250.52447,0.01036
1248.46430,0.01046
1246.40413,0.01058
1244.34396,0.01063
1242.28379,0.01053
1240.22361,0.01029
1238.16344,0.01014
1236.10327,0.01016
1234.04310,0.01018
1231.98293,0.01004
1229.92275,0.00986
1227.86258,0.00979
1225.80241,0.00976
1223.74224,0.00961
1221.68207,0.00935
1219.62189,0.00912
1217.56172,0.00897
1215.50155,0.00885
1213.44138,0.00876
1211.38120,0.00861
1209.32103,0.00843
1207.26086,0.00833
1205.20069,0.00831
1203.14052,0.00816
1201.08034,0.00792
1199.02017,0.00784
1196.96000,0.00785
1194.89983,0.00777
1192.83966,0.00765
1190.77948,0.00764
1188.71931,0.00773
1186.65914,0.00780
1184.59897,0.00788
1182.53880,0.00803
1180.47862,0.00815
1178.41845,0.00826
1176.35828,0.00846
1174.29811,0.00870
1172.23793,0.00885
1170.17776,0.00899
1168.11759,0.00926
1166.05742,0.00957
1163.99725,0.00981
1161.93707,0.01011
1159.87690,0.01047
1157.81673,0.01078
1155.75656,0.01108
1153.69639,0.01146
1151.63621,0.01191
1149.57604,0.01242
1147.51587,0.01296
1145.45570,0.01336
1143.39552,0.01370
1141.33535,0.01417
1139.27518,0.01480
1137.21501,0.01552
1135.15484,0.01622
1133.09466,0.01687
1131.03449,0.01757
1128.97432,0.01837
1126.91415,0.01927
1124.85398,0.02016
1122.79380,0.02099
1120.73363,0.02187
1118.67346,0.02292
1116.61329,0.02409
1114.55312,0.02520
1112.49294,0.02616
1110.43277,0.02704
1108.37260,0.02786
1106.31243,0.02865
1104.25225,0.02950
1102.19208,0.03051
1100.13191,0.03151
1098.07174,0.03229
1096.01157,0.03299
1093.95139,0.03383
1091.89122,0.03477
1089.83105,0.03549
1087.77088,0.03598
1085.71071,0.03648
1083.65053,0.03705
1081.59036,0.03764
1079.53019,0.03824
1077.47002,0.03889
1075.40985,0.03956
1073.34967,0.04020
1071.28950,0.04060
1069.22933,0.04069
1067.16916,0.04061
1065.10898,0.04040
1063.04881,0.04026
1060.98864,0.04027
1058.92847,0.04010
1056.86830,0.03957
1054.80812,0.03889
1052.74795,0.03836
1050.68778,0.03782
1048.62761,0.03701
1046.56744,0.03602
1044.50726,0.03498
1042.44709,0.03390
1040.38692,0.03287
1038.32675,0.03181
1036.26657,0.03065
1034.20640,0.02959
1032.14623,0.02859
1030.08606,0.02749
1028.02589,0.02635
1025.96571,0.02543
1023.90554,0.02475
1021.84537,0.02415
1019.78520,0.02364
1017.72503,0.02330
1015.66485,0.02302
1013.60468,0.02274
1011.54451,0.02255
1009.48434,0.02251
1007.42417,0.02251
1005.36399,0.02268
1003.30382,0.02313
1001.24365,0.02371
999.18348,0.02438
997.12330,0.02524
995.06313,0.02615
993.00296,0.02691
990.94279,0.02759
988.88262,0.02824
986.82244,0.02868
984.76227,0.02885
982.70210,0.02887
980.64193,0.02890
978.58176,0.02888
976.52158,0.02860
974.46141,0.02810
972.40124,0.02748
970.34107,0.02680
968.28089,0.02610
966.22072,0.02524
964.16055,0.02413
962.10038,0.02300
960.04021,0.02215
957.98003,0.02151
955.91986,0.02072
953.85969,0.01980
951.79952,0.01903
949.73935,0.01835
947.67917,0.01756
945.61900,0.01673
943.55883,0.01610
941.49866,0.01566
939.43849,0.01534
937.37831,0.01516
935.31814,0.01496
933.25797,0.01457
931.19780,0.01403
929.13762,0.01350
927.07745,0.01305
925.01728,0.01278
922.95711,0.01271
920.89694,0.01269
918.83676,0.01249
916.77659,0.01225
914.71642,0.01220
912.65625,0.01224
910.59608,0.01216
908.53590,0.01205
906.47573,0.01209
904.41556,0.01232
902.35539,0.01275
900.29522,0.01312
898.23504,0.01310
896.17487,0.01296
894.11470,0.01316
892.05453,0.01357
889.99435,0.01383
887.93418,0.01403
885.87401,0.01439
883.81384,0.01471
881.75367,0.01488
879.69349,0.01523
877.63332,0.01583
875.57315,0.01623
873.51298,0.01632
871.45281,0.01660
869.39263,0.01715
867.33246,0.01751
865.27229,0.01779
863.21212,0.01805
861.15194,0.01794
859.09177,0.01786
857.03160,0.01822
854.97143,0.01853
852.91126,0.01852
850.85108,0.01860
848.79091,0.01882
846.73074,0.01864
844.67057,0.01813
842.61040,0.01795
840.55022,0.01808
838.49005,0.01793
836.42988,0.01760
834.36971,0.01748
832.30954,0.01725
830.24936,0.01672
828.18919,0.01621
826.12902,0.01583
824.06885,0.01567
822.00867,0.01575
819.94850,0.01567
817.88833,0.01539
815.82816,0.01507
813.76799,0.01466
811.70781,0.01442
809.64764,0.01451
807.58747,0.01470
805.52730,0.01480
803.46713,0.01464
801.40695,0.01417
799.34678,0.01378
797.28661,0.01387
795.22644,0.01422
793.16627,0.01438
791.10609,0.01448
789.04592,0.01481
786.98575,0.01520
784.92558,0.01537
782.86540,0.01536
780.80523,0.01519
778.74506,0.01479
776.68489,0.01459
774.62472,0.01469
772.56454,0.01471
770.50437,0.01454
768.44420,0.01432
766.38403,0.01403
764.32386,0.01403
762.26368,0.01450
760.20351,0.01457
758.14334,0.01423
756.08317,0.01436
754.02299,0.01473
751.96282,0.01486
749.90265,0.01481
747.84248,0.01471
745.78231,0.01446
743.72213,0.01410
741.66196,0.01428
739.60179,0.01516
737.54162,0.01567
735.48145,0.01530
733.42127,0.01502
731.36110,0.01532
729.30093,0.01563
727.24076,0.01559
725.18059,0.01520
723.12041,0.01416
721.06024,0.01535
719.00007,0.01441
716.93990,0.01442
714.87972,0.01489
712.81955,0.01534
710.75938,0.01559
708.69921,0.01563
706.63904,0.01608
704.57886,0.01634
702.51869,0.01578
700.45852,0.01478
698.39835,0.01407
696.33818,0.01387
694.27800,0.01364
692.21783,0.01294
690.15766,0.01181
688.09749,0.01066
686.03731,0.01016
683.97714,0.01026
681.91697,0.01054
679.85680,0.01119
677.79663,0.01221
675.73645,0.01311
673.67628,0.01048
671.61611,0.00000
669.55594,0.00353
667.49577,0.02752
665.43559,0.00215
663.37542,0.00625
661.31525,0.01223
659.25508,0.01157
657.19491,0.01010
655.13473,0.00957
653.07456,0.00872
651.01439,0.00760
648.95422,0.00780
646.89404,0.00739
644.83387,0.00776
642.77370,0.00830
640.71353,0.00865
638.65336,0.00788
636.59318,0.00587
634.53301,0.00445
632.47284,0.00494
630.41267,0.00649
628.35250,0.00738
626.29232,0.00608
624.23215,0.00448
622.17198,0.00383
620.11181,0.00360
618.05164,0.00412
615.99146,0.00549
613.93129,0.00608
611.87112,0.00445
609.81095,0.00191
607.75077,0.00109
605.69060,0.00219
603.63043,0.00290
601.57026,0.00168
599.51009,0.00000
