3996.73391,0.00012
3994.67373,0.00023
3992.61356,0.00036
3990.55339,0.00034
3988.49322,0.00038
3986.43305,0.00061
3984.37287,0.00083
3982.31270,0.00082
3980.25253,0.00069
3978.19236,0.00056
3976.13219,0.00029
3974.07201,-0.00000
3972.01184,0.00000
3969.95167,0.00025
3967.89150,0.00067
3965.83133,0.00110
3963.77115,0.00114
3961.71098,0.00081
3959.65081,0.00054
3957.59064,0.00051
3955.53046,0.00054
3953.47029,0.00057
3951.41012,0.00066
3949.34995,0.00083
3947.28978,0.00096
3945.22960,0.00113
3943.16943,0.00135
3941.10926,0.00118
3939.04909,0.00072
3936.98892,0.00060
3934.92874,0.00086
3932.86857,0.00106
3930.80840,0.00115
3928.74823,0.00124
3926.68805,0.00131
3924.62788,0.00143
3922.56771,0.00149
3920.50754,0.00122
3918.44737,0.00083
3916.38719,0.00074
3914.32702,0.00100
3912.26685,0.00127
3910.20668,0.00120
3908.14651,0.00097
3906.08633,0.00117
3904.02616,0.00178
3901.96599,0.00194
3899.90582,0.00148
3897.84565,0.00114
3895.78547,0.00108
3893.72530,0.00124
3891.66513,0.00144
3889.60496,0.00127
3887.54478,0.00113
3885.48461,0.00150
3883.42444,0.00181
3881.36427,0.00174
3879.30410,0.00154
3877.24392,0.00129
3875.18375,0.00124
3873.12358,0.00165
3871.06341,0.00227
3869.00324,0.00260
3866.94306,0.00259
3864.88289,0.00258
3862.82272,0.00252
3860.76255,0.00222
3858.70237,0.00189
3856.64220,0.00167
3854.58203,0.00182
3852.52186,0.00226
3850.46169,0.00214
3848.40151,0.00155
3846.34134,0.00096
3844.28117,0.00071
3842.22100,0.00103
3840.16083,0.00170
3838.10065,0.00224
3836.04048,0.00236
3833.98031,0.00205
3831.92014,0.00159
3829.85997,0.00130
3827.79979,0.00134
3825.73962,0.00168
3823.67945,0.00213
3821.61928,0.00239
3819.55910,0.00214
3817.49893,0.00148
3815.43876,0.00099
3813.37859,0.00070
3811.31842,0.00040
3809.25824,0.00038
3807.19807,0.00093
3805.13790,0.00159
3803.07773,0.00191
3801.01756,0.00184
3798.95738,0.00141
3796.89721,0.00100
3794.83704,0.00094
3792.77687,0.00113
3790.71670,0.00135
3788.65652,0.00155
3786.59635,0.00168
3784.53618,0.00171
3782.47601,0.00165
3780.41583,0.00155
3778.35566,0.00141
3776.29549,0.00126
3774.23532,0.00125
3772.17515,0.00138
3770.11497,0.00158
3768.05480,0.00186
3765.99463,0.00200
3763.93446,0.00171
3761.87429,0.00129
3759.81411,0.00121
3757.75394,0.00141
3755.69377,0.00188
3753.63360,0.00244
3751.57342,0.00264
3749.51325,0.00266
3747.45308,0.00288
3745.39291,0.00329
3743.33274,0.00347
3741.27256,0.00321
3739.21239,0.00322
3737.15222,0.00360
3735.09205,0.00362
3733.03188,0.00303
3730.97170,0.00298
3728.91153,0.00358
3726.85136,0.00404
3724.79119,0.00373
3722.73102,0.00282
3720.67084,0.00235
3718.61067,0.00240
3716.55050,0.00275
3714.49033,0.00287
3712.43015,0.00237
3710.36998,0.00211
3708.30981,0.00212
3706.24964,0.00221
3704.18947,0.00239
3702.12929,0.00262
3700.06912,0.00261
3698.00895,0.00250
3695.94878,0.00266
3693.88861,0.00274
3691.82843,0.00292
3689.76826,0.00330
3687.70809,0.00336
3685.64792,0.00277
3683.58775,0.00228
3681.52757,0.00234
3679.46740,0.00282
3677.40723,0.00321
3675.34706,0.00347
3673.28688,0.00350
3671.22671,0.00350
3669.16654,0.00376
3667.10637,0.00384
3665.04620,0.00366
3662.98602,0.00367
3660.92585,0.00387
3658.86568,0.00405
3656.80551,0.00428
3654.74534,0.00448
3652.68516,0.00431
3650.62499,0.00421
3648.56482,0.00506
3646.50465,0.00617
3644.44447,0.00639
3642.38430,0.00606
3640.32413,0.00582
3638.26396,0.00591
3636.20379,0.00634
3634.14361,0.00690
3632.08344,0.00748
3630.02327,0.00815
3627.96310,0.00878
3625.90293,0.00886
3623.84275,0.00871
3621.78258,0.00846
3619.72241,0.00830
3617.66224,0.00871
3615.60207,0.00973
3613.54189,0.01102
3611.48172,0.01156
3609.42155,0.01141
3607.36138,0.01134
3605.30120,0.01161
3603.24103,0.01211
3601.18086,0.01241
3599.12069,0.01254
3597.06052,0.01274
3595.00034,0.01323
3592.94017,0.01362
3590.88000,0.01393
3588.81983,0.01411
3586.75966,0.01404
3584.69948,0.01382
3582.63931,0.01401
3580.57914,0.01455
3578.51897,0.01497
3576.45879,0.01526
3574.39862,0.01540
3572.33845,0.01549
3570.27828,0.01594
3568.21811,0.01678
3566.15793,0.01723
3564.09776,0.01711
3562.03759,0.01717
3559.97742,0.01768
3557.91725,0.01825
3555.85707,0.01849
3553.79690,0.01857
3551.73673,0.01874
3549.67656,0.01905
3547.61639,0.01970
3545.55621,0.02051
3543.49604,0.02065
3541.43587,0.02008
3539.37570,0.01988
3537.31552,0.02036
3535.25535,0.02084
3533.19518,0.02100
3531.13501,0.02112
3529.07484,0.02157
3527.01466,0.02223
3524.95449,0.02266
3522.89432,0.02275
3520.83415,0.02279
3518.77398,0.02275
3516.71380,0.02256
3514.65363,0.02274
3512.59346,0.02361
3510.53329,0.02457
3508.47312,0.02495
3506.41294,0.02483
3504.35277,0.02490
3502.29260,0.02547
3500.23243,0.02604
3498.17225,0.02634
3496.11208,0.02669
3494.05191,0.02695
3491.99174,0.02684
3489.93157,0.02682
3487.87139,0.02728
3485.81122,0.02771
3483.75105,0.02776
3481.69088,0.02783
3479.63071,0.02833
3477.57053,0.02898
3475.51036,0.02923
3473.45019,0.02901
3471.39002,0.02891
3469.32984,0.02934
3467.26967,0.03004
3465.20950,0.03081
3463.14933,0.03147
3461.08916,0.03166
3459.02898,0.03154
3456.96881,0.03153
3454.90864,0.03153
3452.84847,0.03146
3450.78830,0.03151
3448.72812,0.03183
3446.66795,0.03228
3444.60778,0.03257
3442.54761,0.03264
3440.48744,0.03276
3438.42726,0.03303
3436.36709,0.03329
3434.30692,0.03352
3432.24675,0.03373
3430.18657,0.03383
3428.12640,0.03379
3426.06623,0.03377
3424.00606,0.03406
3421.94589,0.03466
3419.88571,0.03523
3417.82554,0.03542
3415.76537,0.03509
3413.70520,0.03463
3411.64503,0.03456
3409.58485,0.03493
3407.52468,0.03537
3405.46451,0.03578
3403.40434,0.03614
3401.34416,0.03616
3399.28399,0.03601
3397.22382,0.03584
3395.16365,0.03594
3393.10348,0.03648
3391.04330,0.03713
3388.98313,0.03752
3386.92296,0.03758
3384.86279,0.03743
3382.80262,0.03714
3380.74244,0.03699
3378.68227,0.03731
3376.62210,0.03788
3374.56193,0.03811
3372.50176,0.03788
3370.44158,0.03762
3368.38141,0.03775
3366.32124,0.03818
3364.26107,0.03829
3362.20089,0.03814
3360.14072,0.03813
3358.08055,0.03811
3356.02038,0.03807
3353.96021,0.03832
3351.90003,0.03890
3349.83986,0.03938
3347.77969,0.03945
3345.71952,0.03925
3343.65935,0.03918
3341.59917,0.03926
3339.53900,0.03932
3337.47883,0.03928
3335.41866,0.03905
3333.35849,0.03907
3331.29831,0.03950
3329.23814,0.03975
3327.17797,0.03980
3325.11780,0.04002
3323.05762,0.04019
3320.99745,0.04000
3318.93728,0.03979
3316.87711,0.03995
3314.81694,0.04038
3312.75676,0.04061
3310.69659,0.04038
3308.63642,0.03988
3306.57625,0.03958
3304.51608,0.03971
3302.45590,0.03989
3300.39573,0.03996
3298.33556,0.04004
3296.27539,0.03988
3294.21521,0.03954
3292.15504,0.03960
3290.09487,0.04018
3288.03470,0.04072
3285.97453,0.04080
3283.91435,0.04052
3281.85418,0.04039
3279.79401,0.04062
3277.73384,0.04068
3275.67367,0.04042
3273.61349,0.04016
3271.55332,0.03989
3269.49315,0.03960
3267.43298,0.03936
3265.37281,0.03937
3263.31263,0.03977
3261.25246,0.04009
3259.19229,0.04004
3257.13212,0.04015
3255.07194,0.04059
3253.01177,0.04078
3250.95160,0.04056
3248.89143,0.04040
3246.83126,0.04048
3244.77108,0.04068
3242.71091,0.04082
3240.65074,0.04081
3238.59057,0.04074
3236.53040,0.04072
3234.47022,0.04056
3232.41005,0.04040
3230.34988,0.04052
3228.28971,0.04058
3226.22954,0.04042
3224.16936,0.04041
3222.10919,0.04039
3220.04902,0.04012
3217.98885,0.03993
3215.92867,0.04006
3213.86850,0.04014
3211.80833,0.03993
3209.74816,0.03987
3207.68799,0.03993
3205.62781,0.03973
3203.56764,0.03966
3201.50747,0.04002
3199.44730,0.04034
3197.38713,0.04008
3195.32695,0.03944
3193.26678,0.03906
3191.20661,0.03905
3189.14644,0.03904
3187.08626,0.03894
3185.02609,0.03887
3182.96592,0.03882
3180.90575,0.03881
3178.84558,0.03877
3176.78540,0.03855
3174.72523,0.03824
3172.66506,0.03823
3170.60489,0.03860
3168.54472,0.03887
3166.48454,0.03886
3164.42437,0.03870
3162.36420,0.03844
3160.30403,0.03808
3158.24386,0.03769
3156.18368,0.03747
3154.12351,0.03746
3152.06334,0.03755
3150.00317,0.03767
3147.94299,0.03764
3145.88282,0.03739
3143.82265,0.03714
3141.76248,0.03704
3139.70231,0.03703
3137.64213,0.03692
3135.58196,0.03675
3133.52179,0.03674
3131.46162,0.03651
3129.40145,0.03592
3127.34127,0.03566
3125.28110,0.03589
3123.22093,0.03599
3121.16076,0.03591
3119.10058,0.03595
3117.04041,0.03581
3114.98024,0.03534
3112.92007,0.03503
3110.85990,0.03510
3108.79972,0.03535
3106.73955,0.03541
3104.67938,0.03503
3102.61921,0.03459
3100.55904,0.03462
3098.49886,0.03482
3096.43869,0.03454
3094.37852,0.03402
3092.31835,0.03382
3090.25818,0.03372
3088.19800,0.03348
3086.13783,0.03357
3084.07766,0.03402
3082.01749,0.03415
3079.95731,0.03386
3077.89714,0.03356
3075.83697,0.03332
3073.77680,0.03308
3071.71663,0.03279
3069.65645,0.03249
3067.59628,0.03232
3065.53611,0.03228
3063.47594,0.03214
3061.41577,0.03201
3059.35559,0.03200
3057.29542,0.03182
3055.23525,0.03153
3053.17508,0.03143
3051.11491,0.03132
3049.05473,0.03115
3046.99456,0.03105
3044.93439,0.03085
3042.87422,0.03056
3040.81404,0.03034
3038.75387,0.03025
3036.69370,0.03026
3034.63353,0.03022
3032.57336,0.03005
3030.51318,0.02995
3028.45301,0.02988
3026.39284,0.02969
3024.33267,0.02965
3022.27250,0.02982
3020.21232,0.02962
3018.15215,0.02901
3016.09198,0.02882
3014.03181,0.02929
3011.97163,0.02962
3009.91146,0.02937
3007.85129,0.02878
3005.79112,0.02832
3003.73095,0.02815
3001.67077,0.02791
2999.61060,0.02763
2997.55043,0.02768
2995.49026,0.02791
2993.43009,0.02813
2991.36991,0.02820
2989.30974,0.02808
2987.24957,0.02813
2985.18940,0.02834
2983.12923,0.02819
2981.06905,0.02786
2979.00888,0.02779
2976.94871,0.02767
2974.88854,0.02740
2972.82836,0.02722
2970.76819,0.02714
2968.70802,0.02719
2966.64785,0.02738
2964.58768,0.02753
2962.52750,0.02753
2960.46733,0.02729
2958.40716,0.02693
2956.34699,0.02678
2954.28682,0.02674
2952.22664,0.02667
2950.16647,0.02669
2948.10630,0.02665
2946.04613,0.02646
2943.98596,0.02619
2941.92578,0.02592
2939.86561,0.02595
2937.80544,0.02612
2935.74527,0.02591
2933.68509,0.02566
2931.62492,0.02577
2929.56475,0.02593
2927.50458,0.02586
2925.44441,0.02568
2923.38423,0.02556
2921.32406,0.02533
2919.26389,0.02495
2917.20372,0.02483
2915.14355,0.02504
2913.08337,0.02518
2911.02320,0.02498
2908.96303,0.02464
2906.90286,0.02444
2904.84268,0.02441
2902.78251,0.02446
2900.72234,0.02426
2898.66217,0.02370
2896.60200,0.02348
2894.54182,0.02359
2892.48165,0.02335
2890.42148,0.02279
2888.36131,0.02248
2886.30114,0.02266
2884.24096,0.02282
2882.18079,0.02273
2880.12062,0.02259
2878.06045,0.02246
2876.00028,0.02219
2873.94010,0.02193
2871.87993,0.02186
2869.81976,0.02181
2867.75959,0.02160
2865.69941,0.02131
2863.63924,0.02106
2861.57907,0.02085
2859.51890,0.02074
2857.45873,0.02070
2855.39855,0.02065
2853.33838,0.02055
2851.27821,0.02048
2849.21804,0.02038
2847.15787,0.02000
2845.09769,0.01943
2843.03752,0.01899
2840.97735,0.01889
2838.91718,0.01902
2836.85700,0.01909
2834.79683,0.01891
2832.73666,0.01854
2830.67649,0.01818
2828.61632,0.01791
2826.55614,0.01784
2824.49597,0.01781
2822.43580,0.01767
2820.37563,0.01763
2818.31546,0.01768
2816.25528,0.01752
2814.19511,0.01716
2812.13494,0.01704
2810.07477,0.01722
2808.01460,0.01731
2805.95442,0.01734
2803.89425,0.01732
2801.83408,0.01722
2799.77391,0.01709
2797.71373,0.01687
2795.65356,0.01653
2793.59339,0.01626
2791.53322,0.01623
2789.47305,0.01622
2787.41287,0.01616
2785.35270,0.01619
2783.29253,0.01617
2781.23236,0.01598
2779.17219,0.01597
2777.11201,0.01617
2775.05184,0.01603
2772.99167,0.01552
2770.93150,0.01517
2768.87133,0.01532
2766.81115,0.01564
2764.75098,0.01560
2762.69081,0.01538
2760.63064,0.01543
2758.57046,0.01545
2756.51029,0.01525
2754.45012,0.01505
2752.38995,0.01491
2750.32978,0.01485
2748.26960,0.01484
2746.20943,0.01467
2744.14926,0.01437
2742.08909,0.01422
2740.02892,0.01414
2737.96874,0.01406
2735.90857,0.01405
2733.84840,0.01384
2731.78823,0.01357
2729.72805,0.01373
2727.66788,0.01412
2725.60771,0.01421
2723.54754,0.01390
2721.48737,0.01344
2719.42719,0.01317
2717.36702,0.01308
2715.30685,0.01302
2713.24668,0.01310
2711.18651,0.01333
2709.12633,0.01344
2707.06616,0.01338
2705.00599,0.01329
2702.94582,0.01316
2700.88565,0.01285
2698.82547,0.01270
2696.76530,0.01275
2694.70513,0.01256
2692.64496,0.01223
2690.58478,0.01214
2688.52461,0.01225
2686.46444,0.01237
2684.40427,0.01230
2682.34410,0.01204
2680.28392,0.01190
2678.22375,0.01200
2676.16358,0.01217
2674.10341,0.01216
2672.04324,0.01187
2669.98306,0.01154
2667.92289,0.01145
2665.86272,0.01150
2663.80255,0.01148
2661.74238,0.01138
2659.68220,0.01128
2657.62203,0.01122
2655.56186,0.01119
2653.50169,0.01112
2651.44151,0.01110
2649.38134,0.01127
2647.32117,0.01130
2645.26100,0.01111
2643.20083,0.01117
2641.14065,0.01135
2639.08048,0.01128
2637.02031,0.01110
2634.96014,0.01095
2632.89997,0.01075
2630.83979,0.01047
2628.77962,0.01030
2626.71945,0.01019
2624.65928,0.01000
2622.59910,0.00982
2620.53893,0.00976
2618.47876,0.00973
2616.41859,0.00969
2614.35842,0.00975
2612.29824,0.00992
2610.23807,0.00997
2608.17790,0.00967
2606.11773,0.00938
2604.05756,0.00945
2601.99738,0.00965
2599.93721,0.00988
2597.87704,0.00993
2595.81687,0.00970
2593.75670,0.00959
2591.69652,0.00970
2589.63635,0.00977
2587.57618,0.00979
2585.51601,0.00956
2583.45583,0.00905
2581.39566,0.00880
2579.33549,0.00895
2577.27532,0.00912
2575.21515,0.00917
2573.15497,0.00914
2571.09480,0.00895
2569.03463,0.00879
2566.97446,0.00878
2564.91429,0.00875
2562.85411,0.00899
2560.79394,0.00925
2558.73377,0.00908
2556.67360,0.00891
2554.61342,0.00879
2552.55325,0.00838
2550.49308,0.00797
2548.43291,0.00806
2546.37274,0.00859
2544.31256,0.00909
2542.25239,0.00920
2540.19222,0.00890
2538.13205,0.00860
2536.07188,0.00858
2534.01170,0.00873
2531.95153,0.00883
2529.89136,0.00877
2527.83119,0.00860
2525.77102,0.00861
2523.71084,0.00886
2521.65067,0.00895
2519.59050,0.00867
2517.53033,0.00839
2515.47015,0.00845
2513.40998,0.00879
2511.34981,0.00908
2509.28964,0.00915
2507.22947,0.00910
2505.16929,0.00910
2503.10912,0.00913
2501.04895,0.00920
2498.98878,0.00938
2496.92861,0.00941
2494.86843,0.00920
2492.80826,0.00905
2490.74809,0.00927
2488.68792,0.00948
2486.62775,0.00926
2484.56757,0.00921
2482.50740,0.00938
2480.44723,0.00936
2478.38706,0.00936
2476.32688,0.00948
2474.26671,0.00946
2472.20654,0.00931
2470.14637,0.00920
2468.08620,0.00938
2466.02602,0.00959
2463.96585,0.00936
2461.90568,0.00921
2459.84551,0.00967
2457.78534,0.01009
2455.72516,0.00983
2453.66499,0.00939
2451.60482,0.00932
2449.54465,0.00953
2447.48447,0.00973
2445.42430,0.00994
2443.36413,0.01011
2441.30396,0.01000
2439.24379,0.00975
2437.18361,0.00947
2435.12344,0.00919
2433.06327,0.00913
2431.00310,0.00945
2428.94293,0.00993
2426.88275,0.01007
2424.82258,0.00988
2422.76241,0.00973
2420.70224,0.00951
2418.64207,0.00913
2416.58189,0.00925
2414.52172,0.00976
2412.46155,0.01009
2410.40138,0.01008
2408.34120,0.00973
2406.28103,0.00933
2404.22086,0.00918
2402.16069,0.00918
2400.10052,0.00921
2398.04034,0.00885
2395.98017,0.00902
2393.92000,0.00924
2391.85983,0.00920
2389.79966,0.00933
2387.73948,0.01010
2385.67931,0.01136
2383.61914,0.01205
2381.55897,0.01167
2379.49880,0.01140
2377.43862,0.01213
2375.37845,0.01217
2373.31828,0.01175
2371.25811,0.01135
2369.19793,0.01074
2367.13776,0.01122
2365.07759,0.01259
2363.01742,0.01044
2360.95725,0.01019
2358.89707,0.00959
2356.83690,0.01037
2354.77673,0.01128
2352.71656,0.01213
2350.65639,0.01798
2348.59621,0.02174
2346.53604,0.01303
2344.47587,0.01116
2342.41570,0.01318
2340.35552,0.01492
2338.29535,0.01565
2336.23518,0.01487
2334.17501,0.01443
2332.11484,0.01414
2330.05466,0.01470
2327.99449,0.01462
2325.93432,0.01614
2323.87415,0.01539
2321.81398,0.01464
2319.75380,0.01341
2317.69363,0.01416
2315.63346,0.01376
2313.57329,0.01256
2311.51312,0.01250
2309.45294,0.01304
2307.39277,0.01318
2305.33260,0.01269
2303.27243,0.01218
2301.21225,0.01134
2299.15208,0.01092
2297.09191,0.01093
2295.03174,0.01124
2292.97157,0.01182
2290.91139,0.01211
2288.85122,0.01190
2286.79105,0.01147
2284.73088,0.01111
2282.67071,0.01056
2280.61053,0.00960
2278.55036,0.00885
2276.49019,0.00895
2274.43002,0.00968
2272.36984,0.01009
2270.30967,0.00995
2268.24950,0.00952
2266.18933,0.00918
2264.12916,0.00932
2262.06898,0.00982
2260.00881,0.00971
2257.94864,0.00902
2255.88847,0.00857
2253.82830,0.00865
2251.76812,0.00865
2249.70795,0.00850
2247.64778,0.00888
2245.58761,0.00881
2243.52744,0.00786
2241.46726,0.00731
2239.40709,0.00742
2237.34692,0.00731
2235.28675,0.00733
2233.22657,0.00781
2231.16640,0.00824
2229.10623,0.00765
2227.04606,0.00634
2224.98589,0.00595
2222.92571,0.00625
2220.86554,0.00651
2218.80537,0.00704
2216.74520,0.00739
2214.68503,0.00710
2212.62485,0.00644
2210.56468,0.00612
2208.50451,0.00629
2206.44434,0.00590
2204.38417,0.00514
2202.32399,0.00478
2200.26382,0.00525
2198.20365,0.00639
2196.14348,0.00736
2194.08330,0.00826
2192.02313,0.00881
2189.96296,0.00814
2187.90279,0.00657
2185.84262,0.00520
2183.78244,0.00507
2181.72227,0.00580
2179.66210,0.00589
2177.60193,0.00585
2175.54176,0.00667
2173.48158,0.00719
2171.42141,0.00689
2169.36124,0.00655
2167.30107,0.00615
2165.24089,0.00609
2163.18072,0.00558
2161.12055,0.00331
2159.06038,0.00137
2157.00021,0.00054
2154.94003,0.00000
2152.87986,0.00034
2150.81969,0.00118
2148.75952,0.00178
2146.69935,0.00262
2144.63917,0.00334
2142.57900,0.00318
2140.51883,0.00323
2138.45866,0.00381
2136.39849,0.00414
2134.33831,0.00440
2132.27814,0.00492
2130.21797,0.00554
2128.15780,0.00611
2126.09762,0.00646
2124.03745,0.00641
2121.97728,0.00633
2119.91711,0.00659
2117.85694,0.00692
2115.79676,0.00675
2113.73659,0.00640
2111.67642,0.00658
2109.61625,0.00687
2107.55608,0.00660
2105.49590,0.00614
2103.43573,0.00603
2101.37556,0.00593
2099.31539,0.00549
2097.25521,0.00522
2095.19504,0.00536
2093.13487,0.00594
2091.07470,0.00658
2089.01453,0.00658
2086.95435,0.00581
2084.89418,0.00523
2082.83401,0.00529
2080.77384,0.00545
2078.71367,0.00559
2076.65349,0.00570
2074.59332,0.00564
2072.53315,0.00563
2070.47298,0.00547
2068.41281,0.00508
2066.35263,0.00504
2064.29246,0.00537
2062.23229,0.00541
2060.17212,0.00531
2058.11194,0.00526
2056.05177,0.00478
2053.99160,0.00412
2051.93143,0.00401
2049.87126,0.00406
2047.81108,0.00425
2045.75091,0.00479
2043.69074,0.00457
2041.63057,0.00364
2039.57040,0.00370
2037.51022,0.00394
2035.45005,0.00322
2033.38988,0.00346
2031.32971,0.00460
2029.26954,0.00473
2027.20936,0.00426
2025.14919,0.00368
2023.08902,0.00301
2021.02885,0.00252
2018.96867,0.00210
2016.90850,0.00170
2014.84833,0.00134
2012.78816,0.00112
2010.72799,0.00185
2008.66781,0.00302
2006.60764,0.00293
2004.54747,0.00228
2002.48730,0.00258
2000.42713,0.00341
1998.36695,0.00454
1996.30678,0.00596
1994.24661,0.00596
1992.18644,0.00451
1990.12626,0.00427
1988.06609,0.00525
1986.00592,0.00581
1983.94575,0.00583
1981.88558,0.00518
1979.82540,0.00449
1977.76523,0.00490
1975.70506,0.00467
1973.64489,0.00279
1971.58472,0.00193
1969.52454,0.00302
1967.46437,0.00369
1965.40420,0.00342
1963.34403,0.00385
1961.28386,0.00410
1959.22368,0.00324
1957.16351,0.00251
1955.10334,0.00244
1953.04317,0.00281
1950.98299,0.00323
1948.92282,0.00334
1946.86265,0.00317
1944.80248,0.00303
1942.74231,0.00323
1940.68213,0.00341
1938.62196,0.00324
1936.56179,0.00298
1934.50162,0.00289
1932.44145,0.00267
1930.38127,0.00221
1928.32110,0.00227
1926.26093,0.00301
1924.20076,0.00385
1922.14059,0.00422
1920.08041,0.00401
1918.02024,0.00396
1915.96007,0.00437
1913.89990,0.00458
1911.83972,0.00422
1909.77955,0.00354
1907.71938,0.00312
1905.65921,0.00321
1903.59904,0.00373
1901.53886,0.00416
1899.47869,0.00408
1897.41852,0.00403
1895.35835,0.00427
1893.29818,0.00417
1891.23800,0.00392
1889.17783,0.00425
1887.11766,0.00473
1885.05749,0.00470
1882.99731,0.00433
1880.93714,0.00403
1878.87697,0.00389
1876.81680,0.00372
1874.75663,0.00355
1872.69645,0.00350
1870.63628,0.00357
1868.57611,0.00373
1866.51594,0.00372
1864.45577,0.00341
1862.39559,0.00303
1860.33542,0.00292
1858.27525,0.00329
1856.21508,0.00379
1854.15491,0.00376
1852.09473,0.00327
1850.03456,0.00305
1847.97439,0.00333
1845.91422,0.00375
1843.85404,0.00401
1841.79387,0.00404
1839.73370,0.00404
1837.67353,0.00418
1835.61336,0.00431
1833.55318,0.00438
1831.49301,0.00446
1829.43284,0.00444
1827.37267,0.00428
1825.31250,0.00414
1823.25232,0.00405
1821.19215,0.00408
1819.13198,0.00429
1817.07181,0.00438
1815.01163,0.00419
1812.95146,0.00399
1810.89129,0.00394
1808.83112,0.00410
1806.77095,0.00455
1804.71077,0.00508
1802.65060,0.00541
1800.59043,0.00547
1798.53026,0.00535
1796.47009,0.00522
1794.40991,0.00522
1792.34974,0.00535
1790.28957,0.00536
1788.22940,0.00515
1786.16923,0.00505
1784.10905,0.00518
1782.04888,0.00533
1779.98871,0.00527
1777.92854,0.00501
1775.86836,0.00489
1773.80819,0.00534
1771.74802,0.00618
1769.68785,0.00661
1767.62768,0.00633
1765.56750,0.00587
1763.50733,0.00583
1761.44716,0.00616
1759.38699,0.00641
1757.32682,0.00656
1755.26664,0.00677
1753.20647,0.00704
1751.14630,0.00749
1749.08613,0.00806
1747.02596,0.00845
1744.96578,0.00853
1742.90561,0.00832
1740.84544,0.00793
1738.78527,0.00758
1736.72509,0.00755
1734.66492,0.00808
1732.60475,0.00862
1730.54458,0.00843
1728.48441,0.00800
1726.42423,0.00791
1724.36406,0.00808
1722.30389,0.00819
1720.24372,0.00826
1718.18355,0.00857
1716.12337,0.00900
1714.06320,0.00916
1712.00303,0.00927
1709.94286,0.00936
1707.88268,0.00931
1705.82251,0.00946
1703.76234,0.00999
1701.70217,0.01055
1699.64200,0.01105
1697.58182,0.01141
1695.52165,0.01175
1693.46148,0.01231
1691.40131,0.01298
1689.34114,0.01353
1687.28096,0.01389
1685.22079,0.01448
1683.16062,0.01556
1681.10045,0.01631
1679.04028,0.01648
1676.98010,0.01659
1674.91993,0.01709
1672.85976,0.01784
1670.79959,0.01857
1668.73941,0.01910
1666.67924,0.01931
1664.61907,0.01950
1662.55890,0.01998
1660.49873,0.02058
1658.43855,0.02096
1656.37838,0.02107
1654.31821,0.02098
1652.25804,0.02093
1650.19787,0.02122
1648.13769,0.02163
1646.07752,0.02159
1644.01735,0.02105
1641.95718,0.02058
1639.89701,0.02038
1637.83683,0.02024
1635.77666,0.01990
1633.71649,0.01947
1631.65632,0.01925
1629.59614,0.01908
1627.53597,0.01869
1625.47580,0.01816
1623.41563,0.01763
1621.35546,0.01705
1619.29528,0.01637
1617.23511,0.01578
1615.17494,0.01564
1613.11477,0.01579
1611.05460,0.01584
1608.99442,0.01564
1606.93425,0.01522
1604.87408,0.01472
1602.81391,0.01436
1600.75373,0.01422
1598.69356,0.01409
1596.63339,0.01383
1594.57322,0.01354
1592.51305,0.01338
1590.45287,0.01325
1588.39270,0.01293
1586.33253,0.01255
1584.27236,0.01241
1582.21219,0.01244
1580.15201,0.01239
1578.09184,0.01229
1576.03167,0.01220
1573.97150,0.01196
1571.91133,0.01159
1569.85115,0.01133
1567.79098,0.01131
1565.73081,0.01130
1563.67064,0.01119
1561.61046,0.01103
1559.55029,0.01112
1557.49012,0.01164
1555.42995,0.01194
1553.36978,0.01185
1551.30960,0.01159
1549.24943,0.01130
1547.18926,0.01120
1545.12909,0.01159
1543.06892,0.01211
1541.00874,0.01191
1538.94857,0.01101
1536.88840,0.01031
1534.82823,0.00997
1532.76805,0.00976
1530.70788,0.00972
1528.64771,0.00985
1526.58754,0.01010
1524.52737,0.01033
1522.46719,0.01035
1520.40702,0.01020
1518.34685,0.01009
1516.28668,0.00990
1514.22651,0.00950
1512.16633,0.00925
1510.10616,0.00938
1508.04599,0.00929
1505.98582,0.00832
1503.92565,0.00745
1501.86547,0.00731
1499.80530,0.00739
1497.74513,0.00722
1495.68496,0.00681
1493.62478,0.00647
1491.56461,0.00655
1489.50444,0.00691
1487.44427,0.00691
1485.38410,0.00652
1483.32392,0.00625
1481.26375,0.00623
1479.20358,0.00638
1477.14341,0.00681
1475.08324,0.00745
1473.02306,0.00786
1470.96289,0.00774
1468.90272,0.00737
1466.84255,0.00710
1464.78238,0.00706
1462.72220,0.00725
1460.66203,0.00761
1458.60186,0.00800
1456.54169,0.00796
1454.48151,0.00743
1452.42134,0.00707
1450.36117,0.00706
1448.30100,0.00722
1446.24083,0.00727
1444.18065,0.00716
1442.12048,0.00706
1440.06031,0.00706
1438.00014,0.00724
1435.93997,0.00745
1433.87979,0.00745
1431.81962,0.00734
1429.75945,0.00728
1427.69928,0.00737
1425.63910,0.00767
1423.57893,0.00806
1421.51876,0.00839
1419.45859,0.00875
1417.39842,0.00896
1415.33824,0.00872
1413.27807,0.00846
1411.21790,0.00842
1409.15773,0.00838
1407.09756,0.00829
1405.03738,0.00826
1402.97721,0.00818
1400.91704,0.00812
1398.85687,0.00826
1396.79670,0.00842
1394.73652,0.00825
1392.67635,0.00780
1390.61618,0.00740
1388.55601,0.00723
1386.49583,0.00716
1384.43566,0.00708
1382.37549,0.00701
1380.31532,0.00695
1378.25515,0.00697
1376.19497,0.00706
1374.13480,0.00698
1372.07463,0.00663
1370.01446,0.00631
1367.95429,0.00624
1365.89411,0.00636
1363.83394,0.00652
1361.77377,0.00645
1359.71360,0.00606
1357.65343,0.00567
1355.59325,0.00547
1353.53308,0.00538
1351.47291,0.00526
1349.41274,0.00513
1347.35256,0.00510
1345.29239,0.00511
1343.23222,0.00513
1341.17205,0.00537
1339.11188,0.00572
1337.05170,0.00563
1334.99153,0.00520
1332.93136,0.00491
1330.87119,0.00491
1328.81102,0.00500
1326.75084,0.00497
1324.69067,0.00496
1322.63050,0.00511
1320.57033,0.00523
1318.51015,0.00518
1316.44998,0.00509
1314.38981,0.00505
1312.32964,0.00507
1310.26947,0.00517
1308.20929,0.00525
1306.14912,0.00514
1304.08895,0.00494
1302.02878,0.00487
1299.96861,0.00496
1297.90843,0.00511
1295.84826,0.00520
1293.78809,0.00531
1291.72792,0.00552
1289.66775,0.00557
1287.60757,0.00542
1285.54740,0.00535
1283.48723,0.00543
1281.42706,0.00553
1279.36688,0.00557
1277.30671,0.00558
1275.24654,0.00563
1273.18637,0.00576
1271.12620,0.00585
1269.06602,0.00583
1267.00585,0.00580
1264.94568,0.00593
1262.88551,0.00613
1260.82534,0.00617
1258.76516,0.00605
1256.70499,0.00591
1254.64482,0.00595
1252.58465,0.00608
1250.52447,0.00604
1248.46430,0.00592
1246.40413,0.00589
1244.34396,0.00584
1242.28379,0.00573
1240.22361,0.00556
1238.16344,0.00543
1236.10327,0.00544
1234.04310,0.00543
1231.98293,0.00531
1229.92275,0.00522
1227.86258,0.00507
1225.80241,0.00474
1223.74224,0.00433
1221.68207,0.00399
1219.62189,0.00382
1217.56172,0.00381
1215.50155,0.00375
1213.44138,0.00356
1211.38120,0.00337
1209.32103,0.00328
1207.26086,0.00319
1205.20069,0.00304
1203.14052,0.00282
1201.08034,0.00260
1199.02017,0.00254
1196.96000,0.00258
1194.89983,0.00243
1192.83966,0.00220
1190.77948,0.00222
1188.71931,0.00231
1186.65914,0.00231
1184.59897,0.00238
1182.53880,0.00269
1180.47862,0.00311
1178.41845,0.00341
1176.35828,0.00362
1174.29811,0.00371
1172.23793,0.00377
1170.17776,0.00406
1168.11759,0.00447
1166.05742,0.00481
1163.99725,0.00525
1161.93707,0.00572
1159.87690,0.00605
1157.81673,0.00650
1155.75656,0.00710
1153.69639,0.00770
1151.63621,0.00832
1149.57604,0.00902
1147.51587,0.00967
1145.45570,0.01007
1143.39552,0.01048
1141.33535,0.01117
1139.27518,0.01208
1137.21501,0.01308
1135.15484,0.01417
1133.09466,0.01548
1131.03449,0.01682
1128.97432,0.01784
1126.91415,0.01858
1124.85398,0.01950
1122.79380,0.02074
1120.73363,0.02205
1118.67346,0.02341
1116.61329,0.02483
1114.55312,0.02615
1112.49294,0.02739
1110.43277,0.02863
1108.37260,0.02980
1106.31243,0.03096
1104.25225,0.03233
1102.19208,0.03376
1100.13191,0.03488
1098.07174,0.03556
1096.01157,0.03620
1093.95139,0.03700
1091.89122,0.03777
1089.83105,0.03858
1087.77088,0.03947
1085.71071,0.04028
1083.65053,0.04099
1081.59036,0.04179
1079.53019,0.04285
1077.47002,0.04391
1075.40985,0.04466
1073.34967,0.04492
1071.28950,0.04481
1069.22933,0.04480
1067.16916,0.04506
1065.10898,0.04519
1063.04881,0.04504
1060.98864,0.04478
1058.92847,0.04437
1056.86830,0.04360
1054.80812,0.04244
1052.74795,0.04114
1050.68778,0.03986
1048.62761,0.03858
1046.56744,0.03716
1044.50726,0.03548
1042.44709,0.03356
1040.38692,0.03169
1038.32675,0.03023
1036.26657,0.02905
1034.20640,0.02774
1032.14623,0.02617
1030.08606,0.02461
1028.02589,0.02339
1025.96571,0.02238
1023.90554,0.02141
1021.84537,0.02052
1019.78520,0.01981
1017.72503,0.01942
1015.66485,0.01917
1013.60468,0.01886
1011.54451,0.01862
1009.48434,0.01862
1007.42417,0.01884
1005.36399,0.01933
1003.30382,0.02005
1001.24365,0.02081
999.18348,0.02152
997.12330,0.02216
995.06313,0.02300
993.00296,0.02425
990.94279,0.02532
988.88262,0.02585
986.82244,0.02621
984.76227,0.02661
982.70210,0.02698
980.64193,0.02720
978.58176,0.02686
976.52158,0.02609
974.46141,0.02548
972.40124,0.02500
970.34107,0.02433
968.28089,0.02332
966.22072,0.02213
964.16055,0.02106
962.10038,0.02017
960.04021,0.01935
957.98003,0.01847
955.91986,0.01726
953.85969,0.01568
951.79952,0.01427
949.73935,0.01337
947.67917,0.01262
945.61900,0.01187
943.55883,0.01125
941.49866,0.01064
939.43849,0.00995
937.37831,0.00940
935.31814,0.00899
933.25797,0.00869
931.19780,0.00843
929.13762,0.00782
927.07745,0.00711
925.01728,0.00689
922.95711,0.00700
920.89694,0.00690
918.83676,0.00649
916.77659,0.00604
914.71642,0.00583
912.65625,0.00592
910.59608,0.00602
908.53590,0.00605
906.47573,0.00615
904.41556,0.00634
902.35539,0.00668
900.29522,0.00697
898.23504,0.00700
896.17487,0.00685
894.11470,0.00685
892.05453,0.00737
889.99435,0.00825
887.93418,0.00901
885.87401,0.00942
883.81384,0.00951
881.75367,0.00979
879.69349,0.01041
877.63332,0.01095
875.57315,0.01134
873.51298,0.01161
871.45281,0.01182
869.39263,0.01221
867.33246,0.01243
865.27229,0.01216
863.21212,0.01185
861.15194,0.01200
859.09177,0.01259
857.03160,0.01329
854.97143,0.01357
852.91126,0.01344
850.85108,0.01313
848.79091,0.01263
846.73074,0.01220
844.67057,0.01187
842.61040,0.01144
840.55022,0.01103
838.49005,0.01075
836.42988,0.01040
834.36971,0.01000
832.30954,0.01011
830.24936,0.01072
828.18919,0.01060
826.12902,0.00956
824.06885,0.00880
822.00867,0.00861
819.94850,0.00851
817.88833,0.00834
815.82816,0.00797
813.76799,0.00770
811.70781,0.00799
809.64764,0.00841
807.58747,0.00821
805.52730,0.00763
803.46713,0.00728
801.40695,0.00720
799.34678,0.00699
797.28661,0.00657
795.22644,0.00636
793.16627,0.00634
791.10609,0.00621
789.04592,0.00634
786.98575,0.00688
784.92558,0.00698
782.86540,0.00656
780.80523,0.00655
778.74506,0.00698
776.68489,0.00716
774.62472,0.00716
772.56454,0.00716
770.50437,0.00670
768.44420,0.00624
766.38403,0.00654
764.32386,0.00683
762.26368,0.00652
760.20351,0.00590
758.14334,0.00559
756.08317,0.00585
754.02299,0.00616
751.96282,0.00630
749.90265,0.00613
747.84248,0.00583
745.78231,0.00616
743.72213,0.00685
741.66196,0.00696
739.60179,0.00652
737.54162,0.00605
735.48145,0.00579
733.42127,0.00591
731.36110,0.00619
729.30093,0.00650
727.24076,0.00695
725.18059,0.00731
723.12041,0.00814
721.06024,0.00711
719.00007,0.00744
716.93990,0.00781
714.87972,0.00785
712.81955,0.00811
710.75938,0.00853
708.69921,0.00920
706.63904,0.00958
704.57886,0.00946
702.51869,0.00923
700.45852,0.00908
698.39835,0.00920
696.33818,0.00966
694.27800,0.01018
692.21783,0.01054
690.15766,0.01067
688.09749,0.01065
686.03731,0.01065
683.97714,0.01099
681.91697,0.01134
679.85680,0.01062
677.79663,0.00926
675.73645,0.00912
673.67628,0.01235
671.61611,0.01809
669.55594,0.01148
667.49577,0.00000
665.43559,0.01574
663.37542,0.01329
661.31525,0.00960
659.25508,0.00987
657.19491,0.00995
655.13473,0.00883
653.07456,0.00806
651.01439,0.00834
648.95422,0.00904
646.89404,0.01068
644.83387,0.01158
642.77370,0.01147
640.71353,0.01027
638.65336,0.00844
636.59318,0.00645
634.53301,0.00524
632.47284,0.00469
630.41267,0.00348
628.35250,0.00259
626.29232,0.00369
624.23215,0.00338
622.17198,0.00145
620.11181,0.00210
618.05164,0.00390
615.99146,0.00325
613.93129,0.00295
611.87112,0.00479
609.81095,0.00521
607.75077,0.00281
605.69060,0.00072
603.63043,0.00101
601.57026,0.00075
599.51009,0.00000
