3996.73391,0.00091
3994.67373,0.00074
3992.61356,0.00060
3990.55339,0.00052
3988.49322,0.00061
3986.43305,0.00071
3984.37287,0.00067
3982.31270,0.00059
3980.25253,0.00074
3978.19236,0.00101
3976.13219,0.00088
3974.07201,0.00032
3972.01184,0.00000
3969.95167,0.00023
3967.89150,0.00060
3965.83133,0.00088
3963.77115,0.00113
3961.71098,0.00117
3959.65081,0.00092
3957.59064,0.00059
3955.53046,0.00033
3953.47029,0.00020
3951.41012,0.00034
3949.34995,0.00078
3947.28978,0.00110
3945.22960,0.00100
3943.16943,0.00078
3941.10926,0.00069
3939.04909,0.00070
3936.98892,0.00081
3934.92874,0.00091
3932.86857,0.00101
3930.80840,0.00126
3928.74823,0.00159
3926.68805,0.00181
3924.62788,0.00182
3922.56771,0.00166
3920.50754,0.00145
3918.44737,0.00136
3916.38719,0.00138
3914.32702,0.00141
3912.26685,0.00141
3910.20668,0.00132
3908.14651,0.00121
3906.08633,0.00143
3904.02616,0.00199
3901.96599,0.00209
3899.90582,0.00155
3897.84565,0.00116
3895.78547,0.00105
3893.72530,0.00105
3891.66513,0.00109
3889.60496,0.00110
3887.54478,0.00117
3885.48461,0.00153
3883.42444,0.00187
3881.36427,0.00176
3879.30410,0.00122
3877.24392,0.00043
3875.18375,0.00000
3873.12358,0.00052
3871.06341,0.00163
3869.00324,0.00239
3866.94306,0.00240
3864.88289,0.00206
3862.82272,0.00186
3860.76255,0.00177
3858.70237,0.00149
3856.64220,0.00136
3854.58203,0.00197
3852.52186,0.00291
3850.46169,0.00277
3848.40151,0.00187
3846.34134,0.00108
3844.28117,0.00067
3842.22100,0.00064
3840.16083,0.00103
3838.10065,0.00173
3836.04048,0.00212
3833.98031,0.00202
3831.92014,0.00193
3829.85997,0.00186
3827.79979,0.00166
3825.73962,0.00149
3823.67945,0.00137
3821.61928,0.00114
3819.55910,0.00086
3817.49893,0.00081
3815.43876,0.00109
3813.37859,0.00134
3811.31842,0.00132
3809.25824,0.00130
3807.19807,0.00139
3805.13790,0.00146
3803.07773,0.00160
3801.01756,0.00171
3798.95738,0.00131
3796.89721,0.00090
3794.83704,0.00114
3792.77687,0.00173
3790.71670,0.00206
3788.65652,0.00194
3786.59635,0.00156
3784.53618,0.00132
3782.47601,0.00141
3780.41583,0.00159
3778.35566,0.00157
3776.29549,0.00143
3774.23532,0.00134
3772.17515,0.00121
3770.11497,0.00092
3768.05480,0.00069
3765.99463,0.00070
3763.93446,0.00084
3761.87429,0.00111
3759.81411,0.00150
3757.75394,0.00179
3755.69377,0.00188
3753.63360,0.00176
3751.57342,0.00144
3749.51325,0.00149
3747.45308,0.00214
3745.39291,0.00290
3743.33274,0.00311
3741.27256,0.00268
3739.21239,0.00249
3737.15222,0.00289
3735.09205,0.00319
3733.03188,0.00277
3730.97170,0.00224
3728.91153,0.00225
3726.85136,0.00245
3724.79119,0.00238
3722.73102,0.00209
3720.67084,0.00180
3718.61067,0.00176
3716.55050,0.00190
3714.49033,0.00181
3712.43015,0.00148
3710.36998,0.00149
3708.30981,0.00188
3706.24964,0.00211
3704.18947,0.00215
3702.12929,0.00214
3700.06912,0.00196
3698.00895,0.00187
3695.94878,0.00202
3693.88861,0.00189
3691.82843,0.00143
3689.76826,0.00149
3687.70809,0.00221
3685.64792,0.00261
3683.58775,0.00240
3681.52757,0.00217
3679.46740,0.00232
3677.40723,0.00269
3675.34706,0.00304
3673.28688,0.00305
3671.22671,0.00291
3669.16654,0.00328
3667.10637,0.00389
3665.04620,0.00421
3662.98602,0.00427
3660.92585,0.00404
3658.86568,0.00367
3656.80551,0.00370
3654.74534,0.00408
3652.68516,0.00407
3650.62499,0.00398
3648.56482,0.00476
3646.50465,0.00587
3644.44447,0.00621
3642.38430,0.00592
3640.32413,0.00574
3638.26396,0.00608
3636.20379,0.00673
3634.14361,0.00724
3632.08344,0.00749
3630.02327,0.00780
3627.96310,0.00819
3625.90293,0.00837
3623.84275,0.00834
3621.78258,0.00830
3619.72241,0.00857
3617.66224,0.00928
3615.60207,0.01013
3613.54189,0.01086
3611.48172,0.01130
3609.42155,0.01154
3607.36138,0.01190
3605.30120,0.01238
3603.24103,0.01277
3601.18086,0.01293
3599.12069,0.01297
3597.06052,0.01316
3595.00034,0.01350
3592.94017,0.01377
3590.88000,0.01397
3588.81983,0.01432
3586.75966,0.01470
3584.69948,0.01479
3582.63931,0.01488
3580.57914,0.01532
3578.51897,0.01568
3576.45879,0.01570
3574.39862,0.01576
3572.33845,0.01598
3570.27828,0.01629
3568.21811,0.01680
3566.15793,0.01740
3564.09776,0.01769
3562.03759,0.01784
3559.97742,0.01809
3557.91725,0.01822
3555.85707,0.01813
3553.79690,0.01835
3551.73673,0.01916
3549.67656,0.02004
3547.61639,0.02063
3545.55621,0.02102
3543.49604,0.02122
3541.43587,0.02121
3539.37570,0.02138
3537.31552,0.02187
3535.25535,0.02225
3533.19518,0.02236
3531.13501,0.02263
3529.07484,0.02332
3527.01466,0.02401
3524.95449,0.02433
3522.89432,0.02439
3520.83415,0.02440
3518.77398,0.02424
3516.71380,0.02396
3514.65363,0.02397
3512.59346,0.02453
3510.53329,0.02532
3508.47312,0.02577
3506.41294,0.02592
3504.35277,0.02625
3502.29260,0.02678
3500.23243,0.02708
3498.17225,0.02707
3496.11208,0.02727
3494.05191,0.02789
3491.99174,0.02833
3489.93157,0.02825
3487.87139,0.02818
3485.81122,0.02854
3483.75105,0.02925
3481.69088,0.02998
3479.63071,0.03035
3477.57053,0.03023
3475.51036,0.02983
3473.45019,0.02949
3471.39002,0.02979
3469.32984,0.03066
3467.26967,0.03139
3465.20950,0.03178
3463.14933,0.03212
3461.08916,0.03246
3459.02898,0.03258
3456.96881,0.03259
3454.90864,0.03294
3452.84847,0.03349
3450.78830,0.03363
3448.72812,0.03346
3446.66795,0.03355
3444.60778,0.03378
3442.54761,0.03394
3440.48744,0.03413
3438.42726,0.03430
3436.36709,0.03448
3434.30692,0.03467
3432.24675,0.03487
3430.18657,0.03529
3428.12640,0.03576
3426.06623,0.03595
3424.00606,0.03596
3421.94589,0.03608
3419.88571,0.03657
3417.82554,0.03705
3415.76537,0.03698
3413.70520,0.03677
3411.64503,0.03699
3409.58485,0.03749
3407.52468,0.03770
3405.46451,0.03760
3403.40434,0.03755
3401.34416,0.03757
3399.28399,0.03764
3397.22382,0.03756
3395.16365,0.03767
3393.10348,0.03831
3391.04330,0.03918
3388.98313,0.03950
3386.92296,0.03937
3384.86279,0.03954
3382.80262,0.03983
3380.74244,0.03980
3378.68227,0.03982
3376.62210,0.04014
3374.56193,0.04041
3372.50176,0.04030
3370.44158,0.03996
3368.38141,0.03989
3366.32124,0.04013
3364.26107,0.04030
3362.20089,0.04030
3360.14072,0.04018
3358.08055,0.03993
3356.02038,0.03980
3353.96021,0.03995
3351.90003,0.04032
3349.83986,0.04074
3347.77969,0.04090
3345.71952,0.04072
3343.65935,0.04069
3341.59917,0.04098
3339.53900,0.04116
3337.47883,0.04108
3335.41866,0.04088
3333.35849,0.04080
3331.29831,0.04099
3329.23814,0.04133
3327.17797,0.04151
3325.11780,0.04148
3323.05762,0.04130
3320.99745,0.04124
3318.93728,0.04158
3316.87711,0.04209
3314.81694,0.04240
3312.75676,0.04242
3310.69659,0.04228
3308.63642,0.04206
3306.57625,0.04175
3304.51608,0.04140
3302.45590,0.04139
3300.39573,0.04182
3298.33556,0.04228
3296.27539,0.04254
3294.21521,0.04262
3292.15504,0.04264
3290.09487,0.04275
3288.03470,0.04269
3285.97453,0.04228
3283.91435,0.04196
3281.85418,0.04200
3279.79401,0.04220
3277.73384,0.04235
3275.67367,0.04239
3273.61349,0.04251
3271.55332,0.04266
3269.49315,0.04264
3267.43298,0.04242
3265.37281,0.04200
3263.31263,0.04167
3261.25246,0.04164
3259.19229,0.04179
3257.13212,0.04209
3255.07194,0.04236
3253.01177,0.04232
3250.95160,0.04211
3248.89143,0.04206
3246.83126,0.04224
3244.77108,0.04247
3242.71091,0.04241
3240.65074,0.04203
3238.59057,0.04178
3236.53040,0.04191
3234.47022,0.04209
3232.41005,0.04217
3230.34988,0.04227
3228.28971,0.04218
3226.22954,0.04201
3224.16936,0.04214
3222.10919,0.04234
3220.04902,0.04216
3217.98885,0.04182
3215.92867,0.04171
3213.86850,0.04180
3211.80833,0.04182
3209.74816,0.04175
3207.68799,0.04174
3205.62781,0.04163
3203.56764,0.04141
3201.50747,0.04128
3199.44730,0.04122
3197.38713,0.04109
3195.32695,0.04095
3193.26678,0.04090
3191.20661,0.04087
3189.14644,0.04085
3187.08626,0.04082
3185.02609,0.04072
3182.96592,0.04060
3180.90575,0.04045
3178.84558,0.04032
3176.78540,0.04019
3174.72523,0.04010
3172.66506,0.04024
3170.60489,0.04059
3168.54472,0.04070
3166.48454,0.04043
3164.42437,0.04001
3162.36420,0.03960
3160.30403,0.03932
3158.24386,0.03922
3156.18368,0.03915
3154.12351,0.03894
3152.06334,0.03884
3150.00317,0.03906
3147.94299,0.03932
3145.88282,0.03931
3143.82265,0.03900
3141.76248,0.03855
3139.70231,0.03819
3137.64213,0.03797
3135.58196,0.03791
3133.52179,0.03796
3131.46162,0.03779
3129.40145,0.03745
3127.34127,0.03739
3125.28110,0.03755
3123.22093,0.03755
3121.16076,0.03741
3119.10058,0.03722
3117.04041,0.03698
3114.98024,0.03670
3112.92007,0.03637
3110.85990,0.03611
3108.79972,0.03605
3106.73955,0.03611
3104.67938,0.03606
3102.61921,0.03583
3100.55904,0.03570
3098.49886,0.03576
3096.43869,0.03565
3094.37852,0.03542
3092.31835,0.03532
3090.25818,0.03515
3088.19800,0.03472
3086.13783,0.03440
3084.07766,0.03449
3082.01749,0.03475
3079.95731,0.03481
3077.89714,0.03453
3075.83697,0.03406
3073.77680,0.03363
3071.71663,0.03336
3069.65645,0.03330
3067.59628,0.03347
3065.53611,0.03345
3063.47594,0.03301
3061.41577,0.03265
3059.35559,0.03258
3057.29542,0.03239
3055.23525,0.03211
3053.17508,0.03205
3051.11491,0.03209
3049.05473,0.03206
3046.99456,0.03187
3044.93439,0.03154
3042.87422,0.03118
3040.81404,0.03103
3038.75387,0.03108
3036.69370,0.03105
3034.63353,0.03087
3032.57336,0.03072
3030.51318,0.03064
3028.45301,0.03049
3026.39284,0.03021
3024.33267,0.03004
3022.27250,0.02998
3020.21232,0.02974
3018.15215,0.02943
3016.09198,0.02941
3014.03181,0.02957
3011.97163,0.02961
3009.91146,0.02947
3007.85129,0.02935
3005.79112,0.02934
3003.73095,0.02919
3001.67077,0.02887
2999.61060,0.02878
2997.55043,0.02887
2995.49026,0.02870
2993.43009,0.02854
2991.36991,0.02859
2989.30974,0.02847
2987.24957,0.02827
2985.18940,0.02828
2983.12923,0.02824
2981.06905,0.02803
2979.00888,0.02789
2976.94871,0.02779
2974.88854,0.02767
2972.82836,0.02749
2970.76819,0.02727
2968.70802,0.02718
2966.64785,0.02726
2964.58768,0.02734
2962.52750,0.02731
2960.46733,0.02727
2958.40716,0.02729
2956.34699,0.02719
2954.28682,0.02697
2952.22664,0.02692
2950.16647,0.02696
2948.10630,0.02678
2946.04613,0.02641
2943.98596,0.02621
2941.92578,0.02622
2939.86561,0.02625
2937.80544,0.02632
2935.74527,0.02630
2933.68509,0.02600
2931.62492,0.02577
2929.56475,0.02585
2927.50458,0.02596
2925.44441,0.02593
2923.38423,0.02581
2921.32406,0.02556
2919.26389,0.02535
2917.20372,0.02549
2915.14355,0.02567
2913.08337,0.02553
2911.02320,0.02514
2908.96303,0.02461
2906.90286,0.02414
2904.84268,0.02396
2902.78251,0.02404
2900.72234,0.02406
2898.66217,0.02387
2896.60200,0.02368
2894.54182,0.02348
2892.48165,0.02308
2890.42148,0.02274
2888.36131,0.02276
2886.30114,0.02299
2884.24096,0.02315
2882.18079,0.02314
2880.12062,0.02284
2878.06045,0.02248
2876.00028,0.02224
2873.94010,0.02193
2871.87993,0.02171
2869.81976,0.02177
2867.75959,0.02174
2865.69941,0.02147
2863.63924,0.02119
2861.57907,0.02097
2859.51890,0.02079
2857.45873,0.02074
2855.39855,0.02068
2853.33838,0.02047
2851.27821,0.02029
2849.21804,0.02017
2847.15787,0.01992
2845.09769,0.01963
2843.03752,0.01941
2840.97735,0.01921
2838.91718,0.01885
2836.85700,0.01846
2834.79683,0.01823
2832.73666,0.01809
2830.67649,0.01794
2828.61632,0.01771
2826.55614,0.01756
2824.49597,0.01754
2822.43580,0.01751
2820.37563,0.01739
2818.31546,0.01722
2816.25528,0.01711
2814.19511,0.01706
2812.13494,0.01710
2810.07477,0.01704
2808.01460,0.01670
2805.95442,0.01652
2803.89425,0.01662
2801.83408,0.01663
2799.77391,0.01649
2797.71373,0.01626
2795.65356,0.01603
2793.59339,0.01593
2791.53322,0.01590
2789.47305,0.01576
2787.41287,0.01563
2785.35270,0.01554
2783.29253,0.01537
2781.23236,0.01525
2779.17219,0.01527
2777.11201,0.01538
2775.05184,0.01538
2772.99167,0.01522
2770.93150,0.01501
2768.87133,0.01495
2766.81115,0.01510
2764.75098,0.01512
2762.69081,0.01499
2760.63064,0.01488
2758.57046,0.01477
2756.51029,0.01455
2754.45012,0.01423
2752.38995,0.01412
2750.32978,0.01435
2748.26960,0.01454
2746.20943,0.01444
2744.14926,0.01425
2742.08909,0.01393
2740.02892,0.01344
2737.96874,0.01317
2735.90857,0.01328
2733.84840,0.01334
2731.78823,0.01329
2729.72805,0.01333
2727.66788,0.01341
2725.60771,0.01339
2723.54754,0.01318
2721.48737,0.01287
2719.42719,0.01274
2717.36702,0.01266
2715.30685,0.01251
2713.24668,0.01264
2711.18651,0.01297
2709.12633,0.01298
2707.06616,0.01271
2705.00599,0.01256
2702.94582,0.01255
2700.88565,0.01239
2698.82547,0.01218
2696.76530,0.01208
2694.70513,0.01187
2692.64496,0.01155
2690.58478,0.01135
2688.52461,0.01142
2686.46444,0.01157
2684.40427,0.01155
2682.34410,0.01134
2680.28392,0.01122
2678.22375,0.01136
2676.16358,0.01152
2674.10341,0.01148
2672.04324,0.01123
2669.98306,0.01087
2667.92289,0.01072
2665.86272,0.01083
2663.80255,0.01089
2661.74238,0.01075
2659.68220,0.01057
2657.62203,0.01049
2655.56186,0.01040
2653.50169,0.01021
2651.44151,0.01010
2649.38134,0.01027
2647.32117,0.01049
2645.26100,0.01059
2643.20083,0.01056
2641.14065,0.01034
2639.08048,0.01013
2637.02031,0.01009
2634.96014,0.00996
2632.89997,0.00978
2630.83979,0.00969
2628.77962,0.00967
2626.71945,0.00961
2624.65928,0.00946
2622.59910,0.00941
2620.53893,0.00933
2618.47876,0.00892
2616.41859,0.00860
2614.35842,0.00868
2612.29824,0.00889
2610.23807,0.00918
2608.17790,0.00941
2606.11773,0.00943
2604.05756,0.00929
2601.99738,0.00917
2599.93721,0.00920
2597.87704,0.00910
2595.81687,0.00880
2593.75670,0.00868
2591.69652,0.00871
2589.63635,0.00860
2587.57618,0.00838
2585.51601,0.00811
2583.45583,0.00784
2581.39566,0.00775
2579.33549,0.00787
2577.27532,0.00809
2575.21515,0.00809
2573.15497,0.00788
2571.09480,0.00770
2569.03463,0.00772
2566.97446,0.00789
2564.91429,0.00790
2562.85411,0.00790
2560.79394,0.00804
2558.73377,0.00809
2556.67360,0.00809
2554.61342,0.00813
2552.55325,0.00797
2550.49308,0.00753
2548.43291,0.00749
2546.37274,0.00802
2544.31256,0.00840
2542.25239,0.00852
2540.19222,0.00862
2538.13205,0.00851
2536.07188,0.00814
2534.01170,0.00776
2531.95153,0.00760
2529.89136,0.00771
2527.83119,0.00782
2525.77102,0.00782
2523.71084,0.00797
2521.65067,0.00813
2519.59050,0.00792
2517.53033,0.00747
2515.47015,0.00716
2513.40998,0.00738
2511.34981,0.00794
2509.28964,0.00812
2507.22947,0.00802
2505.16929,0.00798
2503.10912,0.00789
2501.04895,0.00804
2498.98878,0.00864
2496.92861,0.00900
2494.86843,0.00879
2492.80826,0.00851
2490.74809,0.00860
2488.68792,0.00877
2486.62775,0.00860
2484.56757,0.00850
2482.50740,0.00854
2480.44723,0.00841
2478.38706,0.00845
2476.32688,0.00874
2474.26671,0.00899
2472.20654,0.00923
2470.14637,0.00922
2468.08620,0.00896
2466.02602,0.00877
2463.96585,0.00865
2461.90568,0.00871
2459.84551,0.00914
2457.78534,0.00947
2455.72516,0.00919
2453.66499,0.00846
2451.60482,0.00810
2449.54465,0.00851
2447.48447,0.00906
2445.42430,0.00917
2443.36413,0.00898
2441.30396,0.00889
2439.24379,0.00891
2437.18361,0.00874
2435.12344,0.00835
2433.06327,0.00824
2431.00310,0.00868
2428.94293,0.00911
2426.88275,0.00935
2424.82258,0.00970
2422.76241,0.00971
2420.70224,0.00893
2418.64207,0.00805
2416.58189,0.00804
2414.52172,0.00874
2412.46155,0.00940
2410.40138,0.00966
2408.34120,0.00951
2406.28103,0.00911
2404.22086,0.00875
2402.16069,0.00857
2400.10052,0.00857
2398.04034,0.00807
2395.98017,0.00813
2393.92000,0.00837
2391.85983,0.00852
2389.79966,0.00884
2387.73948,0.00945
2385.67931,0.01000
2383.61914,0.01027
2381.55897,0.01046
2379.49880,0.01083
2377.43862,0.01112
2375.37845,0.01090
2373.31828,0.01017
2371.25811,0.00934
2369.19793,0.00812
2367.13776,0.00641
2365.07759,0.00533
2363.01742,0.00517
2360.95725,0.00459
2358.89707,0.00580
2356.83690,0.00892
2354.77673,0.01088
2352.71656,0.01071
2350.65639,0.01003
2348.59621,0.01034
2346.53604,0.01171
2344.47587,0.01081
2342.41570,0.00974
2340.35552,0.00998
2338.29535,0.01025
2336.23518,0.01001
2334.17501,0.00988
2332.11484,0.01016
2330.05466,0.01025
2327.99449,0.01017
2325.93432,0.00974
2323.87415,0.00963
2321.81398,0.00985
2319.75380,0.01056
2317.69363,0.01071
2315.63346,0.01040
2313.57329,0.01013
2311.51312,0.01038
2309.45294,0.01097
2307.39277,0.01120
2305.33260,0.01104
2303.27243,0.01074
2301.21225,0.01046
2299.15208,0.01025
2297.09191,0.01016
2295.03174,0.01016
2292.97157,0.01010
2290.91139,0.01003
2288.85122,0.00992
2286.79105,0.00966
2284.73088,0.00925
2282.67071,0.00881
2280.61053,0.00856
2278.55036,0.00857
2276.49019,0.00875
2274.43002,0.00899
2272.36984,0.00901
2270.30967,0.00857
2268.24950,0.00785
2266.18933,0.00747
2264.12916,0.00768
2262.06898,0.00800
2260.00881,0.00800
2257.94864,0.00791
2255.88847,0.00809
2253.82830,0.00821
2251.76812,0.00781
2249.70795,0.00703
2247.64778,0.00687
2245.58761,0.00709
2243.52744,0.00710
2241.46726,0.00701
2239.40709,0.00700
2237.34692,0.00678
2235.28675,0.00645
2233.22657,0.00654
2231.16640,0.00696
2229.10623,0.00692
2227.04606,0.00635
2224.98589,0.00624
2222.92571,0.00645
2220.86554,0.00613
2218.80537,0.00583
2216.74520,0.00635
2214.68503,0.00699
2212.62485,0.00695
2210.56468,0.00623
2208.50451,0.00523
2206.44434,0.00499
2204.38417,0.00548
2202.32399,0.00530
2200.26382,0.00454
2198.20365,0.00441
2196.14348,0.00527
2194.08330,0.00648
2192.02313,0.00694
2189.96296,0.00587
2187.90279,0.00414
2185.84262,0.00354
2183.78244,0.00395
2181.72227,0.00446
2179.66210,0.00491
2177.60193,0.00486
2175.54176,0.00440
2173.48158,0.00471
2171.42141,0.00553
2169.36124,0.00520
2167.30107,0.00415
2165.24089,0.00445
2163.18072,0.00530
2161.12055,0.00426
2159.06038,0.00187
2157.00021,0.00003
2154.94003,0.00007
2152.87986,0.00173
2150.81969,0.00273
2148.75952,0.00246
2146.69935,0.00233
2144.63917,0.00292
2142.57900,0.00339
2140.51883,0.00378
2138.45866,0.00458
2136.39849,0.00455
2134.33831,0.00376
2132.27814,0.00397
2130.21797,0.00480
2128.15780,0.00526
2126.09762,0.00544
2124.03745,0.00532
2121.97728,0.00497
2119.91711,0.00472
2117.85694,0.00461
2115.79676,0.00451
2113.73659,0.00492
2111.67642,0.00571
2109.61625,0.00579
2107.55608,0.00530
2105.49590,0.00518
2103.43573,0.00549
2101.37556,0.00570
2099.31539,0.00537
2097.25521,0.00493
2095.19504,0.00482
2093.13487,0.00511
2091.07470,0.00579
2089.01453,0.00631
2086.95435,0.00571
2084.89418,0.00456
2082.83401,0.00406
2080.77384,0.00413
2078.71367,0.00429
2076.65349,0.00466
2074.59332,0.00533
2072.53315,0.00589
2070.47298,0.00592
2068.41281,0.00566
2066.35263,0.00573
2064.29246,0.00592
2062.23229,0.00548
2060.17212,0.00502
2058.11194,0.00503
2056.05177,0.00510
2053.99160,0.00540
2051.93143,0.00539
2049.87126,0.00437
2047.81108,0.00356
2045.75091,0.00332
2043.69074,0.00254
2041.63057,0.00208
2039.57040,0.00292
2037.51022,0.00362
2035.45005,0.00352
2033.38988,0.00344
2031.32971,0.00302
2029.26954,0.00236
2027.20936,0.00230
2025.14919,0.00276
2023.08902,0.00356
2021.02885,0.00447
2018.96867,0.00462
2016.90850,0.00351
2014.84833,0.00162
2012.78816,0.00027
2010.72799,0.00078
2008.66781,0.00195
2006.60764,0.00171
2004.54747,0.00036
2002.48730,0.00000
2000.42713,0.00184
1998.36695,0.00450
1996.30678,0.00595
1994.24661,0.00562
1992.18644,0.00461
1990.12626,0.00420
1988.06609,0.00428
1986.00592,0.00463
1983.94575,0.00504
1981.88558,0.00452
1979.82540,0.00346
1977.76523,0.00383
1975.70506,0.00455
1973.64489,0.00339
1971.58472,0.00255
1969.52454,0.00370
1967.46437,0.00407
1965.40420,0.00258
1963.34403,0.00176
1961.28386,0.00245
1959.22368,0.00325
1957.16351,0.00329
1955.10334,0.00320
1953.04317,0.00321
1950.98299,0.00277
1948.92282,0.00278
1946.86265,0.00398
1944.80248,0.00499
1942.74231,0.00495
1940.68213,0.00463
1938.62196,0.00439
1936.56179,0.00390
1934.50162,0.00348
1932.44145,0.00323
1930.38127,0.00283
1928.32110,0.00264
1926.26093,0.00291
1924.20076,0.00340
1922.14059,0.00378
1920.08041,0.00364
1918.02024,0.00338
1915.96007,0.00393
1913.89990,0.00436
1911.83972,0.00364
1909.77955,0.00256
1907.71938,0.00222
1905.65921,0.00276
1903.59904,0.00358
1901.53886,0.00391
1899.47869,0.00382
1897.41852,0.00384
1895.35835,0.00379
1893.29818,0.00346
1891.23800,0.00342
1889.17783,0.00400
1887.11766,0.00451
1885.05749,0.00445
1882.99731,0.00411
1880.93714,0.00375
1878.87697,0.00341
1876.81680,0.00327
1874.75663,0.00330
1872.69645,0.00322
1870.63628,0.00327
1868.57611,0.00375
1866.51594,0.00410
1864.45577,0.00392
1862.39559,0.00353
1860.33542,0.00336
1858.27525,0.00357
1856.21508,0.00384
1854.15491,0.00380
1852.09473,0.00357
1850.03456,0.00340
1847.97439,0.00344
1845.91422,0.00365
1843.85404,0.00381
1841.79387,0.00385
1839.73370,0.00387
1837.67353,0.00399
1835.61336,0.00417
1833.55318,0.00425
1831.49301,0.00410
1829.43284,0.00384
1827.37267,0.00363
1825.31250,0.00349
1823.25232,0.00348
1821.19215,0.00363
1819.13198,0.00385
1817.07181,0.00394
1815.01163,0.00383
1812.95146,0.00361
1810.89129,0.00338
1808.83112,0.00337
1806.77095,0.00377
1804.71077,0.00430
1802.65060,0.00466
1800.59043,0.00485
1798.53026,0.00484
1796.47009,0.00456
1794.40991,0.00420
1792.34974,0.00413
1790.28957,0.00430
1788.22940,0.00447
1786.16923,0.00458
1784.10905,0.00461
1782.04888,0.00453
1779.98871,0.00445
1777.92854,0.00424
1775.86836,0.00388
1773.80819,0.00380
1771.74802,0.00433
1769.68785,0.00492
1767.62768,0.00501
1765.56750,0.00482
1763.50733,0.00476
1761.44716,0.00504
1759.38699,0.00552
1757.32682,0.00586
1755.26664,0.00603
1753.20647,0.00618
1751.14630,0.00636
1749.08613,0.00654
1747.02596,0.00679
1744.96578,0.00703
1742.90561,0.00696
1740.84544,0.00665
1738.78527,0.00658
1736.72509,0.00687
1734.66492,0.00739
1732.60475,0.00783
1730.54458,0.00777
1728.48441,0.00753
1726.42423,0.00745
1724.36406,0.00749
1722.30389,0.00751
1720.24372,0.00737
1718.18355,0.00726
1716.12337,0.00759
1714.06320,0.00809
1712.00303,0.00837
1709.94286,0.00842
1707.88268,0.00848
1705.82251,0.00884
1703.76234,0.00935
1701.70217,0.00966
1699.64200,0.00990
1697.58182,0.01041
1695.52165,0.01116
1693.46148,0.01181
1691.40131,0.01235
1689.34114,0.01286
1687.28096,0.01313
1685.22079,0.01333
1683.16062,0.01411
1681.10045,0.01502
1679.04028,0.01553
1676.98010,0.01595
1674.91993,0.01657
1672.85976,0.01717
1670.79959,0.01760
1668.73941,0.01805
1666.67924,0.01846
1664.61907,0.01871
1662.55890,0.01911
1660.49873,0.01982
1658.43855,0.02043
1656.37838,0.02054
1654.31821,0.02019
1652.25804,0.02001
1650.19787,0.02031
1648.13769,0.02072
1646.07752,0.02093
1644.01735,0.02075
1641.95718,0.02035
1639.89701,0.01991
1637.83683,0.01946
1635.77666,0.01908
1633.71649,0.01881
1631.65632,0.01853
1629.59614,0.01818
1627.53597,0.01777
1625.47580,0.01735
1623.41563,0.01699
1621.35546,0.01664
1619.29528,0.01604
1617.23511,0.01528
1615.17494,0.01500
1613.11477,0.01516
1611.05460,0.01522
1608.99442,0.01499
1606.93425,0.01457
1604.87408,0.01412
1602.81391,0.01372
1600.75373,0.01342
1598.69356,0.01319
1596.63339,0.01296
1594.57322,0.01273
1592.51305,0.01254
1590.45287,0.01229
1588.39270,0.01194
1586.33253,0.01165
1584.27236,0.01158
1582.21219,0.01160
1580.15201,0.01143
1578.09184,0.01110
1576.03167,0.01094
1573.97150,0.01092
1571.91133,0.01057
1569.85115,0.01004
1567.79098,0.00996
1565.73081,0.01018
1563.67064,0.01023
1561.61046,0.00989
1559.55029,0.00950
1557.49012,0.00988
1555.42995,0.01045
1553.36978,0.01058
1551.30960,0.01045
1549.24943,0.01028
1547.18926,0.01017
1545.12909,0.01008
1543.06892,0.00979
1541.00874,0.00924
1538.94857,0.00892
1536.88840,0.00892
1534.82823,0.00879
1532.76805,0.00844
1530.70788,0.00823
1528.64771,0.00823
1526.58754,0.00824
1524.52737,0.00809
1522.46719,0.00779
1520.40702,0.00761
1518.34685,0.00755
1516.28668,0.00748
1514.22651,0.00739
1512.16633,0.00740
1510.10616,0.00741
1508.04599,0.00717
1505.98582,0.00661
1503.92565,0.00616
1501.86547,0.00599
1499.80530,0.00585
1497.74513,0.00559
1495.68496,0.00530
1493.62478,0.00500
1491.56461,0.00483
1489.50444,0.00494
1487.44427,0.00508
1485.38410,0.00505
1483.32392,0.00507
1481.26375,0.00519
1479.20358,0.00528
1477.14341,0.00528
1475.08324,0.00523
1473.02306,0.00523
1470.96289,0.00541
1468.90272,0.00553
1466.84255,0.00550
1464.78238,0.00556
1462.72220,0.00584
1460.66203,0.00616
1458.60186,0.00634
1456.54169,0.00622
1454.48151,0.00593
1452.42134,0.00581
1450.36117,0.00578
1448.30100,0.00574
1446.24083,0.00574
1444.18065,0.00575
1442.12048,0.00575
1440.06031,0.00577
1438.00014,0.00585
1435.93997,0.00598
1433.87979,0.00604
1431.81962,0.00595
1429.75945,0.00590
1427.69928,0.00601
1425.63910,0.00616
1423.57893,0.00631
1421.51876,0.00655
1419.45859,0.00691
1417.39842,0.00711
1415.33824,0.00693
1413.27807,0.00675
1411.21790,0.00683
1409.15773,0.00693
1407.09756,0.00687
1405.03738,0.00675
1402.97721,0.00666
1400.91704,0.00660
1398.85687,0.00661
1396.79670,0.00660
1394.73652,0.00644
1392.67635,0.00618
1390.61618,0.00602
1388.55601,0.00595
1386.49583,0.00575
1384.43566,0.00550
1382.37549,0.00539
1380.31532,0.00532
1378.25515,0.00521
1376.19497,0.00514
1374.13480,0.00507
1372.07463,0.00491
1370.01446,0.00480
1367.95429,0.00481
1365.89411,0.00480
1363.83394,0.00464
1361.77377,0.00439
1359.71360,0.00417
1357.65343,0.00407
1355.59325,0.00404
1353.53308,0.00390
1351.47291,0.00361
1349.41274,0.00334
1347.35256,0.00318
1345.29239,0.00314
1343.23222,0.00322
1341.17205,0.00348
1339.11188,0.00371
1337.05170,0.00350
1334.99153,0.00306
1332.93136,0.00286
1330.87119,0.00300
1328.81102,0.00322
1326.75084,0.00336
1324.69067,0.00348
1322.63050,0.00354
1320.57033,0.00338
1318.51015,0.00320
1316.44998,0.00321
1314.38981,0.00323
1312.32964,0.00319
1310.26947,0.00323
1308.20929,0.00338
1306.14912,0.00344
1304.08895,0.00335
1302.02878,0.00327
1299.96861,0.00339
1297.90843,0.00364
1295.84826,0.00380
1293.78809,0.00382
1291.72792,0.00387
1289.66775,0.00396
1287.60757,0.00399
1285.54740,0.00399
1283.48723,0.00398
1281.42706,0.00394
1279.36688,0.00394
1277.30671,0.00402
1275.24654,0.00414
1273.18637,0.00424
1271.12620,0.00427
1269.06602,0.00417
1267.00585,0.00399
1264.94568,0.00394
1262.88551,0.00413
1260.82534,0.00437
1258.76516,0.00440
1256.70499,0.00431
1254.64482,0.00429
1252.58465,0.00430
1250.52447,0.00422
1248.46430,0.00413
1246.40413,0.00421
1244.34396,0.00434
1242.28379,0.00422
1240.22361,0.00393
1238.16344,0.00372
1236.10327,0.00366
1234.04310,0.00355
1231.98293,0.00323
1229.92275,0.00298
1227.86258,0.00286
1225.80241,0.00271
1223.74224,0.00248
1221.68207,0.00221
1219.62189,0.00199
1217.56172,0.00185
1215.50155,0.00173
1213.44138,0.00150
1211.38120,0.00124
1209.32103,0.00119
1207.26086,0.00122
1205.20069,0.00106
1203.14052,0.00077
1201.08034,0.00058
1199.02017,0.00046
1196.96000,0.00034
1194.89983,0.00019
1192.83966,0.00000
1190.77948,-0.00003
1188.71931,0.00013
1186.65914,0.00027
1184.59897,0.00035
1182.53880,0.00055
1180.47862,0.00092
1178.41845,0.00126
1176.35828,0.00139
1174.29811,0.00143
1172.23793,0.00166
1170.17776,0.00213
1168.11759,0.00264
1166.05742,0.00297
1163.99725,0.00324
1161.93707,0.00363
1159.87690,0.00411
1157.81673,0.00467
1155.75656,0.00529
1153.69639,0.00587
1151.63621,0.00649
1149.57604,0.00723
1147.51587,0.00793
1145.45570,0.00836
1143.39552,0.00883
1141.33535,0.00973
1139.27518,0.01089
1137.21501,0.01207
1135.15484,0.01329
1133.09466,0.01458
1131.03449,0.01594
1128.97432,0.01730
1126.91415,0.01842
1124.85398,0.01943
1122.79380,0.02068
1120.73363,0.02217
1118.67346,0.02360
1116.61329,0.02468
1114.55312,0.02569
1112.49294,0.02702
1110.43277,0.02849
1108.37260,0.02974
1106.31243,0.03080
1104.25225,0.03196
1102.19208,0.03335
1100.13191,0.03470
1098.07174,0.03572
1096.01157,0.03638
1093.95139,0.03700
1091.89122,0.03778
1089.83105,0.03861
1087.77088,0.03942
1085.71071,0.04031
1083.65053,0.04117
1081.59036,0.04190
1079.53019,0.04267
1077.47002,0.04360
1075.40985,0.04445
1073.34967,0.04478
1071.28950,0.04465
1069.22933,0.04468
1067.16916,0.04492
1065.10898,0.04485
1063.04881,0.04432
1060.98864,0.04371
1058.92847,0.04326
1056.86830,0.04274
1054.80812,0.04169
1052.74795,0.04009
1050.68778,0.03845
1048.62761,0.03703
1046.56744,0.03559
1044.50726,0.03371
1042.44709,0.03153
1040.38692,0.02961
1038.32675,0.02803
1036.26657,0.02650
1034.20640,0.02497
1032.14623,0.02345
1030.08606,0.02200
1028.02589,0.02082
1025.96571,0.01981
1023.90554,0.01875
1021.84537,0.01783
1019.78520,0.01714
1017.72503,0.01664
1015.66485,0.01636
1013.60468,0.01614
1011.54451,0.01596
1009.48434,0.01610
1007.42417,0.01654
1005.36399,0.01719
1003.30382,0.01797
1001.24365,0.01875
999.18348,0.01950
997.12330,0.02002
995.06313,0.02052
993.00296,0.02158
990.94279,0.02265
988.88262,0.02319
986.82244,0.02372
984.76227,0.02421
982.70210,0.02438
980.64193,0.02438
978.58176,0.02404
976.52158,0.02326
974.46141,0.02243
972.40124,0.02181
970.34107,0.02110
968.28089,0.02000
966.22072,0.01881
964.16055,0.01772
962.10038,0.01664
960.04021,0.01551
957.98003,0.01430
955.91986,0.01319
953.85969,0.01219
951.79952,0.01119
949.73935,0.01030
947.67917,0.00942
945.61900,0.00836
943.55883,0.00730
941.49866,0.00633
939.43849,0.00535
937.37831,0.00452
935.31814,0.00404
933.25797,0.00386
931.19780,0.00373
929.13762,0.00341
927.07745,0.00307
925.01728,0.00299
922.95711,0.00290
920.89694,0.00234
918.83676,0.00158
916.77659,0.00126
914.71642,0.00139
912.65625,0.00149
910.59608,0.00136
908.53590,0.00124
906.47573,0.00136
904.41556,0.00173
902.35539,0.00206
900.29522,0.00210
898.23504,0.00214
896.17487,0.00214
894.11470,0.00214
892.05453,0.00258
889.99435,0.00325
887.93418,0.00391
885.87401,0.00459
883.81384,0.00516
881.75367,0.00566
879.69349,0.00616
877.63332,0.00660
875.57315,0.00692
873.51298,0.00703
871.45281,0.00708
869.39263,0.00759
867.33246,0.00820
865.27229,0.00830
863.21212,0.00846
861.15194,0.00895
859.09177,0.00919
857.03160,0.00910
854.97143,0.00891
852.91126,0.00873
850.85108,0.00857
848.79091,0.00828
846.73074,0.00795
844.67057,0.00766
842.61040,0.00740
840.55022,0.00720
838.49005,0.00696
836.42988,0.00669
834.36971,0.00621
832.30954,0.00571
830.24936,0.00558
828.18919,0.00533
826.12902,0.00468
824.06885,0.00417
822.00867,0.00389
819.94850,0.00355
817.88833,0.00299
815.82816,0.00229
813.76799,0.00182
811.70781,0.00202
809.64764,0.00273
807.58747,0.00335
805.52730,0.00357
803.46713,0.00331
801.40695,0.00281
799.34678,0.00230
797.28661,0.00158
795.22644,0.00092
793.16627,0.00081
791.10609,0.00087
789.04592,0.00091
786.98575,0.00109
784.92558,0.00126
782.86540,0.00136
780.80523,0.00164
778.74506,0.00193
776.68489,0.00165
774.62472,0.00097
772.56454,0.00062
770.50437,0.00057
768.44420,0.00080
766.38403,0.00145
764.32386,0.00166
762.26368,0.00114
760.20351,0.00049
758.14334,0.00027
756.08317,0.00033
754.02299,0.00014
751.96282,0.00028
749.90265,0.00075
747.84248,0.00090
745.78231,0.00096
743.72213,0.00097
741.66196,0.00071
739.60179,0.00060
737.54162,0.00077
735.48145,0.00095
733.42127,0.00110
731.36110,0.00120
729.30093,0.00150
727.24076,0.00189
725.18059,0.00187
723.12041,0.00153
721.06024,0.00107
719.00007,0.00112
716.93990,0.00120
714.87972,0.00073
712.81955,0.00044
710.75938,0.00089
708.69921,0.00157
706.63904,0.00175
704.57886,0.00166
702.51869,0.00189
700.45852,0.00222
698.39835,0.00275
696.33818,0.00352
694.27800,0.00349
692.21783,0.00223
690.15766,0.00092
688.09749,0.00025
686.03731,0.00000
683.97714,0.00006
681.91697,0.00021
679.85680,-0.00011
677.79663,-0.00023
675.73645,0.00036
673.67628,0.00051
671.61611,-0.00015
669.55594,0.00176
667.49577,0.00427
665.43559,0.00062
663.37542,0.00068
661.31525,0.00167
659.25508,0.00179
657.19491,0.00151
655.13473,0.00125
653.07456,0.00092
651.01439,0.00030
648.95422,0.00000
646.89404,0.00054
644.83387,0.00167
642.77370,0.00209
640.71353,0.00143
638.65336,0.00058
636.59318,0.00027
634.53301,0.00073
632.47284,0.00145
630.41267,0.00118
628.35250,-0.00005
626.29232,-0.00083
624.23215,-0.00025
622.17198,0.00044
620.11181,-0.00073
618.05164,-0.00318
615.99146,-0.00461
613.93129,-0.00427
611.87112,-0.00326
609.81095,-0.00309
607.75077,-0.00368
605.69060,-0.00428
603.63043,-0.00378
601.57026,-0.00179
599.51009,0.00000
