3996.73391,0.00078
3994.67373,0.00074
3992.61356,0.00084
3990.55339,0.00100
3988.49322,0.00092
3986.43305,0.00057
3984.37287,0.00032
3982.31270,0.00036
3980.25253,0.00052
3978.19236,0.00058
3976.13219,0.00051
3974.07201,0.00050
3972.01184,0.00070
3969.95167,0.00096
3967.89150,0.00104
3965.83133,0.00097
3963.77115,0.00089
3961.71098,0.00082
3959.65081,0.00081
3957.59064,0.00091
3955.53046,0.00110
3953.47029,0.00115
3951.41012,0.00071
3949.34995,0.00004
3947.28978,0.00000
3945.22960,0.00053
3943.16943,0.00075
3941.10926,0.00072
3939.04909,0.00095
3936.98892,0.00118
3934.92874,0.00105
3932.86857,0.00058
3930.80840,0.00026
3928.74823,0.00048
3926.68805,0.00085
3924.62788,0.00090
3922.56771,0.00081
3920.50754,0.00067
3918.44737,0.00033
3916.38719,0.00034
3914.32702,0.00103
3912.26685,0.00183
3910.20668,0.00230
3908.14651,0.00233
3906.08633,0.00182
3904.02616,0.00085
3901.96599,0.00008
3899.90582,0.00000
3897.84565,0.00041
3895.78547,0.00103
3893.72530,0.00131
3891.66513,0.00095
3889.60496,0.00068
3887.54478,0.00084
3885.48461,0.00079
3883.42444,0.00044
3881.36427,0.00027
3879.30410,0.00040
3877.24392,0.00087
3875.18375,0.00136
3873.12358,0.00147
3871.06341,0.00114
3869.00324,0.00074
3866.94306,0.00078
3864.88289,0.00078
3862.82272,0.00033
3860.76255,0.00005
3858.70237,0.00039
3856.64220,0.00119
3854.58203,0.00175
3852.52186,0.00111
3850.46169,0.00041
3848.40151,0.00048
3846.34134,0.00103
3844.28117,0.00153
3842.22100,0.00171
3840.16083,0.00164
3838.10065,0.00136
3836.04048,0.00121
3833.98031,0.00132
3831.92014,0.00130
3829.85997,0.00123
3827.79979,0.00132
3825.73962,0.00153
3823.67945,0.00198
3821.61928,0.00229
3819.55910,0.00203
3817.49893,0.00174
3815.43876,0.00131
3813.37859,0.00104
3811.31842,0.00144
3809.25824,0.00212
3807.19807,0.00217
3805.13790,0.00188
3803.07773,0.00219
3801.01756,0.00247
3798.95738,0.00213
3796.89721,0.00152
3794.83704,0.00105
3792.77687,0.00097
3790.71670,0.00127
3788.65652,0.00181
3786.59635,0.00233
3784.53618,0.00252
3782.47601,0.00253
3780.41583,0.00243
3778.35566,0.00206
3776.29549,0.00186
3774.23532,0.00218
3772.17515,0.00273
3770.11497,0.00282
3768.05480,0.00233
3765.99463,0.00194
3763.93446,0.00197
3761.87429,0.00224
3759.81411,0.00213
3757.75394,0.00160
3755.69377,0.00151
3753.63360,0.00187
3751.57342,0.00166
3749.51325,0.00058
3747.45308,0.00014
3745.39291,0.00015
3743.33274,0.00000
3741.27256,0.00017
3739.21239,0.00084
3737.15222,0.00124
3735.09205,0.00076
3733.03188,0.00048
3730.97170,0.00088
3728.91153,0.00121
3726.85136,0.00109
3724.79119,0.00069
3722.73102,0.00051
3720.67084,0.00086
3718.61067,0.00117
3716.55050,0.00126
3714.49033,0.00149
3712.43015,0.00172
3710.36998,0.00149
3708.30981,0.00141
3706.24964,0.00195
3704.18947,0.00261
3702.12929,0.00273
3700.06912,0.00249
3698.00895,0.00252
3695.94878,0.00284
3693.88861,0.00323
3691.82843,0.00355
3689.76826,0.00308
3687.70809,0.00206
3685.64792,0.00182
3683.58775,0.00226
3681.52757,0.00282
3679.46740,0.00315
3677.40723,0.00274
3675.34706,0.00173
3673.28688,0.00146
3671.22671,0.00178
3669.16654,0.00161
3667.10637,0.00150
3665.04620,0.00209
3662.98602,0.00281
3660.92585,0.00309
3658.86568,0.00310
3656.80551,0.00302
3654.74534,0.00296
3652.68516,0.00327
3650.62499,0.00339
3648.56482,0.00242
3646.50465,0.00175
3644.44447,0.00201
3642.38430,0.00267
3640.32413,0.00329
3638.26396,0.00369
3636.20379,0.00379
3634.14361,0.00365
3632.08344,0.00341
3630.02327,0.00309
3627.96310,0.00289
3625.90293,0.00328
3623.84275,0.00401
3621.78258,0.00457
3619.72241,0.00466
3617.66224,0.00440
3615.60207,0.00416
3613.54189,0.00381
3611.48172,0.00333
3609.42155,0.00330
3607.36138,0.00399
3605.30120,0.00503
3603.24103,0.00593
3601.18086,0.00648
3599.12069,0.00676
3597.06052,0.00681
3595.00034,0.00667
3592.94017,0.00668
3590.88000,0.00681
3588.81983,0.00639
3586.75966,0.00580
3584.69948,0.00618
3582.63931,0.00716
3580.57914,0.00791
3578.51897,0.00821
3576.45879,0.00824
3574.39862,0.00823
3572.33845,0.00825
3570.27828,0.00813
3568.21811,0.00758
3566.15793,0.00716
3564.09776,0.00775
3562.03759,0.00863
3559.97742,0.00927
3557.91725,0.00974
3555.85707,0.00993
3553.79690,0.00991
3551.73673,0.00992
3549.67656,0.00984
3547.61639,0.00944
3545.55621,0.00904
3543.49604,0.00923
3541.43587,0.00985
3539.37570,0.01037
3537.31552,0.01056
3535.25535,0.01067
3533.19518,0.01100
3531.13501,0.01138
3529.07484,0.01142
3527.01466,0.01112
3524.95449,0.01105
3522.89432,0.01148
3520.83415,0.01203
3518.77398,0.01240
3516.71380,0.01266
3514.65363,0.01282
3512.59346,0.01276
3510.53329,0.01264
3508.47312,0.01278
3506.41294,0.01301
3504.35277,0.01291
3502.29260,0.01265
3500.23243,0.01300
3498.17225,0.01385
3496.11208,0.01446
3494.05191,0.01460
3491.99174,0.01451
3489.93157,0.01448
3487.87139,0.01474
3485.81122,0.01521
3483.75105,0.01538
3481.69088,0.01512
3479.63071,0.01497
3477.57053,0.01522
3475.51036,0.01554
3473.45019,0.01579
3471.39002,0.01593
3469.32984,0.01585
3467.26967,0.01569
3465.20950,0.01563
3463.14933,0.01583
3461.08916,0.01615
3459.02898,0.01629
3456.96881,0.01621
3454.90864,0.01627
3452.84847,0.01656
3450.78830,0.01673
3448.72812,0.01663
3446.66795,0.01651
3444.60778,0.01666
3442.54761,0.01703
3440.48744,0.01732
3438.42726,0.01743
3436.36709,0.01756
3434.30692,0.01771
3432.24675,0.01775
3430.18657,0.01764
3428.12640,0.01753
3426.06623,0.01772
3424.00606,0.01794
3421.94589,0.01786
3419.88571,0.01784
3417.82554,0.01821
3415.76537,0.01854
3413.70520,0.01853
3411.64503,0.01827
3409.58485,0.01805
3407.52468,0.01821
3405.46451,0.01870
3403.40434,0.01905
3401.34416,0.01912
3399.28399,0.01873
3397.22382,0.01868
3395.16365,0.01862
3393.10348,0.01866
3391.04330,0.01887
3388.98313,0.01894
3386.92296,0.01891
3384.86279,0.01913
3382.80262,0.01942
3380.74244,0.01947
3378.68227,0.01938
3376.62210,0.01934
3374.56193,0.01940
3372.50176,0.01950
3370.44158,0.01951
3368.38141,0.01946
3366.32124,0.01953
3364.26107,0.01959
3362.20089,0.01948
3360.14072,0.01942
3358.08055,0.01958
3356.02038,0.01976
3353.96021,0.01990
3351.90003,0.02001
3349.83986,0.02005
3347.77969,0.02009
3345.71952,0.02017
3343.65935,0.02026
3341.59917,0.02033
3339.53900,0.02025
3337.47883,0.02010
3335.41866,0.02016
3333.35849,0.02042
3331.29831,0.02051
3329.23814,0.02038
3327.17797,0.02022
3325.11780,0.02016
3323.05762,0.02022
3320.99745,0.02044
3318.93728,0.02078
3316.87711,0.02100
3314.81694,0.02098
3312.75676,0.02085
3310.69659,0.02085
3308.63642,0.02095
3306.57625,0.02090
3304.51608,0.02083
3302.45590,0.02098
3300.39573,0.02114
3298.33556,0.02106
3296.27539,0.02098
3294.21521,0.02114
3292.15504,0.02129
3290.09487,0.02121
3288.03470,0.02116
3285.97453,0.02116
3283.91435,0.02106
3281.85418,0.02102
3279.79401,0.02106
3277.73384,0.02090
3275.67367,0.02064
3273.61349,0.02068
3271.55332,0.02095
3269.49315,0.02109
3267.43298,0.02108
3265.37281,0.02108
3263.31263,0.02112
3261.25246,0.02110
3259.19229,0.02101
3257.13212,0.02091
3255.07194,0.02077
3253.01177,0.02072
3250.95160,0.02081
3248.89143,0.02087
3246.83126,0.02094
3244.77108,0.02109
3242.71091,0.02124
3240.65074,0.02123
3238.59057,0.02110
3236.53040,0.02109
3234.47022,0.02121
3232.41005,0.02117
3230.34988,0.02090
3228.28971,0.02067
3226.22954,0.02065
3224.16936,0.02059
3222.10919,0.02050
3220.04902,0.02058
3217.98885,0.02074
3215.92867,0.02087
3213.86850,0.02092
3211.80833,0.02081
3209.74816,0.02059
3207.68799,0.02054
3205.62781,0.02064
3203.56764,0.02061
3201.50747,0.02046
3199.44730,0.02047
3197.38713,0.02059
3195.32695,0.02046
3193.26678,0.02001
3191.20661,0.01971
3189.14644,0.01976
3187.08626,0.01989
3185.02609,0.02005
3182.96592,0.02022
3180.90575,0.02009
3178.84558,0.01971
3176.78540,0.01951
3174.72523,0.01947
3172.66506,0.01935
3170.60489,0.01927
3168.54472,0.01930
3166.48454,0.01926
3164.42437,0.01913
3162.36420,0.01915
3160.30403,0.01938
3158.24386,0.01955
3156.18368,0.01958
3154.12351,0.01960
3152.06334,0.01960
3150.00317,0.01953
3147.94299,0.01943
3145.88282,0.01931
3143.82265,0.01917
3141.76248,0.01905
3139.70231,0.01899
3137.64213,0.01893
3135.58196,0.01886
3133.52179,0.01880
3131.46162,0.01877
3129.40145,0.01869
3127.34127,0.01866
3125.28110,0.01862
3123.22093,0.01844
3121.16076,0.01837
3119.10058,0.01854
3117.04041,0.01862
3114.98024,0.01837
3112.92007,0.01793
3110.85990,0.01767
3108.79972,0.01779
3106.73955,0.01802
3104.67938,0.01798
3102.61921,0.01775
3100.55904,0.01756
3098.49886,0.01751
3096.43869,0.01751
3094.37852,0.01743
3092.31835,0.01735
3090.25818,0.01742
3088.19800,0.01756
3086.13783,0.01757
3084.07766,0.01736
3082.01749,0.01705
3079.95731,0.01684
3077.89714,0.01689
3075.83697,0.01715
3073.77680,0.01734
3071.71663,0.01729
3069.65645,0.01706
3067.59628,0.01675
3065.53611,0.01651
3063.47594,0.01635
3061.41577,0.01625
3059.35559,0.01622
3057.29542,0.01623
3055.23525,0.01625
3053.17508,0.01626
3051.11491,0.01620
3049.05473,0.01604
3046.99456,0.01587
3044.93439,0.01582
3042.87422,0.01587
3040.81404,0.01585
3038.75387,0.01564
3036.69370,0.01532
3034.63353,0.01504
3032.57336,0.01483
3030.51318,0.01477
3028.45301,0.01482
3026.39284,0.01484
3024.33267,0.01495
3022.27250,0.01519
3020.21232,0.01528
3018.15215,0.01517
3016.09198,0.01491
3014.03181,0.01462
3011.97163,0.01439
3009.91146,0.01437
3007.85129,0.01446
3005.79112,0.01428
3003.73095,0.01390
3001.67077,0.01380
2999.61060,0.01413
2997.55043,0.01440
2995.49026,0.01442
2993.43009,0.01424
2991.36991,0.01414
2989.30974,0.01408
2987.24957,0.01387
2985.18940,0.01368
2983.12923,0.01372
2981.06905,0.01393
2979.00888,0.01417
2976.94871,0.01432
2974.88854,0.01427
2972.82836,0.01410
2970.76819,0.01396
2968.70802,0.01391
2966.64785,0.01394
2964.58768,0.01399
2962.52750,0.01396
2960.46733,0.01374
2958.40716,0.01358
2956.34699,0.01363
2954.28682,0.01370
2952.22664,0.01372
2950.16647,0.01372
2948.10630,0.01378
2946.04613,0.01392
2943.98596,0.01399
2941.92578,0.01392
2939.86561,0.01388
2937.80544,0.01378
2935.74527,0.01369
2933.68509,0.01374
2931.62492,0.01372
2929.56475,0.01358
2927.50458,0.01354
2925.44441,0.01363
2923.38423,0.01370
2921.32406,0.01369
2919.26389,0.01368
2917.20372,0.01361
2915.14355,0.01340
2913.08337,0.01326
2911.02320,0.01330
2908.96303,0.01327
2906.90286,0.01314
2904.84268,0.01305
2902.78251,0.01300
2900.72234,0.01292
2898.66217,0.01278
2896.60200,0.01264
2894.54182,0.01252
2892.48165,0.01249
2890.42148,0.01266
2888.36131,0.01284
2886.30114,0.01283
2884.24096,0.01263
2882.18079,0.01234
2880.12062,0.01212
2878.06045,0.01211
2876.00028,0.01222
2873.94010,0.01232
2871.87993,0.01232
2869.81976,0.01219
2867.75959,0.01206
2865.69941,0.01206
2863.63924,0.01207
2861.57907,0.01203
2859.51890,0.01198
2857.45873,0.01177
2855.39855,0.01146
2853.33838,0.01132
2851.27821,0.01135
2849.21804,0.01139
2847.15787,0.01136
2845.09769,0.01125
2843.03752,0.01100
2840.97735,0.01077
2838.91718,0.01080
2836.85700,0.01092
2834.79683,0.01088
2832.73666,0.01078
2830.67649,0.01067
2828.61632,0.01058
2826.55614,0.01056
2824.49597,0.01055
2822.43580,0.01049
2820.37563,0.01027
2818.31546,0.01005
2816.25528,0.01011
2814.19511,0.01012
2812.13494,0.00999
2810.07477,0.01001
2808.01460,0.01002
2805.95442,0.00987
2803.89425,0.00972
2801.83408,0.00964
2799.77391,0.00970
2797.71373,0.00991
2795.65356,0.01004
2793.59339,0.00995
2791.53322,0.00986
2789.47305,0.00978
2787.41287,0.00960
2785.35270,0.00942
2783.29253,0.00931
2781.23236,0.00926
2779.17219,0.00931
2777.11201,0.00931
2775.05184,0.00911
2772.99167,0.00885
2770.93150,0.00879
2768.87133,0.00892
2766.81115,0.00900
2764.75098,0.00884
2762.69081,0.00862
2760.63064,0.00862
2758.57046,0.00879
2756.51029,0.00879
2754.45012,0.00859
2752.38995,0.00844
2750.32978,0.00839
2748.26960,0.00838
2746.20943,0.00848
2744.14926,0.00857
2742.08909,0.00847
2740.02892,0.00821
2737.96874,0.00798
2735.90857,0.00792
2733.84840,0.00801
2731.78823,0.00800
2729.72805,0.00794
2727.66788,0.00812
2725.60771,0.00836
2723.54754,0.00826
2721.48737,0.00791
2719.42719,0.00771
2717.36702,0.00774
2715.30685,0.00775
2713.24668,0.00763
2711.18651,0.00752
2709.12633,0.00754
2707.06616,0.00759
2705.00599,0.00751
2702.94582,0.00734
2700.88565,0.00722
2698.82547,0.00725
2696.76530,0.00734
2694.70513,0.00736
2692.64496,0.00735
2690.58478,0.00732
2688.52461,0.00721
2686.46444,0.00709
2684.40427,0.00698
2682.34410,0.00689
2680.28392,0.00690
2678.22375,0.00695
2676.16358,0.00696
2674.10341,0.00695
2672.04324,0.00698
2669.98306,0.00702
2667.92289,0.00697
2665.86272,0.00689
2663.80255,0.00694
2661.74238,0.00707
2659.68220,0.00713
2657.62203,0.00708
2655.56186,0.00699
2653.50169,0.00687
2651.44151,0.00685
2649.38134,0.00695
2647.32117,0.00699
2645.26100,0.00687
2643.20083,0.00664
2641.14065,0.00652
2639.08048,0.00657
2637.02031,0.00667
2634.96014,0.00678
2632.89997,0.00675
2630.83979,0.00658
2628.77962,0.00647
2626.71945,0.00648
2624.65928,0.00655
2622.59910,0.00649
2620.53893,0.00633
2618.47876,0.00618
2616.41859,0.00606
2614.35842,0.00600
2612.29824,0.00595
2610.23807,0.00595
2608.17790,0.00600
2606.11773,0.00604
2604.05756,0.00614
2601.99738,0.00623
2599.93721,0.00610
2597.87704,0.00596
2595.81687,0.00596
2593.75670,0.00595
2591.69652,0.00597
2589.63635,0.00602
2587.57618,0.00601
2585.51601,0.00600
2583.45583,0.00599
2581.39566,0.00577
2579.33549,0.00541
2577.27532,0.00529
2575.21515,0.00545
2573.15497,0.00558
2571.09480,0.00567
2569.03463,0.00574
2566.97446,0.00552
2564.91429,0.00536
2562.85411,0.00552
2560.79394,0.00573
2558.73377,0.00580
2556.67360,0.00575
2554.61342,0.00572
2552.55325,0.00590
2550.49308,0.00602
2548.43291,0.00581
2546.37274,0.00553
2544.31256,0.00547
2542.25239,0.00565
2540.19222,0.00583
2538.13205,0.00590
2536.07188,0.00575
2534.01170,0.00544
2531.95153,0.00535
2529.89136,0.00544
2527.83119,0.00532
2525.77102,0.00498
2523.71084,0.00495
2521.65067,0.00532
2519.59050,0.00556
2517.53033,0.00566
2515.47015,0.00574
2513.40998,0.00574
2511.34981,0.00575
2509.28964,0.00583
2507.22947,0.00574
2505.16929,0.00556
2503.10912,0.00559
2501.04895,0.00567
2498.98878,0.00573
2496.92861,0.00592
2494.86843,0.00584
2492.80826,0.00552
2490.74809,0.00531
2488.68792,0.00517
2486.62775,0.00527
2484.56757,0.00554
2482.50740,0.00559
2480.44723,0.00546
2478.38706,0.00543
2476.32688,0.00557
2474.26671,0.00571
2472.20654,0.00573
2470.14637,0.00567
2468.08620,0.00591
2466.02602,0.00648
2463.96585,0.00662
2461.90568,0.00618
2459.84551,0.00587
2457.78534,0.00604
2455.72516,0.00633
2453.66499,0.00627
2451.60482,0.00602
2449.54465,0.00599
2447.48447,0.00594
2445.42430,0.00576
2443.36413,0.00578
2441.30396,0.00588
2439.24379,0.00585
2437.18361,0.00591
2435.12344,0.00603
2433.06327,0.00598
2431.00310,0.00572
2428.94293,0.00545
2426.88275,0.00541
2424.82258,0.00561
2422.76241,0.00575
2420.70224,0.00564
2418.64207,0.00537
2416.58189,0.00527
2414.52172,0.00540
2412.46155,0.00551
2410.40138,0.00563
2408.34120,0.00564
2406.28103,0.00535
2404.22086,0.00512
2402.16069,0.00525
2400.10052,0.00534
2398.04034,0.00494
2395.98017,0.00476
2393.92000,0.00501
2391.85983,0.00528
2389.79966,0.00528
2387.73948,0.00513
2385.67931,0.00501
2383.61914,0.00480
2381.55897,0.00433
2379.49880,0.00374
2377.43862,0.00335
2375.37845,0.00338
2373.31828,0.00432
2371.25811,0.00574
2369.19793,0.00664
2367.13776,0.00798
2365.07759,0.01048
2363.01742,0.01237
2360.95725,0.01414
2358.89707,0.01388
2356.83690,0.01158
2354.77673,0.00881
2352.71656,0.00738
2350.65639,0.00845
2348.59621,0.00938
2346.53604,0.00756
2344.47587,0.00843
2342.41570,0.01044
2340.35552,0.01145
2338.29535,0.01159
2336.23518,0.01090
2334.17501,0.00968
2332.11484,0.00811
2330.05466,0.00717
2327.99449,0.00702
2325.93432,0.00748
2323.87415,0.00689
2321.81398,0.00603
2319.75380,0.00492
2317.69363,0.00447
2315.63346,0.00438
2313.57329,0.00433
2311.51312,0.00398
2309.45294,0.00349
2307.39277,0.00355
2305.33260,0.00415
2303.27243,0.00487
2301.21225,0.00516
2299.15208,0.00515
2297.09191,0.00511
2295.03174,0.00525
2292.97157,0.00557
2290.91139,0.00584
2288.85122,0.00592
2286.79105,0.00578
2284.73088,0.00565
2282.67071,0.00565
2280.61053,0.00577
2278.55036,0.00588
2276.49019,0.00589
2274.43002,0.00575
2272.36984,0.00544
2270.30967,0.00518
2268.24950,0.00528
2266.18933,0.00570
2264.12916,0.00603
2262.06898,0.00602
2260.00881,0.00589
2257.94864,0.00596
2255.88847,0.00570
2253.82830,0.00492
2251.76812,0.00452
2249.70795,0.00475
2247.64778,0.00505
2245.58761,0.00516
2243.52744,0.00512
2241.46726,0.00499
2239.40709,0.00522
2237.34692,0.00574
2235.28675,0.00616
2233.22657,0.00622
2231.16640,0.00584
2229.10623,0.00534
2227.04606,0.00478
2224.98589,0.00421
2222.92571,0.00405
2220.86554,0.00396
2218.80537,0.00344
2216.74520,0.00321
2214.68503,0.00404
2212.62485,0.00519
2210.56468,0.00558
2208.50451,0.00557
2206.44434,0.00566
2204.38417,0.00547
2202.32399,0.00488
2200.26382,0.00423
2198.20365,0.00409
2196.14348,0.00485
2194.08330,0.00551
2192.02313,0.00532
2189.96296,0.00529
2187.90279,0.00600
2185.84262,0.00630
2183.78244,0.00509
2181.72227,0.00360
2179.66210,0.00331
2177.60193,0.00391
2175.54176,0.00449
2173.48158,0.00422
2171.42141,0.00357
2169.36124,0.00384
2167.30107,0.00471
2165.24089,0.00528
2163.18072,0.00518
2161.12055,0.00350
2159.06038,0.00102
2157.00021,0.00000
2154.94003,0.00057
2152.87986,0.00145
2150.81969,0.00167
2148.75952,0.00142
2146.69935,0.00094
2144.63917,0.00079
2142.57900,0.00146
2140.51883,0.00184
2138.45866,0.00171
2136.39849,0.00178
2134.33831,0.00159
2132.27814,0.00100
2130.21797,0.00058
2128.15780,0.00056
2126.09762,0.00109
2124.03745,0.00199
2121.97728,0.00268
2119.91711,0.00293
2117.85694,0.00295
2115.79676,0.00282
2113.73659,0.00271
2111.67642,0.00274
2109.61625,0.00280
2107.55608,0.00296
2105.49590,0.00332
2103.43573,0.00376
2101.37556,0.00373
2099.31539,0.00322
2097.25521,0.00276
2095.19504,0.00280
2093.13487,0.00300
2091.07470,0.00311
2089.01453,0.00309
2086.95435,0.00316
2084.89418,0.00342
2082.83401,0.00378
2080.77384,0.00431
2078.71367,0.00475
2076.65349,0.00454
2074.59332,0.00404
2072.53315,0.00391
2070.47298,0.00386
2068.41281,0.00366
2066.35263,0.00321
2064.29246,0.00243
2062.23229,0.00186
2060.17212,0.00228
2058.11194,0.00312
2056.05177,0.00326
2053.99160,0.00350
2051.93143,0.00423
2049.87126,0.00440
2047.81108,0.00406
2045.75091,0.00395
2043.69074,0.00440
2041.63057,0.00553
2039.57040,0.00634
2037.51022,0.00577
2035.45005,0.00419
2033.38988,0.00274
2031.32971,0.00202
2029.26954,0.00254
2027.20936,0.00385
2025.14919,0.00386
2023.08902,0.00260
2021.02885,0.00249
2018.96867,0.00332
2016.90850,0.00324
2014.84833,0.00274
2012.78816,0.00264
2010.72799,0.00261
2008.66781,0.00258
2006.60764,0.00246
2004.54747,0.00222
2002.48730,0.00175
2000.42713,0.00121
1998.36695,0.00159
1996.30678,0.00254
1994.24661,0.00276
1992.18644,0.00241
1990.12626,0.00240
1988.06609,0.00274
1986.00592,0.00272
1983.94575,0.00248
1981.88558,0.00348
1979.82540,0.00547
1977.76523,0.00607
1975.70506,0.00481
1973.64489,0.00332
1971.58472,0.00256
1969.52454,0.00212
1967.46437,0.00135
1965.40420,0.00052
1963.34403,0.00002
1961.28386,0.00000
1959.22368,0.00027
1957.16351,0.00037
1955.10334,0.00028
1953.04317,0.00018
1950.98299,0.00020
1948.92282,0.00076
1946.86265,0.00156
1944.80248,0.00154
1942.74231,0.00068
1940.68213,0.00031
1938.62196,0.00103
1936.56179,0.00188
1934.50162,0.00206
1932.44145,0.00183
1930.38127,0.00167
1928.32110,0.00148
1926.26093,0.00122
1924.20076,0.00129
1922.14059,0.00181
1920.08041,0.00233
1918.02024,0.00233
1915.96007,0.00187
1913.89990,0.00158
1911.83972,0.00166
1909.77955,0.00189
1907.71938,0.00228
1905.65921,0.00272
1903.59904,0.00291
1901.53886,0.00289
1899.47869,0.00280
1897.41852,0.00260
1895.35835,0.00224
1893.29818,0.00183
1891.23800,0.00169
1889.17783,0.00182
1887.11766,0.00202
1885.05749,0.00221
1882.99731,0.00229
1880.93714,0.00228
1878.87697,0.00215
1876.81680,0.00198
1874.75663,0.00190
1872.69645,0.00192
1870.63628,0.00205
1868.57611,0.00231
1866.51594,0.00258
1864.45577,0.00262
1862.39559,0.00236
1860.33542,0.00201
1858.27525,0.00193
1856.21508,0.00216
1854.15491,0.00224
1852.09473,0.00205
1850.03456,0.00191
1847.97439,0.00195
1845.91422,0.00187
1843.85404,0.00143
1841.79387,0.00114
1839.73370,0.00127
1837.67353,0.00146
1835.61336,0.00156
1833.55318,0.00172
1831.49301,0.00196
1829.43284,0.00210
1827.37267,0.00201
1825.31250,0.00186
1823.25232,0.00184
1821.19215,0.00186
1819.13198,0.00163
1817.07181,0.00134
1815.01163,0.00139
1812.95146,0.00160
1810.89129,0.00159
1808.83112,0.00149
1806.77095,0.00153
1804.71077,0.00153
1802.65060,0.00134
1800.59043,0.00128
1798.53026,0.00130
1796.47009,0.00125
1794.40991,0.00130
1792.34974,0.00137
1790.28957,0.00125
1788.22940,0.00113
1786.16923,0.00113
1784.10905,0.00130
1782.04888,0.00144
1779.98871,0.00137
1777.92854,0.00136
1775.86836,0.00175
1773.80819,0.00229
1771.74802,0.00226
1769.68785,0.00154
1767.62768,0.00112
1765.56750,0.00144
1763.50733,0.00189
1761.44716,0.00187
1759.38699,0.00157
1757.32682,0.00152
1755.26664,0.00174
1753.20647,0.00196
1751.14630,0.00202
1749.08613,0.00201
1747.02596,0.00205
1744.96578,0.00225
1742.90561,0.00274
1740.84544,0.00327
1738.78527,0.00341
1736.72509,0.00318
1734.66492,0.00277
1732.60475,0.00252
1730.54458,0.00265
1728.48441,0.00284
1726.42423,0.00289
1724.36406,0.00280
1722.30389,0.00287
1720.24372,0.00330
1718.18355,0.00360
1716.12337,0.00307
1714.06320,0.00240
1712.00303,0.00206
1709.94286,0.00219
1707.88268,0.00269
1705.82251,0.00302
1703.76234,0.00306
1701.70217,0.00341
1699.64200,0.00384
1697.58182,0.00394
1695.52165,0.00404
1693.46148,0.00423
1691.40131,0.00443
1689.34114,0.00482
1687.28096,0.00569
1685.22079,0.00699
1683.16062,0.00743
1681.10045,0.00701
1679.04028,0.00708
1676.98010,0.00780
1674.91993,0.00859
1672.85976,0.00923
1670.79959,0.00984
1668.73941,0.01018
1666.67924,0.01025
1664.61907,0.01056
1662.55890,0.01091
1660.49873,0.01079
1658.43855,0.01059
1656.37838,0.01101
1654.31821,0.01211
1652.25804,0.01277
1650.19787,0.01266
1648.13769,0.01268
1646.07752,0.01271
1644.01735,0.01200
1641.95718,0.01126
1639.89701,0.01128
1637.83683,0.01188
1635.77666,0.01207
1633.71649,0.01154
1631.65632,0.01112
1629.59614,0.01116
1627.53597,0.01131
1625.47580,0.01133
1623.41563,0.01129
1621.35546,0.01116
1619.29528,0.01131
1617.23511,0.01172
1615.17494,0.01166
1613.11477,0.01124
1611.05460,0.01106
1608.99442,0.01105
1606.93425,0.01098
1604.87408,0.01092
1602.81391,0.01083
1600.75373,0.01065
1598.69356,0.01057
1596.63339,0.01060
1594.57322,0.01048
1592.51305,0.01009
1590.45287,0.00964
1588.39270,0.00941
1586.33253,0.00932
1584.27236,0.00913
1582.21219,0.00883
1580.15201,0.00881
1578.09184,0.00914
1576.03167,0.00919
1573.97150,0.00856
1571.91133,0.00804
1569.85115,0.00780
1567.79098,0.00730
1565.73081,0.00674
1563.67064,0.00666
1561.61046,0.00729
1559.55029,0.00782
1557.49012,0.00691
1555.42995,0.00550
1553.36978,0.00452
1551.30960,0.00398
1549.24943,0.00369
1547.18926,0.00360
1545.12909,0.00383
1543.06892,0.00460
1541.00874,0.00553
1538.94857,0.00527
1536.88840,0.00425
1534.82823,0.00360
1532.76805,0.00329
1530.70788,0.00294
1528.64771,0.00261
1526.58754,0.00230
1524.52737,0.00217
1522.46719,0.00212
1520.40702,0.00169
1518.34685,0.00124
1516.28668,0.00094
1514.22651,0.00060
1512.16633,0.00021
1510.10616,0.00000
1508.04599,0.00044
1505.98582,0.00140
1503.92565,0.00159
1501.86547,0.00127
1499.80530,0.00141
1497.74513,0.00180
1495.68496,0.00186
1493.62478,0.00182
1491.56461,0.00178
1489.50444,0.00150
1487.44427,0.00129
1485.38410,0.00145
1483.32392,0.00176
1481.26375,0.00202
1479.20358,0.00216
1477.14341,0.00215
1475.08324,0.00205
1473.02306,0.00208
1470.96289,0.00233
1468.90272,0.00256
1466.84255,0.00285
1464.78238,0.00311
1462.72220,0.00314
1460.66203,0.00319
1458.60186,0.00328
1456.54169,0.00311
1454.48151,0.00295
1452.42134,0.00296
1450.36117,0.00321
1448.30100,0.00352
1446.24083,0.00372
1444.18065,0.00387
1442.12048,0.00402
1440.06031,0.00415
1438.00014,0.00416
1435.93997,0.00396
1433.87979,0.00384
1431.81962,0.00399
1429.75945,0.00439
1427.69928,0.00474
1425.63910,0.00493
1423.57893,0.00498
1421.51876,0.00491
1419.45859,0.00475
1417.39842,0.00479
1415.33824,0.00518
1413.27807,0.00555
1411.21790,0.00575
1409.15773,0.00592
1407.09756,0.00608
1405.03738,0.00606
1402.97721,0.00591
1400.91704,0.00568
1398.85687,0.00518
1396.79670,0.00469
1394.73652,0.00465
1392.67635,0.00485
1390.61618,0.00489
1388.55601,0.00478
1386.49583,0.00478
1384.43566,0.00501
1382.37549,0.00518
1380.31532,0.00517
1378.25515,0.00518
1376.19497,0.00524
1374.13480,0.00516
1372.07463,0.00497
1370.01446,0.00488
1367.95429,0.00490
1365.89411,0.00480
1363.83394,0.00449
1361.77377,0.00429
1359.71360,0.00443
1357.65343,0.00464
1355.59325,0.00473
1353.53308,0.00475
1351.47291,0.00471
1349.41274,0.00459
1347.35256,0.00445
1345.29239,0.00431
1343.23222,0.00400
1341.17205,0.00334
1339.11188,0.00274
1337.05170,0.00292
1334.99153,0.00363
1332.93136,0.00415
1330.87119,0.00419
1328.81102,0.00399
1326.75084,0.00385
1324.69067,0.00384
1322.63050,0.00380
1320.57033,0.00363
1318.51015,0.00341
1316.44998,0.00333
1314.38981,0.00342
1312.32964,0.00361
1310.26947,0.00386
1308.20929,0.00405
1306.14912,0.00412
1304.08895,0.00415
1302.02878,0.00417
1299.96861,0.00418
1297.90843,0.00412
1295.84826,0.00405
1293.78809,0.00408
1291.72792,0.00410
1289.66775,0.00404
1287.60757,0.00406
1285.54740,0.00418
1283.48723,0.00429
1281.42706,0.00434
1279.36688,0.00440
1277.30671,0.00443
1275.24654,0.00436
1273.18637,0.00430
1271.12620,0.00432
1269.06602,0.00430
1267.00585,0.00417
1264.94568,0.00411
1262.88551,0.00423
1260.82534,0.00444
1258.76516,0.00460
1256.70499,0.00464
1254.64482,0.00460
1252.58465,0.00463
1250.52447,0.00477
1248.46430,0.00489
1246.40413,0.00481
1244.34396,0.00455
1242.28379,0.00432
1240.22361,0.00423
1238.16344,0.00428
1236.10327,0.00437
1234.04310,0.00434
1231.98293,0.00419
1229.92275,0.00404
1227.86258,0.00397
1225.80241,0.00383
1223.74224,0.00354
1221.68207,0.00332
1219.62189,0.00320
1217.56172,0.00298
1215.50155,0.00266
1213.44138,0.00241
1211.38120,0.00233
1209.32103,0.00237
1207.26086,0.00233
1205.20069,0.00226
1203.14052,0.00229
1201.08034,0.00232
1199.02017,0.00225
1196.96000,0.00227
1194.89983,0.00243
1192.83966,0.00271
1190.77948,0.00298
1188.71931,0.00324
1186.65914,0.00363
1184.59897,0.00405
1182.53880,0.00440
1180.47862,0.00477
1178.41845,0.00511
1176.35828,0.00534
1174.29811,0.00565
1172.23793,0.00618
1170.17776,0.00681
1168.11759,0.00732
1166.05742,0.00764
1163.99725,0.00798
1161.93707,0.00847
1159.87690,0.00910
1157.81673,0.00973
1155.75656,0.01019
1153.69639,0.01053
1151.63621,0.01095
1149.57604,0.01145
1147.51587,0.01196
1145.45570,0.01247
1143.39552,0.01292
1141.33535,0.01344
1139.27518,0.01401
1137.21501,0.01447
1135.15484,0.01493
1133.09466,0.01548
1131.03449,0.01604
1128.97432,0.01673
1126.91415,0.01746
1124.85398,0.01808
1122.79380,0.01875
1120.73363,0.01948
1118.67346,0.02022
1116.61329,0.02095
1114.55312,0.02165
1112.49294,0.02232
1110.43277,0.02306
1108.37260,0.02381
1106.31243,0.02442
1104.25225,0.02500
1102.19208,0.02564
1100.13191,0.02630
1098.07174,0.02706
1096.01157,0.02781
1093.95139,0.02829
1091.89122,0.02852
1089.83105,0.02875
1087.77088,0.02917
1085.71071,0.02976
1083.65053,0.03025
1081.59036,0.03053
1079.53019,0.03080
1077.47002,0.03123
1075.40985,0.03167
1073.34967,0.03193
1071.28950,0.03199
1069.22933,0.03202
1067.16916,0.03203
1065.10898,0.03186
1063.04881,0.03157
1060.98864,0.03134
1058.92847,0.03112
1056.86830,0.03075
1054.80812,0.03017
1052.74795,0.02952
1050.68778,0.02891
1048.62761,0.02837
1046.56744,0.02781
1044.50726,0.02709
1042.44709,0.02631
1040.38692,0.02548
1038.32675,0.02449
1036.26657,0.02341
1034.20640,0.02241
1032.14623,0.02157
1030.08606,0.02076
1028.02589,0.01990
1025.96571,0.01909
1023.90554,0.01841
1021.84537,0.01775
1019.78520,0.01710
1017.72503,0.01660
1015.66485,0.01630
1013.60468,0.01610
1011.54451,0.01600
1009.48434,0.01593
1007.42417,0.01587
1005.36399,0.01599
1003.30382,0.01635
1001.24365,0.01685
999.18348,0.01729
997.12330,0.01767
995.06313,0.01821
993.00296,0.01887
990.94279,0.01950
988.88262,0.02002
986.82244,0.02034
984.76227,0.02049
982.70210,0.02055
980.64193,0.02058
978.58176,0.02062
976.52158,0.02054
974.46141,0.02024
972.40124,0.01983
970.34107,0.01937
968.28089,0.01878
966.22072,0.01827
964.16055,0.01797
962.10038,0.01763
960.04021,0.01713
957.98003,0.01648
955.91986,0.01580
953.85969,0.01523
951.79952,0.01476
949.73935,0.01425
947.67917,0.01378
945.61900,0.01335
943.55883,0.01286
941.49866,0.01237
939.43849,0.01184
937.37831,0.01129
935.31814,0.01081
933.25797,0.01033
931.19780,0.01005
929.13762,0.00996
927.07745,0.00981
925.01728,0.00962
922.95711,0.00942
920.89694,0.00914
918.83676,0.00874
916.77659,0.00819
914.71642,0.00771
912.65625,0.00737
910.59608,0.00703
908.53590,0.00678
906.47573,0.00671
904.41556,0.00671
902.35539,0.00679
900.29522,0.00700
898.23504,0.00727
896.17487,0.00739
894.11470,0.00749
892.05453,0.00782
889.99435,0.00823
887.93418,0.00845
885.87401,0.00841
883.81384,0.00841
881.75367,0.00879
879.69349,0.00947
877.63332,0.01009
875.57315,0.01057
873.51298,0.01119
871.45281,0.01180
869.39263,0.01218
867.33246,0.01250
865.27229,0.01288
863.21212,0.01317
861.15194,0.01329
859.09177,0.01347
857.03160,0.01393
854.97143,0.01424
852.91126,0.01413
850.85108,0.01395
848.79091,0.01366
846.73074,0.01336
844.67057,0.01320
842.61040,0.01274
840.55022,0.01205
838.49005,0.01172
836.42988,0.01175
834.36971,0.01153
832.30954,0.01080
830.24936,0.01029
828.18919,0.01028
826.12902,0.01011
824.06885,0.00970
822.00867,0.00925
819.94850,0.00875
817.88833,0.00843
815.82816,0.00831
813.76799,0.00817
811.70781,0.00792
809.64764,0.00768
807.58747,0.00759
805.52730,0.00756
803.46713,0.00742
801.40695,0.00718
799.34678,0.00683
797.28661,0.00645
795.22644,0.00631
793.16627,0.00632
791.10609,0.00629
789.04592,0.00662
786.98575,0.00721
784.92558,0.00738
782.86540,0.00712
780.80523,0.00684
778.74506,0.00658
776.68489,0.00639
774.62472,0.00636
772.56454,0.00632
770.50437,0.00615
768.44420,0.00595
766.38403,0.00597
764.32386,0.00610
762.26368,0.00588
760.20351,0.00556
758.14334,0.00548
756.08317,0.00538
754.02299,0.00537
751.96282,0.00566
749.90265,0.00579
747.84248,0.00560
745.78231,0.00567
743.72213,0.00590
741.66196,0.00563
739.60179,0.00530
737.54162,0.00552
735.48145,0.00583
733.42127,0.00583
731.36110,0.00575
729.30093,0.00581
727.24076,0.00585
725.18059,0.00547
723.12041,0.00512
721.06024,0.00475
719.00007,0.00519
716.93990,0.00542
714.87972,0.00522
712.81955,0.00517
710.75938,0.00523
708.69921,0.00527
706.63904,0.00549
704.57886,0.00589
702.51869,0.00614
700.45852,0.00611
698.39835,0.00587
696.33818,0.00568
694.27800,0.00591
692.21783,0.00614
690.15766,0.00583
688.09749,0.00574
686.03731,0.00666
683.97714,0.00782
681.91697,0.00833
679.85680,0.00864
677.79663,0.00933
675.73645,0.00990
673.67628,0.01022
671.61611,0.01053
669.55594,0.00714
667.49577,0.00339
665.43559,0.00846
663.37542,0.00807
661.31525,0.00743
659.25508,0.00848
657.19491,0.00918
655.13473,0.00842
653.07456,0.00754
651.01439,0.00752
648.95422,0.00747
646.89404,0.00701
644.83387,0.00643
642.77370,0.00629
640.71353,0.00622
638.65336,0.00566
636.59318,0.00498
634.53301,0.00493
632.47284,0.00489
630.41267,0.00368
628.35250,0.00201
626.29232,0.00195
624.23215,0.00377
622.17198,0.00529
620.11181,0.00468
618.05164,0.00375
615.99146,0.00460
613.93129,0.00540
611.87112,0.00408
609.81095,0.00153
607.75077,0.00000
605.69060,0.00045
603.63043,0.00166
601.57026,0.00116
599.51009,0.00000
