3996.73391,0.00014
3994.67373,0.00007
3992.61356,0.00006
3990.55339,0.00012
3988.49322,0.00014
3986.43305,0.00013
3984.37287,0.00020
3982.31270,0.00047
3980.25253,0.00080
3978.19236,0.00095
3976.13219,0.00082
3974.07201,0.00059
3972.01184,0.00054
3969.95167,0.00073
3967.89150,0.00106
3965.83133,0.00131
3963.77115,0.00119
3961.71098,0.00080
3959.65081,0.00053
3957.59064,0.00055
3955.53046,0.00072
3953.47029,0.00076
3951.41012,0.00049
3949.34995,0.00008
3947.28978,0.00000
3945.22960,0.00023
3943.16943,0.00038
3941.10926,0.00052
3939.04909,0.00073
3936.98892,0.00082
3934.92874,0.00073
3932.86857,0.00055
3930.80840,0.00053
3928.74823,0.00083
3926.68805,0.00125
3924.62788,0.00152
3922.56771,0.00162
3920.50754,0.00159
3918.44737,0.00138
3916.38719,0.00112
3914.32702,0.00106
3912.26685,0.00120
3910.20668,0.00135
3908.14651,0.00142
3906.08633,0.00138
3904.02616,0.00111
3901.96599,0.00074
3899.90582,0.00058
3897.84565,0.00065
3895.78547,0.00086
3893.72530,0.00113
3891.66513,0.00120
3889.60496,0.00097
3887.54478,0.00065
3885.48461,0.00043
3883.42444,0.00039
3881.36427,0.00048
3879.30410,0.00074
3877.24392,0.00108
3875.18375,0.00108
3873.12358,0.00065
3871.06341,0.00016
3869.00324,0.00000
3866.94306,0.00017
3864.88289,0.00047
3862.82272,0.00071
3860.76255,0.00086
3858.70237,0.00092
3856.64220,0.00086
3854.58203,0.00064
3852.52186,0.00042
3850.46169,0.00068
3848.40151,0.00104
3846.34134,0.00120
3844.28117,0.00125
3842.22100,0.00114
3840.16083,0.00082
3838.10065,0.00053
3836.04048,0.00074
3833.98031,0.00131
3831.92014,0.00177
3829.85997,0.00194
3827.79979,0.00186
3825.73962,0.00172
3823.67945,0.00172
3821.61928,0.00177
3819.55910,0.00179
3817.49893,0.00195
3815.43876,0.00217
3813.37859,0.00228
3811.31842,0.00225
3809.25824,0.00218
3807.19807,0.00213
3805.13790,0.00220
3803.07773,0.00242
3801.01756,0.00243
3798.95738,0.00223
3796.89721,0.00208
3794.83704,0.00211
3792.77687,0.00237
3790.71670,0.00260
3788.65652,0.00262
3786.59635,0.00262
3784.53618,0.00269
3782.47601,0.00272
3780.41583,0.00261
3778.35566,0.00241
3776.29549,0.00248
3774.23532,0.00285
3772.17515,0.00310
3770.11497,0.00295
3768.05480,0.00257
3765.99463,0.00221
3763.93446,0.00209
3761.87429,0.00227
3759.81411,0.00243
3757.75394,0.00221
3755.69377,0.00180
3753.63360,0.00132
3751.57342,0.00059
3749.51325,0.00000
3747.45308,0.00013
3745.39291,0.00024
3743.33274,0.00020
3741.27256,0.00062
3739.21239,0.00115
3737.15222,0.00103
3735.09205,0.00037
3733.03188,0.00036
3730.97170,0.00105
3728.91153,0.00159
3726.85136,0.00158
3724.79119,0.00133
3722.73102,0.00147
3720.67084,0.00218
3718.61067,0.00282
3716.55050,0.00288
3714.49033,0.00252
3712.43015,0.00213
3710.36998,0.00189
3708.30981,0.00211
3706.24964,0.00270
3704.18947,0.00299
3702.12929,0.00271
3700.06912,0.00244
3698.00895,0.00257
3695.94878,0.00286
3693.88861,0.00317
3691.82843,0.00329
3689.76826,0.00277
3687.70809,0.00212
3685.64792,0.00219
3683.58775,0.00265
3681.52757,0.00304
3679.46740,0.00324
3677.40723,0.00300
3675.34706,0.00223
3673.28688,0.00167
3671.22671,0.00153
3669.16654,0.00155
3667.10637,0.00180
3665.04620,0.00211
3662.98602,0.00239
3660.92585,0.00271
3658.86568,0.00300
3656.80551,0.00313
3654.74534,0.00320
3652.68516,0.00332
3650.62499,0.00322
3648.56482,0.00288
3646.50465,0.00318
3644.44447,0.00370
3642.38430,0.00375
3640.32413,0.00343
3638.26396,0.00317
3636.20379,0.00307
3634.14361,0.00313
3632.08344,0.00327
3630.02327,0.00320
3627.96310,0.00308
3625.90293,0.00336
3623.84275,0.00367
3621.78258,0.00384
3619.72241,0.00408
3617.66224,0.00431
3615.60207,0.00432
3613.54189,0.00428
3611.48172,0.00435
3609.42155,0.00446
3607.36138,0.00450
3605.30120,0.00457
3603.24103,0.00472
3601.18086,0.00488
3599.12069,0.00500
3597.06052,0.00508
3595.00034,0.00518
3592.94017,0.00531
3590.88000,0.00545
3588.81983,0.00541
3586.75966,0.00523
3584.69948,0.00531
3582.63931,0.00562
3580.57914,0.00590
3578.51897,0.00610
3576.45879,0.00637
3574.39862,0.00667
3572.33845,0.00679
3570.27828,0.00655
3568.21811,0.00598
3566.15793,0.00577
3564.09776,0.00642
3562.03759,0.00720
3559.97742,0.00756
3557.91725,0.00764
3555.85707,0.00759
3553.79690,0.00751
3551.73673,0.00767
3549.67656,0.00792
3547.61639,0.00785
3545.55621,0.00769
3543.49604,0.00795
3541.43587,0.00846
3539.37570,0.00878
3537.31552,0.00880
3535.25535,0.00875
3533.19518,0.00881
3531.13501,0.00900
3529.07484,0.00924
3527.01466,0.00931
3524.95449,0.00924
3522.89432,0.00922
3520.83415,0.00928
3518.77398,0.00942
3516.71380,0.00966
3514.65363,0.00999
3512.59346,0.01025
3510.53329,0.01038
3508.47312,0.01049
3506.41294,0.01068
3504.35277,0.01073
3502.29260,0.01056
3500.23243,0.01048
3498.17225,0.01067
3496.11208,0.01097
3494.05191,0.01118
3491.99174,0.01124
3489.93157,0.01118
3487.87139,0.01105
3485.81122,0.01100
3483.75105,0.01119
3481.69088,0.01152
3479.63071,0.01184
3477.57053,0.01207
3475.51036,0.01231
3473.45019,0.01258
3471.39002,0.01265
3469.32984,0.01244
3467.26967,0.01227
3465.20950,0.01235
3463.14933,0.01256
3461.08916,0.01274
3459.02898,0.01282
3456.96881,0.01277
3454.90864,0.01273
3452.84847,0.01275
3450.78830,0.01278
3448.72812,0.01288
3446.66795,0.01305
3444.60778,0.01313
3442.54761,0.01314
3440.48744,0.01315
3438.42726,0.01319
3436.36709,0.01336
3434.30692,0.01365
3432.24675,0.01383
3430.18657,0.01385
3428.12640,0.01388
3426.06623,0.01397
3424.00606,0.01409
3421.94589,0.01412
3419.88571,0.01401
3417.82554,0.01404
3415.76537,0.01429
3413.70520,0.01451
3411.64503,0.01457
3409.58485,0.01468
3407.52468,0.01498
3405.46451,0.01511
3403.40434,0.01496
3401.34416,0.01495
3399.28399,0.01486
3397.22382,0.01495
3395.16365,0.01468
3393.10348,0.01420
3391.04330,0.01404
3388.98313,0.01438
3386.92296,0.01487
3384.86279,0.01506
3382.80262,0.01502
3380.74244,0.01515
3378.68227,0.01541
3376.62210,0.01539
3374.56193,0.01530
3372.50176,0.01543
3370.44158,0.01548
3368.38141,0.01534
3366.32124,0.01532
3364.26107,0.01553
3362.20089,0.01570
3360.14072,0.01571
3358.08055,0.01580
3356.02038,0.01594
3353.96021,0.01585
3351.90003,0.01560
3349.83986,0.01548
3347.77969,0.01553
3345.71952,0.01563
3343.65935,0.01579
3341.59917,0.01613
3339.53900,0.01639
3337.47883,0.01629
3335.41866,0.01621
3333.35849,0.01639
3331.29831,0.01644
3329.23814,0.01627
3327.17797,0.01621
3325.11780,0.01637
3323.05762,0.01654
3320.99745,0.01654
3318.93728,0.01657
3316.87711,0.01678
3314.81694,0.01680
3312.75676,0.01646
3310.69659,0.01619
3308.63642,0.01623
3306.57625,0.01632
3304.51608,0.01634
3302.45590,0.01640
3300.39573,0.01647
3298.33556,0.01656
3296.27539,0.01657
3294.21521,0.01640
3292.15504,0.01629
3290.09487,0.01650
3288.03470,0.01678
3285.97453,0.01678
3283.91435,0.01664
3281.85418,0.01669
3279.79401,0.01693
3277.73384,0.01702
3275.67367,0.01690
3273.61349,0.01688
3271.55332,0.01706
3269.49315,0.01715
3267.43298,0.01698
3265.37281,0.01676
3263.31263,0.01669
3261.25246,0.01675
3259.19229,0.01691
3257.13212,0.01698
3255.07194,0.01686
3253.01177,0.01678
3250.95160,0.01686
3248.89143,0.01690
3246.83126,0.01686
3244.77108,0.01676
3242.71091,0.01653
3240.65074,0.01644
3238.59057,0.01672
3236.53040,0.01693
3234.47022,0.01683
3232.41005,0.01666
3230.34988,0.01656
3228.28971,0.01657
3226.22954,0.01656
3224.16936,0.01645
3222.10919,0.01633
3220.04902,0.01628
3217.98885,0.01638
3215.92867,0.01650
3213.86850,0.01645
3211.80833,0.01630
3209.74816,0.01628
3207.68799,0.01638
3205.62781,0.01652
3203.56764,0.01672
3201.50747,0.01686
3199.44730,0.01677
3197.38713,0.01663
3195.32695,0.01655
3193.26678,0.01642
3191.20661,0.01621
3189.14644,0.01608
3187.08626,0.01617
3185.02609,0.01633
3182.96592,0.01627
3180.90575,0.01607
3178.84558,0.01597
3176.78540,0.01591
3174.72523,0.01590
3172.66506,0.01600
3170.60489,0.01604
3168.54472,0.01599
3166.48454,0.01593
3164.42437,0.01581
3162.36420,0.01578
3160.30403,0.01585
3158.24386,0.01585
3156.18368,0.01575
3154.12351,0.01565
3152.06334,0.01568
3150.00317,0.01576
3147.94299,0.01581
3145.88282,0.01575
3143.82265,0.01561
3141.76248,0.01550
3139.70231,0.01541
3137.64213,0.01533
3135.58196,0.01537
3133.52179,0.01557
3131.46162,0.01577
3129.40145,0.01576
3127.34127,0.01558
3125.28110,0.01546
3123.22093,0.01537
3121.16076,0.01516
3119.10058,0.01493
3117.04041,0.01480
3114.98024,0.01478
3112.92007,0.01493
3110.85990,0.01516
3108.79972,0.01520
3106.73955,0.01510
3104.67938,0.01506
3102.61921,0.01495
3100.55904,0.01468
3098.49886,0.01446
3096.43869,0.01448
3094.37852,0.01466
3092.31835,0.01475
3090.25818,0.01468
3088.19800,0.01460
3086.13783,0.01462
3084.07766,0.01458
3082.01749,0.01441
3079.95731,0.01433
3077.89714,0.01429
3075.83697,0.01427
3073.77680,0.01435
3071.71663,0.01444
3069.65645,0.01438
3067.59628,0.01423
3065.53611,0.01413
3063.47594,0.01406
3061.41577,0.01397
3059.35559,0.01394
3057.29542,0.01399
3055.23525,0.01403
3053.17508,0.01403
3051.11491,0.01399
3049.05473,0.01391
3046.99456,0.01388
3044.93439,0.01393
3042.87422,0.01392
3040.81404,0.01383
3038.75387,0.01361
3036.69370,0.01329
3034.63353,0.01307
3032.57336,0.01300
3030.51318,0.01293
3028.45301,0.01276
3026.39284,0.01263
3024.33267,0.01264
3022.27250,0.01268
3020.21232,0.01270
3018.15215,0.01279
3016.09198,0.01280
3014.03181,0.01265
3011.97163,0.01260
3009.91146,0.01268
3007.85129,0.01267
3005.79112,0.01253
3003.73095,0.01237
3001.67077,0.01225
2999.61060,0.01231
2997.55043,0.01245
2995.49026,0.01242
2993.43009,0.01219
2991.36991,0.01199
2989.30974,0.01185
2987.24957,0.01177
2985.18940,0.01182
2983.12923,0.01195
2981.06905,0.01208
2979.00888,0.01218
2976.94871,0.01219
2974.88854,0.01209
2972.82836,0.01200
2970.76819,0.01206
2968.70802,0.01218
2966.64785,0.01220
2964.58768,0.01210
2962.52750,0.01202
2960.46733,0.01200
2958.40716,0.01197
2956.34699,0.01191
2954.28682,0.01192
2952.22664,0.01199
2950.16647,0.01211
2948.10630,0.01225
2946.04613,0.01229
2943.98596,0.01220
2941.92578,0.01207
2939.86561,0.01202
2937.80544,0.01202
2935.74527,0.01197
2933.68509,0.01193
2931.62492,0.01204
2929.56475,0.01227
2927.50458,0.01228
2925.44441,0.01205
2923.38423,0.01189
2921.32406,0.01182
2919.26389,0.01174
2917.20372,0.01171
2915.14355,0.01172
2913.08337,0.01164
2911.02320,0.01150
2908.96303,0.01137
2906.90286,0.01131
2904.84268,0.01125
2902.78251,0.01111
2900.72234,0.01103
2898.66217,0.01106
2896.60200,0.01109
2894.54182,0.01112
2892.48165,0.01112
2890.42148,0.01099
2888.36131,0.01088
2886.30114,0.01096
2884.24096,0.01122
2882.18079,0.01142
2880.12062,0.01137
2878.06045,0.01113
2876.00028,0.01094
2873.94010,0.01094
2871.87993,0.01099
2869.81976,0.01093
2867.75959,0.01080
2865.69941,0.01073
2863.63924,0.01067
2861.57907,0.01056
2859.51890,0.01051
2857.45873,0.01050
2855.39855,0.01035
2853.33838,0.01024
2851.27821,0.01027
2849.21804,0.01023
2847.15787,0.00996
2845.09769,0.00967
2843.03752,0.00963
2840.97735,0.00976
2838.91718,0.00979
2836.85700,0.00973
2834.79683,0.00972
2832.73666,0.00972
2830.67649,0.00968
2828.61632,0.00957
2826.55614,0.00943
2824.49597,0.00931
2822.43580,0.00923
2820.37563,0.00918
2818.31546,0.00911
2816.25528,0.00906
2814.19511,0.00909
2812.13494,0.00911
2810.07477,0.00905
2808.01460,0.00905
2805.95442,0.00917
2803.89425,0.00928
2801.83408,0.00924
2799.77391,0.00913
2797.71373,0.00903
2795.65356,0.00900
2793.59339,0.00907
2791.53322,0.00918
2789.47305,0.00917
2787.41287,0.00903
2785.35270,0.00888
2783.29253,0.00879
2781.23236,0.00871
2779.17219,0.00856
2777.11201,0.00849
2775.05184,0.00858
2772.99167,0.00867
2770.93150,0.00867
2768.87133,0.00857
2766.81115,0.00846
2764.75098,0.00851
2762.69081,0.00862
2760.63064,0.00861
2758.57046,0.00853
2756.51029,0.00847
2754.45012,0.00836
2752.38995,0.00827
2750.32978,0.00836
2748.26960,0.00849
2746.20943,0.00841
2744.14926,0.00813
2742.08909,0.00790
2740.02892,0.00792
2737.96874,0.00805
2735.90857,0.00801
2733.84840,0.00793
2731.78823,0.00794
2729.72805,0.00794
2727.66788,0.00789
2725.60771,0.00785
2723.54754,0.00788
2721.48737,0.00789
2719.42719,0.00780
2717.36702,0.00771
2715.30685,0.00764
2713.24668,0.00757
2711.18651,0.00747
2709.12633,0.00740
2707.06616,0.00744
2705.00599,0.00752
2702.94582,0.00753
2700.88565,0.00752
2698.82547,0.00744
2696.76530,0.00730
2694.70513,0.00722
2692.64496,0.00719
2690.58478,0.00712
2688.52461,0.00699
2686.46444,0.00694
2684.40427,0.00703
2682.34410,0.00709
2680.28392,0.00710
2678.22375,0.00713
2676.16358,0.00709
2674.10341,0.00697
2672.04324,0.00695
2669.98306,0.00702
2667.92289,0.00701
2665.86272,0.00699
2663.80255,0.00705
2661.74238,0.00706
2659.68220,0.00695
2657.62203,0.00688
2655.56186,0.00695
2653.50169,0.00706
2651.44151,0.00716
2649.38134,0.00714
2647.32117,0.00698
2645.26100,0.00685
2643.20083,0.00687
2641.14065,0.00696
2639.08048,0.00693
2637.02031,0.00679
2634.96014,0.00665
2632.89997,0.00652
2630.83979,0.00651
2628.77962,0.00652
2626.71945,0.00646
2624.65928,0.00645
2622.59910,0.00635
2620.53893,0.00613
2618.47876,0.00608
2616.41859,0.00621
2614.35842,0.00624
2612.29824,0.00609
2610.23807,0.00590
2608.17790,0.00580
2606.11773,0.00574
2604.05756,0.00569
2601.99738,0.00581
2599.93721,0.00605
2597.87704,0.00614
2595.81687,0.00596
2593.75670,0.00576
2591.69652,0.00569
2589.63635,0.00566
2587.57618,0.00564
2585.51601,0.00566
2583.45583,0.00560
2581.39566,0.00551
2579.33549,0.00550
2577.27532,0.00549
2575.21515,0.00540
2573.15497,0.00531
2571.09480,0.00542
2569.03463,0.00573
2566.97446,0.00587
2564.91429,0.00565
2562.85411,0.00541
2560.79394,0.00526
2558.73377,0.00514
2556.67360,0.00522
2554.61342,0.00543
2552.55325,0.00546
2550.49308,0.00528
2548.43291,0.00512
2546.37274,0.00511
2544.31256,0.00518
2542.25239,0.00521
2540.19222,0.00515
2538.13205,0.00502
2536.07188,0.00492
2534.01170,0.00498
2531.95153,0.00512
2529.89136,0.00520
2527.83119,0.00520
2525.77102,0.00507
2523.71084,0.00504
2521.65067,0.00533
2519.59050,0.00558
2517.53033,0.00555
2515.47015,0.00540
2513.40998,0.00528
2511.34981,0.00527
2509.28964,0.00532
2507.22947,0.00535
2505.16929,0.00535
2503.10912,0.00527
2501.04895,0.00513
2498.98878,0.00503
2496.92861,0.00513
2494.86843,0.00536
2492.80826,0.00549
2490.74809,0.00549
2488.68792,0.00543
2486.62775,0.00541
2484.56757,0.00542
2482.50740,0.00538
2480.44723,0.00544
2478.38706,0.00562
2476.32688,0.00568
2474.26671,0.00564
2472.20654,0.00570
2470.14637,0.00587
2468.08620,0.00593
2466.02602,0.00567
2463.96585,0.00530
2461.90568,0.00519
2459.84551,0.00536
2457.78534,0.00565
2455.72516,0.00595
2453.66499,0.00592
2451.60482,0.00552
2449.54465,0.00524
2447.48447,0.00531
2445.42430,0.00555
2443.36413,0.00569
2441.30396,0.00559
2439.24379,0.00535
2437.18361,0.00514
2435.12344,0.00507
2433.06327,0.00513
2431.00310,0.00532
2428.94293,0.00553
2426.88275,0.00565
2424.82258,0.00561
2422.76241,0.00554
2420.70224,0.00553
2418.64207,0.00530
2416.58189,0.00503
2414.52172,0.00519
2412.46155,0.00557
2410.40138,0.00571
2408.34120,0.00553
2406.28103,0.00530
2404.22086,0.00514
2402.16069,0.00508
2400.10052,0.00517
2398.04034,0.00527
2395.98017,0.00526
2393.92000,0.00529
2391.85983,0.00536
2389.79966,0.00525
2387.73948,0.00496
2385.67931,0.00462
2383.61914,0.00426
2381.55897,0.00402
2379.49880,0.00412
2377.43862,0.00448
2375.37845,0.00468
2373.31828,0.00470
2371.25811,0.00452
2369.19793,0.00425
2367.13776,0.00455
2365.07759,0.00548
2363.01742,0.00594
2360.95725,0.00596
2358.89707,0.00534
2356.83690,0.00462
2354.77673,0.00420
2352.71656,0.00455
2350.65639,0.00563
2348.59621,0.00610
2346.53604,0.00507
2344.47587,0.00507
2342.41570,0.00563
2340.35552,0.00587
2338.29535,0.00577
2336.23518,0.00540
2334.17501,0.00494
2332.11484,0.00469
2330.05466,0.00491
2327.99449,0.00529
2325.93432,0.00563
2323.87415,0.00531
2321.81398,0.00494
2319.75380,0.00473
2317.69363,0.00481
2315.63346,0.00463
2313.57329,0.00432
2311.51312,0.00430
2309.45294,0.00451
2307.39277,0.00464
2305.33260,0.00461
2303.27243,0.00463
2301.21225,0.00479
2299.15208,0.00507
2297.09191,0.00519
2295.03174,0.00507
2292.97157,0.00500
2290.91139,0.00517
2288.85122,0.00532
2286.79105,0.00525
2284.73088,0.00510
2282.67071,0.00508
2280.61053,0.00519
2278.55036,0.00519
2276.49019,0.00501
2274.43002,0.00480
2272.36984,0.00468
2270.30967,0.00478
2268.24950,0.00504
2266.18933,0.00519
2264.12916,0.00528
2262.06898,0.00544
2260.00881,0.00535
2257.94864,0.00490
2255.88847,0.00437
2253.82830,0.00413
2251.76812,0.00437
2249.70795,0.00474
2247.64778,0.00475
2245.58761,0.00451
2243.52744,0.00420
2241.46726,0.00402
2239.40709,0.00379
2237.34692,0.00334
2235.28675,0.00324
2233.22657,0.00369
2231.16640,0.00412
2229.10623,0.00428
2227.04606,0.00435
2224.98589,0.00419
2222.92571,0.00384
2220.86554,0.00354
2218.80537,0.00363
2216.74520,0.00385
2214.68503,0.00361
2212.62485,0.00316
2210.56468,0.00316
2208.50451,0.00381
2206.44434,0.00412
2204.38417,0.00357
2202.32399,0.00312
2200.26382,0.00351
2198.20365,0.00435
2196.14348,0.00494
2194.08330,0.00489
2192.02313,0.00398
2189.96296,0.00315
2187.90279,0.00311
2185.84262,0.00303
2183.78244,0.00289
2181.72227,0.00350
2179.66210,0.00421
2177.60193,0.00376
2175.54176,0.00262
2173.48158,0.00218
2171.42141,0.00279
2169.36124,0.00383
2167.30107,0.00441
2165.24089,0.00407
2163.18072,0.00334
2161.12055,0.00245
2159.06038,0.00112
2157.00021,0.00029
2154.94003,0.00047
2152.87986,0.00066
2150.81969,0.00032
2148.75952,0.00000
2146.69935,0.00045
2144.63917,0.00134
2142.57900,0.00170
2140.51883,0.00176
2138.45866,0.00188
2136.39849,0.00168
2134.33831,0.00133
2132.27814,0.00132
2130.21797,0.00170
2128.15780,0.00213
2126.09762,0.00247
2124.03745,0.00278
2121.97728,0.00281
2119.91711,0.00257
2117.85694,0.00254
2115.79676,0.00281
2113.73659,0.00318
2111.67642,0.00343
2109.61625,0.00325
2107.55608,0.00289
2105.49590,0.00279
2103.43573,0.00292
2101.37556,0.00297
2099.31539,0.00257
2097.25521,0.00192
2095.19504,0.00180
2093.13487,0.00181
2091.07470,0.00158
2089.01453,0.00175
2086.95435,0.00235
2084.89418,0.00288
2082.83401,0.00309
2080.77384,0.00288
2078.71367,0.00262
2076.65349,0.00260
2074.59332,0.00261
2072.53315,0.00279
2070.47298,0.00301
2068.41281,0.00274
2066.35263,0.00203
2064.29246,0.00128
2062.23229,0.00106
2060.17212,0.00142
2058.11194,0.00170
2056.05177,0.00184
2053.99160,0.00235
2051.93143,0.00298
2049.87126,0.00332
2047.81108,0.00340
2045.75091,0.00320
2043.69074,0.00302
2041.63057,0.00331
2039.57040,0.00408
2037.51022,0.00437
2035.45005,0.00365
2033.38988,0.00261
2031.32971,0.00214
2029.26954,0.00249
2027.20936,0.00295
2025.14919,0.00266
2023.08902,0.00191
2021.02885,0.00118
2018.96867,0.00074
2016.90850,0.00146
2014.84833,0.00304
2012.78816,0.00368
2010.72799,0.00282
2008.66781,0.00170
2006.60764,0.00129
2004.54747,0.00118
2002.48730,0.00102
2000.42713,0.00104
1998.36695,0.00105
1996.30678,0.00102
1994.24661,0.00135
1992.18644,0.00189
1990.12626,0.00231
1988.06609,0.00241
1986.00592,0.00236
1983.94575,0.00270
1981.88558,0.00294
1979.82540,0.00248
1977.76523,0.00183
1975.70506,0.00130
1973.64489,0.00083
1971.58472,0.00053
1969.52454,0.00059
1967.46437,0.00103
1965.40420,0.00120
1963.34403,0.00062
1961.28386,0.00008
1959.22368,0.00019
1957.16351,0.00027
1955.10334,0.00011
1953.04317,0.00035
1950.98299,0.00102
1948.92282,0.00123
1946.86265,0.00074
1944.80248,0.00049
1942.74231,0.00056
1940.68213,0.00032
1938.62196,-0.00000
1936.56179,0.00019
1934.50162,0.00070
1932.44145,0.00084
1930.38127,0.00068
1928.32110,0.00067
1926.26093,0.00072
1924.20076,0.00065
1922.14059,0.00059
1920.08041,0.00077
1918.02024,0.00117
1915.96007,0.00142
1913.89990,0.00136
1911.83972,0.00117
1909.77955,0.00098
1907.71938,0.00096
1905.65921,0.00122
1903.59904,0.00149
1901.53886,0.00137
1899.47869,0.00101
1897.41852,0.00087
1895.35835,0.00106
1893.29818,0.00130
1891.23800,0.00130
1889.17783,0.00104
1887.11766,0.00088
1885.05749,0.00108
1882.99731,0.00153
1880.93714,0.00179
1878.87697,0.00165
1876.81680,0.00143
1874.75663,0.00140
1872.69645,0.00137
1870.63628,0.00118
1868.57611,0.00094
1866.51594,0.00081
1864.45577,0.00086
1862.39559,0.00104
1860.33542,0.00119
1858.27525,0.00128
1856.21508,0.00138
1854.15491,0.00143
1852.09473,0.00134
1850.03456,0.00108
1847.97439,0.00083
1845.91422,0.00076
1843.85404,0.00082
1841.79387,0.00096
1839.73370,0.00121
1837.67353,0.00138
1835.61336,0.00133
1833.55318,0.00128
1831.49301,0.00132
1829.43284,0.00130
1827.37267,0.00119
1825.31250,0.00112
1823.25232,0.00113
1821.19215,0.00119
1819.13198,0.00123
1817.07181,0.00121
1815.01163,0.00110
1812.95146,0.00093
1810.89129,0.00083
1808.83112,0.00089
1806.77095,0.00106
1804.71077,0.00114
1802.65060,0.00103
1800.59043,0.00083
1798.53026,0.00066
1796.47009,0.00059
1794.40991,0.00065
1792.34974,0.00074
1790.28957,0.00079
1788.22940,0.00083
1786.16923,0.00085
1784.10905,0.00084
1782.04888,0.00093
1779.98871,0.00102
1777.92854,0.00097
1775.86836,0.00088
1773.80819,0.00098
1771.74802,0.00113
1769.68785,0.00105
1767.62768,0.00094
1765.56750,0.00106
1763.50733,0.00127
1761.44716,0.00126
1759.38699,0.00108
1757.32682,0.00108
1755.26664,0.00129
1753.20647,0.00139
1751.14630,0.00132
1749.08613,0.00132
1747.02596,0.00142
1744.96578,0.00146
1742.90561,0.00147
1740.84544,0.00158
1738.78527,0.00174
1736.72509,0.00183
1734.66492,0.00178
1732.60475,0.00167
1730.54458,0.00175
1728.48441,0.00188
1726.42423,0.00189
1724.36406,0.00175
1722.30389,0.00162
1720.24372,0.00161
1718.18355,0.00152
1716.12337,0.00124
1714.06320,0.00124
1712.00303,0.00146
1709.94286,0.00171
1707.88268,0.00189
1705.82251,0.00182
1703.76234,0.00164
1701.70217,0.00177
1699.64200,0.00213
1697.58182,0.00242
1695.52165,0.00263
1693.46148,0.00284
1691.40131,0.00308
1689.34114,0.00346
1687.28096,0.00394
1685.22079,0.00442
1683.16062,0.00477
1681.10045,0.00502
1679.04028,0.00531
1676.98010,0.00566
1674.91993,0.00607
1672.85976,0.00656
1670.79959,0.00711
1668.73941,0.00752
1666.67924,0.00775
1664.61907,0.00798
1662.55890,0.00823
1660.49873,0.00831
1658.43855,0.00830
1656.37838,0.00844
1654.31821,0.00878
1652.25804,0.00896
1650.19787,0.00887
1648.13769,0.00873
1646.07752,0.00875
1644.01735,0.00872
1641.95718,0.00860
1639.89701,0.00852
1637.83683,0.00848
1635.77666,0.00835
1633.71649,0.00821
1631.65632,0.00807
1629.59614,0.00794
1627.53597,0.00782
1625.47580,0.00769
1623.41563,0.00751
1621.35546,0.00734
1619.29528,0.00733
1617.23511,0.00740
1615.17494,0.00731
1613.11477,0.00718
1611.05460,0.00713
1608.99442,0.00709
1606.93425,0.00696
1604.87408,0.00684
1602.81391,0.00679
1600.75373,0.00674
1598.69356,0.00663
1596.63339,0.00641
1594.57322,0.00613
1592.51305,0.00589
1590.45287,0.00572
1588.39270,0.00563
1586.33253,0.00563
1584.27236,0.00563
1582.21219,0.00553
1580.15201,0.00536
1578.09184,0.00516
1576.03167,0.00491
1573.97150,0.00465
1571.91133,0.00456
1569.85115,0.00463
1567.79098,0.00457
1565.73081,0.00426
1563.67064,0.00396
1561.61046,0.00395
1559.55029,0.00399
1557.49012,0.00360
1555.42995,0.00321
1553.36978,0.00304
1551.30960,0.00298
1549.24943,0.00292
1547.18926,0.00279
1545.12909,0.00260
1543.06892,0.00256
1541.00874,0.00276
1538.94857,0.00263
1536.88840,0.00223
1534.82823,0.00197
1532.76805,0.00192
1530.70788,0.00188
1528.64771,0.00170
1526.58754,0.00143
1524.52737,0.00129
1522.46719,0.00122
1520.40702,0.00100
1518.34685,0.00081
1516.28668,0.00077
1514.22651,0.00073
1512.16633,0.00060
1510.10616,0.00048
1508.04599,0.00051
1505.98582,0.00069
1503.92565,0.00077
1501.86547,0.00065
1499.80530,0.00061
1497.74513,0.00071
1495.68496,0.00083
1493.62478,0.00094
1491.56461,0.00096
1489.50444,0.00083
1487.44427,0.00078
1485.38410,0.00092
1483.32392,0.00109
1481.26375,0.00119
1479.20358,0.00119
1477.14341,0.00119
1475.08324,0.00126
1473.02306,0.00142
1470.96289,0.00158
1468.90272,0.00168
1466.84255,0.00175
1464.78238,0.00182
1462.72220,0.00190
1460.66203,0.00204
1458.60186,0.00210
1456.54169,0.00193
1454.48151,0.00188
1452.42134,0.00195
1450.36117,0.00208
1448.30100,0.00228
1446.24083,0.00250
1444.18065,0.00263
1442.12048,0.00264
1440.06031,0.00255
1438.00014,0.00238
1435.93997,0.00223
1433.87979,0.00226
1431.81962,0.00244
1429.75945,0.00263
1427.69928,0.00275
1425.63910,0.00280
1423.57893,0.00276
1421.51876,0.00259
1419.45859,0.00236
1417.39842,0.00233
1415.33824,0.00263
1413.27807,0.00296
1411.21790,0.00320
1409.15773,0.00340
1407.09756,0.00350
1405.03738,0.00345
1402.97721,0.00338
1400.91704,0.00328
1398.85687,0.00300
1396.79670,0.00268
1394.73652,0.00266
1392.67635,0.00282
1390.61618,0.00289
1388.55601,0.00284
1386.49583,0.00290
1384.43566,0.00310
1382.37549,0.00320
1380.31532,0.00314
1378.25515,0.00306
1376.19497,0.00299
1374.13480,0.00290
1372.07463,0.00289
1370.01446,0.00297
1367.95429,0.00302
1365.89411,0.00294
1363.83394,0.00267
1361.77377,0.00240
1359.71360,0.00239
1357.65343,0.00250
1355.59325,0.00259
1353.53308,0.00265
1351.47291,0.00264
1349.41274,0.00257
1347.35256,0.00249
1345.29239,0.00243
1343.23222,0.00228
1341.17205,0.00191
1339.11188,0.00151
1337.05170,0.00150
1334.99153,0.00186
1332.93136,0.00218
1330.87119,0.00229
1328.81102,0.00232
1326.75084,0.00240
1324.69067,0.00244
1322.63050,0.00238
1320.57033,0.00229
1318.51015,0.00222
1316.44998,0.00217
1314.38981,0.00218
1312.32964,0.00230
1310.26947,0.00251
1308.20929,0.00265
1306.14912,0.00268
1304.08895,0.00268
1302.02878,0.00268
1299.96861,0.00266
1297.90843,0.00265
1295.84826,0.00271
1293.78809,0.00278
1291.72792,0.00273
1289.66775,0.00260
1287.60757,0.00253
1285.54740,0.00257
1283.48723,0.00266
1281.42706,0.00275
1279.36688,0.00276
1277.30671,0.00269
1275.24654,0.00265
1273.18637,0.00269
1271.12620,0.00266
1269.06602,0.00256
1267.00585,0.00261
1264.94568,0.00277
1262.88551,0.00287
1260.82534,0.00289
1258.76516,0.00288
1256.70499,0.00286
1254.64482,0.00285
1252.58465,0.00290
1250.52447,0.00296
1248.46430,0.00295
1246.40413,0.00288
1244.34396,0.00288
1242.28379,0.00296
1240.22361,0.00291
1238.16344,0.00270
1236.10327,0.00254
1234.04310,0.00248
1231.98293,0.00236
1229.92275,0.00215
1227.86258,0.00198
1225.80241,0.00189
1223.74224,0.00178
1221.68207,0.00161
1219.62189,0.00147
1217.56172,0.00142
1215.50155,0.00135
1213.44138,0.00114
1211.38120,0.00088
1209.32103,0.00075
1207.26086,0.00074
1205.20069,0.00068
1203.14052,0.00052
1201.08034,0.00036
1199.02017,0.00030
1196.96000,0.00037
1194.89983,0.00047
1192.83966,0.00055
1190.77948,0.00056
1188.71931,0.00048
1186.65914,0.00050
1184.59897,0.00069
1182.53880,0.00084
1180.47862,0.00094
1178.41845,0.00110
1176.35828,0.00140
1174.29811,0.00181
1172.23793,0.00215
1170.17776,0.00236
1168.11759,0.00247
1166.05742,0.00262
1163.99725,0.00297
1161.93707,0.00347
1159.87690,0.00391
1157.81673,0.00433
1155.75656,0.00480
1153.69639,0.00522
1151.63621,0.00571
1149.57604,0.00638
1147.51587,0.00705
1145.45570,0.00753
1143.39552,0.00793
1141.33535,0.00841
1139.27518,0.00895
1137.21501,0.00950
1135.15484,0.01009
1133.09466,0.01067
1131.03449,0.01125
1128.97432,0.01189
1126.91415,0.01246
1124.85398,0.01297
1122.79380,0.01353
1120.73363,0.01416
1118.67346,0.01482
1116.61329,0.01542
1114.55312,0.01591
1112.49294,0.01643
1110.43277,0.01702
1108.37260,0.01758
1106.31243,0.01808
1104.25225,0.01854
1102.19208,0.01898
1100.13191,0.01937
1098.07174,0.01966
1096.01157,0.01995
1093.95139,0.02031
1091.89122,0.02071
1089.83105,0.02112
1087.77088,0.02153
1085.71071,0.02190
1083.65053,0.02222
1081.59036,0.02250
1079.53019,0.02276
1077.47002,0.02300
1075.40985,0.02324
1073.34967,0.02343
1071.28950,0.02352
1069.22933,0.02355
1067.16916,0.02361
1065.10898,0.02362
1063.04881,0.02352
1060.98864,0.02336
1058.92847,0.02312
1056.86830,0.02272
1054.80812,0.02226
1052.74795,0.02192
1050.68778,0.02164
1048.62761,0.02120
1046.56744,0.02049
1044.50726,0.01972
1042.44709,0.01913
1040.38692,0.01857
1038.32675,0.01785
1036.26657,0.01701
1034.20640,0.01618
1032.14623,0.01547
1030.08606,0.01486
1028.02589,0.01433
1025.96571,0.01382
1023.90554,0.01332
1021.84537,0.01286
1019.78520,0.01238
1017.72503,0.01196
1015.66485,0.01172
1013.60468,0.01160
1011.54451,0.01161
1009.48434,0.01173
1007.42417,0.01176
1005.36399,0.01174
1003.30382,0.01191
1001.24365,0.01232
999.18348,0.01280
997.12330,0.01324
995.06313,0.01369
993.00296,0.01412
990.94279,0.01457
988.88262,0.01509
986.82244,0.01558
984.76227,0.01591
982.70210,0.01601
980.64193,0.01597
978.58176,0.01599
976.52158,0.01601
974.46141,0.01588
972.40124,0.01565
970.34107,0.01536
968.28089,0.01503
966.22072,0.01479
964.16055,0.01456
962.10038,0.01416
960.04021,0.01358
957.98003,0.01294
955.91986,0.01229
953.85969,0.01176
951.79952,0.01134
949.73935,0.01086
947.67917,0.01028
945.61900,0.00982
943.55883,0.00947
941.49866,0.00895
939.43849,0.00839
937.37831,0.00815
935.31814,0.00799
933.25797,0.00754
931.19780,0.00699
929.13762,0.00664
927.07745,0.00641
925.01728,0.00615
922.95711,0.00579
920.89694,0.00547
918.83676,0.00527
916.77659,0.00516
914.71642,0.00508
912.65625,0.00500
910.59608,0.00484
908.53590,0.00462
906.47573,0.00440
904.41556,0.00421
902.35539,0.00423
900.29522,0.00445
898.23504,0.00471
896.17487,0.00496
894.11470,0.00516
892.05453,0.00537
889.99435,0.00552
887.93418,0.00555
885.87401,0.00574
883.81384,0.00624
881.75367,0.00677
879.69349,0.00710
877.63332,0.00724
875.57315,0.00728
873.51298,0.00728
871.45281,0.00739
869.39263,0.00769
867.33246,0.00805
865.27229,0.00834
863.21212,0.00848
861.15194,0.00857
859.09177,0.00879
857.03160,0.00903
854.97143,0.00916
852.91126,0.00917
850.85108,0.00919
848.79091,0.00928
846.73074,0.00921
844.67057,0.00893
842.61040,0.00870
840.55022,0.00850
838.49005,0.00817
836.42988,0.00777
834.36971,0.00731
832.30954,0.00692
830.24936,0.00679
828.18919,0.00681
826.12902,0.00664
824.06885,0.00627
822.00867,0.00587
819.94850,0.00549
817.88833,0.00537
815.82816,0.00550
813.76799,0.00540
811.70781,0.00512
809.64764,0.00498
807.58747,0.00491
805.52730,0.00468
803.46713,0.00439
801.40695,0.00427
799.34678,0.00418
797.28661,0.00400
795.22644,0.00399
793.16627,0.00403
791.10609,0.00384
789.04592,0.00362
786.98575,0.00362
784.92558,0.00380
782.86540,0.00393
780.80523,0.00399
778.74506,0.00398
776.68489,0.00382
774.62472,0.00361
772.56454,0.00354
770.50437,0.00351
768.44420,0.00339
766.38403,0.00328
764.32386,0.00322
762.26368,0.00310
760.20351,0.00290
758.14334,0.00272
756.08317,0.00278
754.02299,0.00281
751.96282,0.00262
749.90265,0.00261
747.84248,0.00280
745.78231,0.00280
743.72213,0.00269
741.66196,0.00259
739.60179,0.00266
737.54162,0.00297
735.48145,0.00319
733.42127,0.00316
731.36110,0.00304
729.30093,0.00290
727.24076,0.00265
725.18059,0.00232
723.12041,0.00220
721.06024,0.00242
719.00007,0.00304
716.93990,0.00341
714.87972,0.00340
712.81955,0.00306
710.75938,0.00267
708.69921,0.00261
706.63904,0.00281
704.57886,0.00315
702.51869,0.00348
700.45852,0.00340
698.39835,0.00287
696.33818,0.00253
694.27800,0.00281
692.21783,0.00307
690.15766,0.00275
688.09749,0.00248
686.03731,0.00274
683.97714,0.00311
681.91697,0.00327
679.85680,0.00325
677.79663,0.00283
675.73645,0.00217
673.67628,0.00223
671.61611,0.00335
669.55594,0.00321
667.49577,0.00173
665.43559,0.00375
663.37542,0.00331
661.31525,0.00275
659.25508,0.00275
657.19491,0.00309
655.13473,0.00345
653.07456,0.00348
651.01439,0.00358
648.95422,0.00394
646.89404,0.00399
644.83387,0.00329
642.77370,0.00271
640.71353,0.00287
638.65336,0.00333
636.59318,0.00347
634.53301,0.00325
632.47284,0.00293
630.41267,0.00231
628.35250,0.00138
626.29232,0.00100
624.23215,0.00132
622.17198,0.00169
620.11181,0.00162
618.05164,0.00091
615.99146,0.00041
613.93129,0.00040
611.87112,0.00033
609.81095,0.00007
607.75077,0.00000
605.69060,0.00028
603.63043,0.00088
601.57026,0.00087
599.51009,0.00000
