3996.73391,0.00013
3994.67373,0.00000
3992.61356,0.00003
3990.55339,0.00017
3988.49322,0.00024
3986.43305,0.00015
3984.37287,0.00008
3982.31270,0.00014
3980.25253,0.00022
3978.19236,0.00024
3976.13219,0.00033
3974.07201,0.00038
3972.01184,0.00017
3969.95167,-0.00010
3967.89150,-0.00009
3965.83133,0.00016
3963.77115,0.00028
3961.71098,0.00026
3959.65081,0.00031
3957.59064,0.00037
3955.53046,0.00024
3953.47029,0.00011
3951.41012,0.00021
3949.34995,0.00049
3947.28978,0.00064
3945.22960,0.00055
3943.16943,0.00034
3941.10926,0.00021
3939.04909,0.00027
3936.98892,0.00051
3934.92874,0.00084
3932.86857,0.00102
3930.80840,0.00079
3928.74823,0.00036
3926.68805,0.00021
3924.62788,0.00043
3922.56771,0.00086
3920.50754,0.00123
3918.44737,0.00128
3916.38719,0.00096
3914.32702,0.00064
3912.26685,0.00062
3910.20668,0.00087
3908.14651,0.00122
3906.08633,0.00143
3904.02616,0.00122
3901.96599,0.00066
3899.90582,0.00015
3897.84565,0.00005
3895.78547,0.00029
3893.72530,0.00046
3891.66513,0.00043
3889.60496,0.00047
3887.54478,0.00072
3885.48461,0.00090
3883.42444,0.00086
3881.36427,0.00074
3879.30410,0.00067
3877.24392,0.00085
3875.18375,0.00110
3873.12358,0.00117
3871.06341,0.00099
3869.00324,0.00073
3866.94306,0.00092
3864.88289,0.00124
3862.82272,0.00102
3860.76255,0.00081
3858.70237,0.00132
3856.64220,0.00237
3854.58203,0.00272
3852.52186,0.00154
3850.46169,0.00042
3848.40151,0.00039
3846.34134,0.00083
3844.28117,0.00131
3842.22100,0.00176
3840.16083,0.00195
3838.10065,0.00163
3836.04048,0.00101
3833.98031,0.00069
3831.92014,0.00079
3829.85997,0.00102
3827.79979,0.00114
3825.73962,0.00112
3823.67945,0.00096
3821.61928,0.00048
3819.55910,0.00000
3817.49893,0.00003
3815.43876,0.00012
3813.37859,0.00008
3811.31842,0.00020
3809.25824,0.00047
3807.19807,0.00079
3805.13790,0.00116
3803.07773,0.00147
3801.01756,0.00130
3798.95738,0.00106
3796.89721,0.00118
3794.83704,0.00108
3792.77687,0.00071
3790.71670,0.00044
3788.65652,0.00042
3786.59635,0.00062
3784.53618,0.00090
3782.47601,0.00111
3780.41583,0.00103
3778.35566,0.00073
3776.29549,0.00066
3774.23532,0.00093
3772.17515,0.00123
3770.11497,0.00131
3768.05480,0.00113
3765.99463,0.00091
3763.93446,0.00093
3761.87429,0.00117
3759.81411,0.00121
3757.75394,0.00121
3755.69377,0.00176
3753.63360,0.00262
3751.57342,0.00288
3749.51325,0.00248
3747.45308,0.00220
3745.39291,0.00190
3743.33274,0.00135
3741.27256,0.00136
3739.21239,0.00171
3737.15222,0.00160
3735.09205,0.00119
3733.03188,0.00095
3730.97170,0.00096
3728.91153,0.00117
3726.85136,0.00156
3724.79119,0.00193
3722.73102,0.00210
3720.67084,0.00205
3718.61067,0.00190
3716.55050,0.00207
3714.49033,0.00255
3712.43015,0.00245
3710.36998,0.00172
3708.30981,0.00128
3706.24964,0.00138
3704.18947,0.00153
3702.12929,0.00136
3700.06912,0.00103
3698.00895,0.00091
3695.94878,0.00116
3693.88861,0.00160
3691.82843,0.00207
3689.76826,0.00215
3687.70809,0.00179
3685.64792,0.00154
3683.58775,0.00162
3681.52757,0.00183
3679.46740,0.00209
3677.40723,0.00219
3675.34706,0.00201
3673.28688,0.00219
3671.22671,0.00271
3669.16654,0.00281
3667.10637,0.00278
3665.04620,0.00308
3662.98602,0.00344
3660.92585,0.00377
3658.86568,0.00410
3656.80551,0.00429
3654.74534,0.00448
3652.68516,0.00492
3650.62499,0.00553
3648.56482,0.00618
3646.50465,0.00662
3644.44447,0.00692
3642.38430,0.00715
3640.32413,0.00745
3638.26396,0.00804
3636.20379,0.00879
3634.14361,0.00940
3632.08344,0.00994
3630.02327,0.01027
3627.96310,0.01027
3625.90293,0.01045
3623.84275,0.01119
3621.78258,0.01204
3619.72241,0.01245
3617.66224,0.01250
3615.60207,0.01281
3613.54189,0.01360
3611.48172,0.01430
3609.42155,0.01466
3607.36138,0.01492
3605.30120,0.01544
3603.24103,0.01619
3601.18086,0.01656
3599.12069,0.01652
3597.06052,0.01662
3595.00034,0.01703
3592.94017,0.01754
3590.88000,0.01815
3588.81983,0.01860
3586.75966,0.01890
3584.69948,0.01937
3582.63931,0.01992
3580.57914,0.02033
3578.51897,0.02065
3576.45879,0.02104
3574.39862,0.02155
3572.33845,0.02213
3570.27828,0.02275
3568.21811,0.02338
3566.15793,0.02369
3564.09776,0.02374
3562.03759,0.02405
3559.97742,0.02456
3557.91725,0.02510
3555.85707,0.02581
3553.79690,0.02646
3551.73673,0.02668
3549.67656,0.02683
3547.61639,0.02739
3545.55621,0.02808
3543.49604,0.02851
3541.43587,0.02879
3539.37570,0.02913
3537.31552,0.02955
3535.25535,0.02999
3533.19518,0.03042
3531.13501,0.03094
3529.07484,0.03161
3527.01466,0.03233
3524.95449,0.03288
3522.89432,0.03314
3520.83415,0.03326
3518.77398,0.03353
3516.71380,0.03394
3514.65363,0.03430
3512.59346,0.03468
3510.53329,0.03517
3508.47312,0.03556
3506.41294,0.03585
3504.35277,0.03639
3502.29260,0.03706
3500.23243,0.03748
3498.17225,0.03777
3496.11208,0.03804
3494.05191,0.03815
3491.99174,0.03814
3489.93157,0.03837
3487.87139,0.03897
3485.81122,0.03966
3483.75105,0.04010
3481.69088,0.04035
3479.63071,0.04066
3477.57053,0.04114
3475.51036,0.04167
3473.45019,0.04206
3471.39002,0.04228
3469.32984,0.04246
3467.26967,0.04273
3465.20950,0.04308
3463.14933,0.04333
3461.08916,0.04358
3459.02898,0.04406
3456.96881,0.04455
3454.90864,0.04479
3452.84847,0.04480
3450.78830,0.04488
3448.72812,0.04531
3446.66795,0.04595
3444.60778,0.04656
3442.54761,0.04693
3440.48744,0.04713
3438.42726,0.04741
3436.36709,0.04777
3434.30692,0.04806
3432.24675,0.04823
3430.18657,0.04837
3428.12640,0.04860
3426.06623,0.04888
3424.00606,0.04924
3421.94589,0.04960
3419.88571,0.04981
3417.82554,0.04998
3415.76537,0.05009
3413.70520,0.04997
3411.64503,0.04986
3409.58485,0.05016
3407.52468,0.05078
3405.46451,0.05127
3403.40434,0.05135
3401.34416,0.05145
3399.28399,0.05194
3397.22382,0.05209
3395.16365,0.05207
3393.10348,0.05221
3391.04330,0.05235
3388.98313,0.05228
3386.92296,0.05216
3384.86279,0.05220
3382.80262,0.05235
3380.74244,0.05254
3378.68227,0.05279
3376.62210,0.05309
3374.56193,0.05336
3372.50176,0.05346
3370.44158,0.05347
3368.38141,0.05344
3366.32124,0.05331
3364.26107,0.05328
3362.20089,0.05349
3360.14072,0.05376
3358.08055,0.05391
3356.02038,0.05394
3353.96021,0.05401
3351.90003,0.05413
3349.83986,0.05416
3347.77969,0.05405
3345.71952,0.05400
3343.65935,0.05414
3341.59917,0.05439
3339.53900,0.05457
3337.47883,0.05456
3335.41866,0.05440
3333.35849,0.05422
3331.29831,0.05413
3329.23814,0.05427
3327.17797,0.05460
3325.11780,0.05482
3323.05762,0.05479
3320.99745,0.05473
3318.93728,0.05486
3316.87711,0.05505
3314.81694,0.05517
3312.75676,0.05527
3310.69659,0.05543
3308.63642,0.05566
3306.57625,0.05570
3304.51608,0.05535
3302.45590,0.05499
3300.39573,0.05500
3298.33556,0.05526
3296.27539,0.05545
3294.21521,0.05545
3292.15504,0.05544
3290.09487,0.05559
3288.03470,0.05578
3285.97453,0.05586
3283.91435,0.05597
3281.85418,0.05614
3279.79401,0.05612
3277.73384,0.05597
3275.67367,0.05596
3273.61349,0.05607
3271.55332,0.05614
3269.49315,0.05608
3267.43298,0.05592
3265.37281,0.05578
3263.31263,0.05572
3261.25246,0.05583
3259.19229,0.05609
3257.13212,0.05615
3255.07194,0.05596
3253.01177,0.05580
3250.95160,0.05561
3248.89143,0.05541
3246.83126,0.05535
3244.77108,0.05528
3242.71091,0.05517
3240.65074,0.05510
3238.59057,0.05515
3236.53040,0.05520
3234.47022,0.05514
3232.41005,0.05502
3230.34988,0.05487
3228.28971,0.05475
3226.22954,0.05463
3224.16936,0.05437
3222.10919,0.05415
3220.04902,0.05409
3217.98885,0.05403
3215.92867,0.05399
3213.86850,0.05392
3211.80833,0.05385
3209.74816,0.05394
3207.68799,0.05402
3205.62781,0.05397
3203.56764,0.05381
3201.50747,0.05350
3199.44730,0.05324
3197.38713,0.05320
3195.32695,0.05323
3193.26678,0.05315
3191.20661,0.05288
3189.14644,0.05251
3187.08626,0.05235
3185.02609,0.05240
3182.96592,0.05242
3180.90575,0.05229
3178.84558,0.05206
3176.78540,0.05200
3174.72523,0.05199
3172.66506,0.05178
3170.60489,0.05147
3168.54472,0.05115
3166.48454,0.05074
3164.42437,0.05047
3162.36420,0.05053
3160.30403,0.05055
3158.24386,0.05024
3156.18368,0.04999
3154.12351,0.05000
3152.06334,0.05002
3150.00317,0.04990
3147.94299,0.04968
3145.88282,0.04953
3143.82265,0.04943
3141.76248,0.04929
3139.70231,0.04918
3137.64213,0.04907
3135.58196,0.04879
3133.52179,0.04825
3131.46162,0.04769
3129.40145,0.04750
3127.34127,0.04753
3125.28110,0.04752
3123.22093,0.04745
3121.16076,0.04737
3119.10058,0.04731
3117.04041,0.04722
3114.98024,0.04691
3112.92007,0.04656
3110.85990,0.04633
3108.79972,0.04613
3106.73955,0.04599
3104.67938,0.04590
3102.61921,0.04573
3100.55904,0.04558
3098.49886,0.04553
3096.43869,0.04544
3094.37852,0.04527
3092.31835,0.04500
3090.25818,0.04462
3088.19800,0.04427
3086.13783,0.04416
3084.07766,0.04418
3082.01749,0.04399
3079.95731,0.04354
3077.89714,0.04307
3075.83697,0.04267
3073.77680,0.04246
3071.71663,0.04240
3069.65645,0.04229
3067.59628,0.04213
3065.53611,0.04199
3063.47594,0.04182
3061.41577,0.04151
3059.35559,0.04123
3057.29542,0.04112
3055.23525,0.04099
3053.17508,0.04075
3051.11491,0.04054
3049.05473,0.04021
3046.99456,0.03972
3044.93439,0.03935
3042.87422,0.03919
3040.81404,0.03912
3038.75387,0.03904
3036.69370,0.03886
3034.63353,0.03862
3032.57336,0.03837
3030.51318,0.03811
3028.45301,0.03791
3026.39284,0.03764
3024.33267,0.03721
3022.27250,0.03686
3020.21232,0.03673
3018.15215,0.03663
3016.09198,0.03640
3014.03181,0.03614
3011.97163,0.03598
3009.91146,0.03580
3007.85129,0.03549
3005.79112,0.03525
3003.73095,0.03518
3001.67077,0.03511
2999.61060,0.03489
2997.55043,0.03454
2995.49026,0.03420
2993.43009,0.03394
2991.36991,0.03381
2989.30974,0.03393
2987.24957,0.03401
2985.18940,0.03380
2983.12923,0.03365
2981.06905,0.03367
2979.00888,0.03364
2976.94871,0.03354
2974.88854,0.03349
2972.82836,0.03356
2970.76819,0.03362
2968.70802,0.03351
2966.64785,0.03314
2964.58768,0.03283
2962.52750,0.03274
2960.46733,0.03272
2958.40716,0.03270
2956.34699,0.03268
2954.28682,0.03264
2952.22664,0.03257
2950.16647,0.03254
2948.10630,0.03257
2946.04613,0.03254
2943.98596,0.03244
2941.92578,0.03238
2939.86561,0.03234
2937.80544,0.03238
2935.74527,0.03237
2933.68509,0.03208
2931.62492,0.03181
2929.56475,0.03173
2927.50458,0.03157
2925.44441,0.03129
2923.38423,0.03111
2921.32406,0.03092
2919.26389,0.03071
2917.20372,0.03054
2915.14355,0.03024
2913.08337,0.02981
2911.02320,0.02941
2908.96303,0.02912
2906.90286,0.02897
2904.84268,0.02884
2902.78251,0.02865
2900.72234,0.02841
2898.66217,0.02812
2896.60200,0.02789
2894.54182,0.02769
2892.48165,0.02740
2890.42148,0.02716
2888.36131,0.02707
2886.30114,0.02700
2884.24096,0.02690
2882.18079,0.02684
2880.12062,0.02675
2878.06045,0.02660
2876.00028,0.02647
2873.94010,0.02637
2871.87993,0.02617
2869.81976,0.02578
2867.75959,0.02543
2865.69941,0.02527
2863.63924,0.02512
2861.57907,0.02493
2859.51890,0.02474
2857.45873,0.02440
2855.39855,0.02400
2853.33838,0.02381
2851.27821,0.02372
2849.21804,0.02348
2847.15787,0.02311
2845.09769,0.02276
2843.03752,0.02241
2840.97735,0.02209
2838.91718,0.02192
2836.85700,0.02178
2834.79683,0.02157
2832.73666,0.02145
2830.67649,0.02138
2828.61632,0.02113
2826.55614,0.02072
2824.49597,0.02043
2822.43580,0.02027
2820.37563,0.02013
2818.31546,0.01996
2816.25528,0.01977
2814.19511,0.01965
2812.13494,0.01966
2810.07477,0.01960
2808.01460,0.01933
2805.95442,0.01907
2803.89425,0.01891
2801.83408,0.01878
2799.77391,0.01864
2797.71373,0.01847
2795.65356,0.01838
2793.59339,0.01830
2791.53322,0.01813
2789.47305,0.01797
2787.41287,0.01782
2785.35270,0.01764
2783.29253,0.01749
2781.23236,0.01733
2779.17219,0.01720
2777.11201,0.01720
2775.05184,0.01712
2772.99167,0.01680
2770.93150,0.01654
2768.87133,0.01658
2766.81115,0.01661
2764.75098,0.01639
2762.69081,0.01615
2760.63064,0.01598
2758.57046,0.01575
2756.51029,0.01567
2754.45012,0.01581
2752.38995,0.01580
2750.32978,0.01556
2748.26960,0.01543
2746.20943,0.01544
2744.14926,0.01533
2742.08909,0.01506
2740.02892,0.01487
2737.96874,0.01478
2735.90857,0.01464
2733.84840,0.01448
2731.78823,0.01447
2729.72805,0.01454
2727.66788,0.01448
2725.60771,0.01434
2723.54754,0.01423
2721.48737,0.01407
2719.42719,0.01388
2717.36702,0.01366
2715.30685,0.01349
2713.24668,0.01359
2711.18651,0.01370
2709.12633,0.01353
2707.06616,0.01322
2705.00599,0.01302
2702.94582,0.01304
2700.88565,0.01305
2698.82547,0.01286
2696.76530,0.01270
2694.70513,0.01270
2692.64496,0.01261
2690.58478,0.01236
2688.52461,0.01212
2686.46444,0.01203
2684.40427,0.01202
2682.34410,0.01199
2680.28392,0.01189
2678.22375,0.01177
2676.16358,0.01161
2674.10341,0.01147
2672.04324,0.01138
2669.98306,0.01121
2667.92289,0.01107
2665.86272,0.01110
2663.80255,0.01118
2661.74238,0.01124
2659.68220,0.01125
2657.62203,0.01108
2655.56186,0.01069
2653.50169,0.01031
2651.44151,0.01019
2649.38134,0.01033
2647.32117,0.01053
2645.26100,0.01045
2643.20083,0.01012
2641.14065,0.00999
2639.08048,0.01010
2637.02031,0.01010
2634.96014,0.00993
2632.89997,0.00969
2630.83979,0.00940
2628.77962,0.00925
2626.71945,0.00935
2624.65928,0.00944
2622.59910,0.00942
2620.53893,0.00938
2618.47876,0.00930
2616.41859,0.00907
2614.35842,0.00879
2612.29824,0.00859
2610.23807,0.00855
2608.17790,0.00861
2606.11773,0.00865
2604.05756,0.00863
2601.99738,0.00851
2599.93721,0.00822
2597.87704,0.00791
2595.81687,0.00783
2593.75670,0.00788
2591.69652,0.00790
2589.63635,0.00801
2587.57618,0.00814
2585.51601,0.00805
2583.45583,0.00783
2581.39566,0.00768
2579.33549,0.00764
2577.27532,0.00763
2575.21515,0.00766
2573.15497,0.00765
2571.09480,0.00761
2569.03463,0.00761
2566.97446,0.00758
2564.91429,0.00747
2562.85411,0.00733
2560.79394,0.00737
2558.73377,0.00757
2556.67360,0.00756
2554.61342,0.00751
2552.55325,0.00785
2550.49308,0.00810
2548.43291,0.00790
2546.37274,0.00770
2544.31256,0.00753
2542.25239,0.00712
2540.19222,0.00686
2538.13205,0.00695
2536.07188,0.00711
2534.01170,0.00717
2531.95153,0.00709
2529.89136,0.00702
2527.83119,0.00711
2525.77102,0.00724
2523.71084,0.00716
2521.65067,0.00699
2519.59050,0.00697
2517.53033,0.00702
2515.47015,0.00728
2513.40998,0.00781
2511.34981,0.00811
2509.28964,0.00805
2507.22947,0.00772
2505.16929,0.00725
2503.10912,0.00705
2501.04895,0.00725
2498.98878,0.00749
2496.92861,0.00748
2494.86843,0.00748
2492.80826,0.00760
2490.74809,0.00772
2488.68792,0.00787
2486.62775,0.00796
2484.56757,0.00791
2482.50740,0.00785
2480.44723,0.00791
2478.38706,0.00795
2476.32688,0.00785
2474.26671,0.00772
2472.20654,0.00767
2470.14637,0.00775
2468.08620,0.00793
2466.02602,0.00798
2463.96585,0.00777
2461.90568,0.00756
2459.84551,0.00748
2457.78534,0.00746
2455.72516,0.00764
2453.66499,0.00800
2451.60482,0.00826
2449.54465,0.00828
2447.48447,0.00813
2445.42430,0.00802
2443.36413,0.00807
2441.30396,0.00815
2439.24379,0.00794
2437.18361,0.00747
2435.12344,0.00724
2433.06327,0.00739
2431.00310,0.00756
2428.94293,0.00775
2426.88275,0.00802
2424.82258,0.00802
2422.76241,0.00779
2420.70224,0.00758
2418.64207,0.00757
2416.58189,0.00777
2414.52172,0.00776
2412.46155,0.00765
2410.40138,0.00777
2408.34120,0.00784
2406.28103,0.00778
2404.22086,0.00774
2402.16069,0.00776
2400.10052,0.00758
2398.04034,0.00738
2395.98017,0.00754
2393.92000,0.00796
2391.85983,0.00820
2389.79966,0.00818
2387.73948,0.00815
2385.67931,0.00844
2383.61914,0.00890
2381.55897,0.00904
2379.49880,0.00877
2377.43862,0.00847
2375.37845,0.00796
2373.31828,0.00773
2371.25811,0.00791
2369.19793,0.00775
2367.13776,0.00748
2365.07759,0.00709
2363.01742,0.00571
2360.95725,0.00650
2358.89707,0.00745
2356.83690,0.00738
2354.77673,0.00630
2352.71656,0.00605
2350.65639,0.00859
2348.59621,0.01005
2346.53604,0.00641
2344.47587,0.00567
2342.41570,0.00605
2340.35552,0.00579
2338.29535,0.00588
2336.23518,0.00609
2334.17501,0.00628
2332.11484,0.00640
2330.05466,0.00717
2327.99449,0.00812
2325.93432,0.00979
2323.87415,0.01016
2321.81398,0.00980
2319.75380,0.00912
2317.69363,0.00977
2315.63346,0.01006
2313.57329,0.00953
2311.51312,0.00884
2309.45294,0.00837
2307.39277,0.00842
2305.33260,0.00866
2303.27243,0.00874
2301.21225,0.00867
2299.15208,0.00879
2297.09191,0.00868
2295.03174,0.00825
2292.97157,0.00812
2290.91139,0.00826
2288.85122,0.00819
2286.79105,0.00793
2284.73088,0.00790
2282.67071,0.00809
2280.61053,0.00795
2278.55036,0.00727
2276.49019,0.00675
2274.43002,0.00690
2272.36984,0.00717
2270.30967,0.00721
2268.24950,0.00729
2266.18933,0.00747
2264.12916,0.00767
2262.06898,0.00780
2260.00881,0.00762
2257.94864,0.00720
2255.88847,0.00686
2253.82830,0.00679
2251.76812,0.00662
2249.70795,0.00623
2247.64778,0.00617
2245.58761,0.00644
2243.52744,0.00628
2241.46726,0.00605
2239.40709,0.00619
2237.34692,0.00599
2235.28675,0.00553
2233.22657,0.00513
2231.16640,0.00474
2229.10623,0.00519
2227.04606,0.00618
2224.98589,0.00646
2222.92571,0.00624
2220.86554,0.00595
2218.80537,0.00577
2216.74520,0.00587
2214.68503,0.00594
2212.62485,0.00607
2210.56468,0.00602
2208.50451,0.00547
2206.44434,0.00556
2204.38417,0.00596
2202.32399,0.00559
2200.26382,0.00531
2198.20365,0.00529
2196.14348,0.00492
2194.08330,0.00456
2192.02313,0.00450
2189.96296,0.00467
2187.90279,0.00478
2185.84262,0.00443
2183.78244,0.00404
2181.72227,0.00380
2179.66210,0.00349
2177.60193,0.00335
2175.54176,0.00320
2173.48158,0.00296
2171.42141,0.00308
2169.36124,0.00405
2167.30107,0.00509
2165.24089,0.00527
2163.18072,0.00495
2161.12055,0.00368
2159.06038,0.00155
2157.00021,0.00073
2154.94003,0.00139
2152.87986,0.00206
2150.81969,0.00247
2148.75952,0.00278
2146.69935,0.00311
2144.63917,0.00346
2142.57900,0.00365
2140.51883,0.00386
2138.45866,0.00342
2136.39849,0.00214
2134.33831,0.00151
2132.27814,0.00208
2130.21797,0.00286
2128.15780,0.00321
2126.09762,0.00353
2124.03745,0.00391
2121.97728,0.00371
2119.91711,0.00331
2117.85694,0.00338
2115.79676,0.00341
2113.73659,0.00324
2111.67642,0.00370
2109.61625,0.00426
2107.55608,0.00419
2105.49590,0.00416
2103.43573,0.00435
2101.37556,0.00441
2099.31539,0.00436
2097.25521,0.00452
2095.19504,0.00464
2093.13487,0.00445
2091.07470,0.00408
2089.01453,0.00384
2086.95435,0.00408
2084.89418,0.00415
2082.83401,0.00353
2080.77384,0.00283
2078.71367,0.00243
2076.65349,0.00243
2074.59332,0.00294
2072.53315,0.00335
2070.47298,0.00343
2068.41281,0.00344
2066.35263,0.00322
2064.29246,0.00307
2062.23229,0.00359
2060.17212,0.00422
2058.11194,0.00430
2056.05177,0.00453
2053.99160,0.00548
2051.93143,0.00599
2049.87126,0.00484
2047.81108,0.00298
2045.75091,0.00204
2043.69074,0.00211
2041.63057,0.00231
2039.57040,0.00184
2037.51022,0.00102
2035.45005,0.00094
2033.38988,0.00149
2031.32971,0.00182
2029.26954,0.00186
2027.20936,0.00211
2025.14919,0.00284
2023.08902,0.00329
2021.02885,0.00284
2018.96867,0.00200
2016.90850,0.00141
2014.84833,0.00097
2012.78816,0.00038
2010.72799,0.00000
2008.66781,0.00009
2006.60764,0.00070
2004.54747,0.00158
2002.48730,0.00166
2000.42713,0.00134
1998.36695,0.00193
1996.30678,0.00285
1994.24661,0.00311
1992.18644,0.00307
1990.12626,0.00340
1988.06609,0.00387
1986.00592,0.00371
1983.94575,0.00311
1981.88558,0.00267
1979.82540,0.00233
1977.76523,0.00222
1975.70506,0.00284
1973.64489,0.00345
1971.58472,0.00299
1969.52454,0.00168
1967.46437,0.00055
1965.40420,0.00042
1963.34403,0.00076
1961.28386,0.00048
1959.22368,0.00000
1957.16351,0.00017
1955.10334,0.00085
1953.04317,0.00168
1950.98299,0.00213
1948.92282,0.00179
1946.86265,0.00127
1944.80248,0.00110
1942.74231,0.00109
1940.68213,0.00102
1938.62196,0.00091
1936.56179,0.00074
1934.50162,0.00057
1932.44145,0.00070
1930.38127,0.00102
1928.32110,0.00113
1926.26093,0.00113
1924.20076,0.00116
1922.14059,0.00129
1920.08041,0.00164
1918.02024,0.00193
1915.96007,0.00189
1913.89990,0.00186
1911.83972,0.00196
1909.77955,0.00191
1907.71938,0.00161
1905.65921,0.00128
1903.59904,0.00120
1901.53886,0.00139
1899.47869,0.00160
1897.41852,0.00163
1895.35835,0.00162
1893.29818,0.00159
1891.23800,0.00126
1889.17783,0.00088
1887.11766,0.00098
1885.05749,0.00129
1882.99731,0.00144
1880.93714,0.00159
1878.87697,0.00181
1876.81680,0.00181
1874.75663,0.00159
1872.69645,0.00154
1870.63628,0.00181
1868.57611,0.00202
1866.51594,0.00192
1864.45577,0.00174
1862.39559,0.00173
1860.33542,0.00170
1858.27525,0.00150
1856.21508,0.00142
1854.15491,0.00162
1852.09473,0.00186
1850.03456,0.00191
1847.97439,0.00183
1845.91422,0.00189
1843.85404,0.00202
1841.79387,0.00199
1839.73370,0.00191
1837.67353,0.00179
1835.61336,0.00159
1833.55318,0.00150
1831.49301,0.00144
1829.43284,0.00130
1827.37267,0.00130
1825.31250,0.00154
1823.25232,0.00167
1821.19215,0.00143
1819.13198,0.00109
1817.07181,0.00105
1815.01163,0.00125
1812.95146,0.00140
1810.89129,0.00145
1808.83112,0.00146
1806.77095,0.00149
1804.71077,0.00162
1802.65060,0.00181
1800.59043,0.00193
1798.53026,0.00204
1796.47009,0.00227
1794.40991,0.00245
1792.34974,0.00229
1790.28957,0.00191
1788.22940,0.00173
1786.16923,0.00177
1784.10905,0.00187
1782.04888,0.00195
1779.98871,0.00206
1777.92854,0.00220
1775.86836,0.00223
1773.80819,0.00217
1771.74802,0.00225
1769.68785,0.00255
1767.62768,0.00286
1765.56750,0.00305
1763.50733,0.00328
1761.44716,0.00361
1759.38699,0.00400
1757.32682,0.00434
1755.26664,0.00464
1753.20647,0.00501
1751.14630,0.00544
1749.08613,0.00580
1747.02596,0.00605
1744.96578,0.00621
1742.90561,0.00623
1740.84544,0.00621
1738.78527,0.00641
1736.72509,0.00673
1734.66492,0.00687
1732.60475,0.00693
1730.54458,0.00702
1728.48441,0.00708
1726.42423,0.00711
1724.36406,0.00723
1722.30389,0.00751
1720.24372,0.00784
1718.18355,0.00807
1716.12337,0.00817
1714.06320,0.00823
1712.00303,0.00843
1709.94286,0.00873
1707.88268,0.00900
1705.82251,0.00937
1703.76234,0.00993
1701.70217,0.01050
1699.64200,0.01106
1697.58182,0.01191
1695.52165,0.01311
1693.46148,0.01417
1691.40131,0.01498
1689.34114,0.01585
1687.28096,0.01664
1685.22079,0.01747
1683.16062,0.01893
1681.10045,0.02040
1679.04028,0.02131
1676.98010,0.02211
1674.91993,0.02320
1672.85976,0.02432
1670.79959,0.02534
1668.73941,0.02658
1666.67924,0.02781
1664.61907,0.02891
1662.55890,0.03004
1660.49873,0.03097
1658.43855,0.03149
1656.37838,0.03170
1654.31821,0.03188
1652.25804,0.03245
1650.19787,0.03292
1648.13769,0.03296
1646.07752,0.03279
1644.01735,0.03269
1641.95718,0.03259
1639.89701,0.03231
1637.83683,0.03187
1635.77666,0.03142
1633.71649,0.03106
1631.65632,0.03065
1629.59614,0.03008
1627.53597,0.02943
1625.47580,0.02877
1623.41563,0.02810
1621.35546,0.02762
1619.29528,0.02720
1617.23511,0.02655
1615.17494,0.02590
1613.11477,0.02546
1611.05460,0.02507
1608.99442,0.02463
1606.93425,0.02420
1604.87408,0.02381
1602.81391,0.02348
1600.75373,0.02322
1598.69356,0.02298
1596.63339,0.02266
1594.57322,0.02220
1592.51305,0.02177
1590.45287,0.02145
1588.39270,0.02113
1586.33253,0.02073
1584.27236,0.02026
1582.21219,0.01978
1580.15201,0.01936
1578.09184,0.01893
1576.03167,0.01852
1573.97150,0.01828
1571.91133,0.01809
1569.85115,0.01777
1567.79098,0.01746
1565.73081,0.01725
1563.67064,0.01710
1561.61046,0.01700
1559.55029,0.01692
1557.49012,0.01691
1555.42995,0.01691
1553.36978,0.01692
1551.30960,0.01681
1549.24943,0.01654
1547.18926,0.01621
1545.12909,0.01590
1543.06892,0.01541
1541.00874,0.01466
1538.94857,0.01411
1536.88840,0.01400
1534.82823,0.01390
1532.76805,0.01357
1530.70788,0.01317
1528.64771,0.01282
1526.58754,0.01252
1524.52737,0.01224
1522.46719,0.01199
1520.40702,0.01176
1518.34685,0.01151
1516.28668,0.01120
1514.22651,0.01091
1512.16633,0.01068
1510.10616,0.01033
1508.04599,0.00958
1505.98582,0.00856
1503.92565,0.00809
1501.86547,0.00803
1499.80530,0.00781
1497.74513,0.00736
1495.68496,0.00699
1493.62478,0.00683
1491.56461,0.00672
1489.50444,0.00644
1487.44427,0.00604
1485.38410,0.00574
1483.32392,0.00561
1481.26375,0.00560
1479.20358,0.00565
1477.14341,0.00573
1475.08324,0.00592
1473.02306,0.00623
1470.96289,0.00658
1468.90272,0.00692
1466.84255,0.00721
1464.78238,0.00745
1462.72220,0.00764
1460.66203,0.00776
1458.60186,0.00781
1456.54169,0.00780
1454.48151,0.00771
1452.42134,0.00766
1450.36117,0.00761
1448.30100,0.00757
1446.24083,0.00763
1444.18065,0.00771
1442.12048,0.00770
1440.06031,0.00767
1438.00014,0.00771
1435.93997,0.00775
1433.87979,0.00766
1431.81962,0.00764
1429.75945,0.00786
1427.69928,0.00827
1425.63910,0.00871
1423.57893,0.00915
1421.51876,0.00957
1419.45859,0.01003
1417.39842,0.01048
1415.33824,0.01069
1413.27807,0.01073
1411.21790,0.01071
1409.15773,0.01066
1407.09756,0.01061
1405.03738,0.01054
1402.97721,0.01035
1400.91704,0.01009
1398.85687,0.00992
1396.79670,0.00979
1394.73652,0.00945
1392.67635,0.00899
1390.61618,0.00867
1388.55601,0.00850
1386.49583,0.00832
1384.43566,0.00811
1382.37549,0.00792
1380.31532,0.00778
1378.25515,0.00761
1376.19497,0.00741
1374.13480,0.00729
1372.07463,0.00722
1370.01446,0.00710
1367.95429,0.00695
1365.89411,0.00681
1363.83394,0.00663
1361.77377,0.00636
1359.71360,0.00612
1357.65343,0.00603
1355.59325,0.00595
1353.53308,0.00575
1351.47291,0.00550
1349.41274,0.00536
1347.35256,0.00527
1345.29239,0.00513
1343.23222,0.00501
1341.17205,0.00509
1339.11188,0.00524
1337.05170,0.00515
1334.99153,0.00488
1332.93136,0.00470
1330.87119,0.00464
1328.81102,0.00457
1326.75084,0.00448
1324.69067,0.00451
1322.63050,0.00467
1320.57033,0.00484
1318.51015,0.00494
1316.44998,0.00504
1314.38981,0.00510
1312.32964,0.00504
1310.26947,0.00492
1308.20929,0.00488
1306.14912,0.00492
1304.08895,0.00499
1302.02878,0.00512
1299.96861,0.00524
1297.90843,0.00528
1295.84826,0.00530
1293.78809,0.00535
1291.72792,0.00538
1289.66775,0.00535
1287.60757,0.00529
1285.54740,0.00524
1283.48723,0.00517
1281.42706,0.00510
1279.36688,0.00511
1277.30671,0.00525
1275.24654,0.00541
1273.18637,0.00551
1271.12620,0.00563
1269.06602,0.00579
1267.00585,0.00585
1264.94568,0.00581
1262.88551,0.00585
1260.82534,0.00606
1258.76516,0.00629
1256.70499,0.00642
1254.64482,0.00650
1252.58465,0.00653
1250.52447,0.00656
1248.46430,0.00665
1246.40413,0.00671
1244.34396,0.00667
1242.28379,0.00650
1240.22361,0.00623
1238.16344,0.00596
1236.10327,0.00581
1234.04310,0.00568
1231.98293,0.00542
1229.92275,0.00506
1227.86258,0.00475
1225.80241,0.00439
1223.74224,0.00391
1221.68207,0.00348
1219.62189,0.00310
1217.56172,0.00278
1215.50155,0.00253
1213.44138,0.00226
1211.38120,0.00191
1209.32103,0.00152
1207.26086,0.00124
1205.20069,0.00109
1203.14052,0.00084
1201.08034,0.00051
1199.02017,0.00028
1196.96000,0.00012
1194.89983,0.00000
1192.83966,-0.00008
1190.77948,-0.00003
1188.71931,-0.00002
1186.65914,-0.00008
1184.59897,-0.00008
1182.53880,0.00009
1180.47862,0.00032
1178.41845,0.00053
1176.35828,0.00086
1174.29811,0.00135
1172.23793,0.00180
1170.17776,0.00216
1168.11759,0.00256
1166.05742,0.00301
1163.99725,0.00348
1161.93707,0.00403
1159.87690,0.00462
1157.81673,0.00530
1155.75656,0.00611
1153.69639,0.00698
1151.63621,0.00788
1149.57604,0.00877
1147.51587,0.00950
1145.45570,0.01015
1143.39552,0.01095
1141.33535,0.01196
1139.27518,0.01314
1137.21501,0.01440
1135.15484,0.01557
1133.09466,0.01676
1131.03449,0.01820
1128.97432,0.01983
1126.91415,0.02147
1124.85398,0.02314
1122.79380,0.02482
1120.73363,0.02657
1118.67346,0.02854
1116.61329,0.03067
1114.55312,0.03270
1112.49294,0.03459
1110.43277,0.03655
1108.37260,0.03842
1106.31243,0.04005
1104.25225,0.04167
1102.19208,0.04337
1100.13191,0.04508
1098.07174,0.04668
1096.01157,0.04815
1093.95139,0.04962
1091.89122,0.05109
1089.83105,0.05244
1087.77088,0.05360
1085.71071,0.05470
1083.65053,0.05590
1081.59036,0.05696
1079.53019,0.05777
1077.47002,0.05864
1075.40985,0.05970
1073.34967,0.06073
1071.28950,0.06146
1069.22933,0.06183
1067.16916,0.06196
1065.10898,0.06186
1063.04881,0.06159
1060.98864,0.06132
1058.92847,0.06094
1056.86830,0.06013
1054.80812,0.05897
1052.74795,0.05786
1050.68778,0.05679
1048.62761,0.05540
1046.56744,0.05362
1044.50726,0.05177
1042.44709,0.04979
1040.38692,0.04755
1038.32675,0.04532
1036.26657,0.04326
1034.20640,0.04119
1032.14623,0.03903
1030.08606,0.03692
1028.02589,0.03500
1025.96571,0.03334
1023.90554,0.03191
1021.84537,0.03058
1019.78520,0.02943
1017.72503,0.02847
1015.66485,0.02750
1013.60468,0.02664
1011.54451,0.02623
1009.48434,0.02614
1007.42417,0.02625
1005.36399,0.02662
1003.30382,0.02717
1001.24365,0.02793
999.18348,0.02913
997.12330,0.03057
995.06313,0.03194
993.00296,0.03326
990.94279,0.03459
988.88262,0.03580
986.82244,0.03664
984.76227,0.03704
982.70210,0.03710
980.64193,0.03692
978.58176,0.03662
976.52158,0.03611
974.46141,0.03524
972.40124,0.03407
970.34107,0.03276
968.28089,0.03130
966.22072,0.02960
964.16055,0.02760
962.10038,0.02550
960.04021,0.02354
957.98003,0.02170
955.91986,0.01983
953.85969,0.01796
951.79952,0.01638
949.73935,0.01497
947.67917,0.01342
945.61900,0.01174
943.55883,0.01033
941.49866,0.00933
939.43849,0.00840
937.37831,0.00744
935.31814,0.00651
933.25797,0.00562
931.19780,0.00486
929.13762,0.00418
927.07745,0.00354
925.01728,0.00295
922.95711,0.00233
920.89694,0.00181
918.83676,0.00153
916.77659,0.00130
914.71642,0.00107
912.65625,0.00082
910.59608,0.00057
908.53590,0.00034
906.47573,0.00025
904.41556,0.00044
902.35539,0.00076
900.29522,0.00083
898.23504,0.00060
896.17487,0.00076
894.11470,0.00158
892.05453,0.00234
889.99435,0.00267
887.93418,0.00290
885.87401,0.00348
883.81384,0.00424
881.75367,0.00486
879.69349,0.00556
877.63332,0.00646
875.57315,0.00726
873.51298,0.00795
871.45281,0.00867
869.39263,0.00924
867.33246,0.00959
865.27229,0.01000
863.21212,0.01045
861.15194,0.01068
859.09177,0.01092
857.03160,0.01124
854.97143,0.01135
852.91126,0.01140
850.85108,0.01158
848.79091,0.01171
846.73074,0.01128
844.67057,0.01038
842.61040,0.00969
840.55022,0.00932
838.49005,0.00902
836.42988,0.00874
834.36971,0.00833
832.30954,0.00765
830.24936,0.00693
828.18919,0.00634
826.12902,0.00583
824.06885,0.00523
822.00867,0.00457
819.94850,0.00424
817.88833,0.00431
815.82816,0.00423
813.76799,0.00375
811.70781,0.00339
809.64764,0.00323
807.58747,0.00289
805.52730,0.00243
803.46713,0.00193
801.40695,0.00139
799.34678,0.00107
797.28661,0.00121
795.22644,0.00164
793.16627,0.00197
791.10609,0.00207
789.04592,0.00198
786.98575,0.00189
784.92558,0.00199
782.86540,0.00213
780.80523,0.00205
778.74506,0.00177
776.68489,0.00141
774.62472,0.00119
772.56454,0.00131
770.50437,0.00151
768.44420,0.00144
766.38403,0.00112
764.32386,0.00101
762.26368,0.00136
760.20351,0.00149
758.14334,0.00128
756.08317,0.00127
754.02299,0.00126
751.96282,0.00124
749.90265,0.00127
747.84248,0.00105
745.78231,0.00086
743.72213,0.00098
741.66196,0.00126
739.60179,0.00167
737.54162,0.00202
735.48145,0.00190
733.42127,0.00163
731.36110,0.00176
729.30093,0.00218
727.24076,0.00241
725.18059,0.00210
723.12041,0.00193
721.06024,0.00177
719.00007,0.00255
716.93990,0.00300
714.87972,0.00284
712.81955,0.00264
710.75938,0.00242
708.69921,0.00239
706.63904,0.00282
704.57886,0.00326
702.51869,0.00324
700.45852,0.00314
698.39835,0.00331
696.33818,0.00372
694.27800,0.00415
692.21783,0.00417
690.15766,0.00371
688.09749,0.00336
686.03731,0.00380
683.97714,0.00483
681.91697,0.00567
679.85680,0.00602
677.79663,0.00574
675.73645,0.00505
673.67628,0.00537
671.61611,0.00716
669.55594,0.00419
667.49577,0.00000
665.43559,0.00812
663.37542,0.00729
661.31525,0.00535
659.25508,0.00508
657.19491,0.00515
655.13473,0.00500
653.07456,0.00448
651.01439,0.00384
648.95422,0.00384
646.89404,0.00480
644.83387,0.00517
642.77370,0.00478
640.71353,0.00439
638.65336,0.00406
636.59318,0.00337
634.53301,0.00290
632.47284,0.00324
630.41267,0.00378
628.35250,0.00386
626.29232,0.00353
624.23215,0.00310
622.17198,0.00287
620.11181,0.00201
618.05164,0.00115
615.99146,0.00241
613.93129,0.00471
611.87112,0.00438
609.81095,0.00119
607.75077,-0.00070
605.69060,0.00042
603.63043,0.00094
601.57026,-0.00016
599.51009,0.00000
