3996.73391,0.00024
3994.67373,0.00034
3992.61356,0.00030
3990.55339,0.00013
3988.49322,0.00000
3986.43305,0.00001
3984.37287,0.00008
3982.31270,0.00016
3980.25253,0.00016
3978.19236,0.00012
3976.13219,0.00022
3974.07201,0.00037
3972.01184,0.00042
3969.95167,0.00033
3967.89150,0.00030
3965.83133,0.00042
3963.77115,0.00047
3961.71098,0.00033
3959.65081,0.00024
3957.59064,0.00027
3955.53046,0.00027
3953.47029,0.00031
3951.41012,0.00049
3949.34995,0.00066
3947.28978,0.00072
3945.22960,0.00067
3943.16943,0.00062
3941.10926,0.00052
3939.04909,0.00034
3936.98892,0.00038
3934.92874,0.00072
3932.86857,0.00088
3930.80840,0.00054
3928.74823,0.00015
3926.68805,0.00017
3924.62788,0.00042
3922.56771,0.00063
3920.50754,0.00076
3918.44737,0.00083
3916.38719,0.00079
3914.32702,0.00061
3912.26685,0.00050
3910.20668,0.00070
3908.14651,0.00114
3906.08633,0.00146
3904.02616,0.00134
3901.96599,0.00084
3899.90582,0.00040
3897.84565,0.00043
3895.78547,0.00077
3893.72530,0.00101
3891.66513,0.00100
3889.60496,0.00104
3887.54478,0.00132
3885.48461,0.00152
3883.42444,0.00142
3881.36427,0.00118
3879.30410,0.00101
3877.24392,0.00106
3875.18375,0.00126
3873.12358,0.00147
3871.06341,0.00154
3869.00324,0.00129
3866.94306,0.00106
3864.88289,0.00091
3862.82272,0.00069
3860.76255,0.00071
3858.70237,0.00117
3856.64220,0.00198
3854.58203,0.00243
3852.52186,0.00175
3850.46169,0.00084
3848.40151,0.00077
3846.34134,0.00104
3844.28117,0.00112
3842.22100,0.00109
3840.16083,0.00087
3838.10065,0.00033
3836.04048,0.00000
3833.98031,0.00024
3831.92014,0.00067
3829.85997,0.00096
3827.79979,0.00114
3825.73962,0.00112
3823.67945,0.00083
3821.61928,0.00034
3819.55910,0.00015
3817.49893,0.00050
3815.43876,0.00076
3813.37859,0.00064
3811.31842,0.00057
3809.25824,0.00074
3807.19807,0.00105
3805.13790,0.00143
3803.07773,0.00156
3801.01756,0.00114
3798.95738,0.00080
3796.89721,0.00089
3794.83704,0.00094
3792.77687,0.00079
3790.71670,0.00062
3788.65652,0.00055
3786.59635,0.00063
3784.53618,0.00090
3782.47601,0.00109
3780.41583,0.00089
3778.35566,0.00053
3776.29549,0.00063
3774.23532,0.00108
3772.17515,0.00132
3770.11497,0.00121
3768.05480,0.00100
3765.99463,0.00095
3763.93446,0.00120
3761.87429,0.00163
3759.81411,0.00171
3757.75394,0.00152
3755.69377,0.00162
3753.63360,0.00187
3751.57342,0.00191
3749.51325,0.00208
3747.45308,0.00228
3745.39291,0.00199
3743.33274,0.00149
3741.27256,0.00173
3739.21239,0.00248
3737.15222,0.00292
3735.09205,0.00279
3733.03188,0.00218
3730.97170,0.00164
3728.91153,0.00164
3726.85136,0.00178
3724.79119,0.00145
3722.73102,0.00099
3720.67084,0.00109
3718.61067,0.00156
3716.55050,0.00209
3714.49033,0.00243
3712.43015,0.00206
3710.36998,0.00130
3708.30981,0.00111
3706.24964,0.00156
3704.18947,0.00186
3702.12929,0.00161
3700.06912,0.00135
3698.00895,0.00147
3695.94878,0.00169
3693.88861,0.00173
3691.82843,0.00176
3689.76826,0.00197
3687.70809,0.00226
3685.64792,0.00233
3683.58775,0.00221
3681.52757,0.00207
3679.46740,0.00218
3677.40723,0.00245
3675.34706,0.00239
3673.28688,0.00225
3671.22671,0.00255
3669.16654,0.00290
3667.10637,0.00311
3665.04620,0.00342
3662.98602,0.00369
3660.92585,0.00388
3658.86568,0.00397
3656.80551,0.00392
3654.74534,0.00399
3652.68516,0.00451
3650.62499,0.00541
3648.56482,0.00619
3646.50465,0.00639
3644.44447,0.00653
3642.38430,0.00678
3640.32413,0.00704
3638.26396,0.00754
3636.20379,0.00834
3634.14361,0.00909
3632.08344,0.00967
3630.02327,0.01002
3627.96310,0.01003
3625.90293,0.01007
3623.84275,0.01053
3621.78258,0.01116
3619.72241,0.01158
3617.66224,0.01178
3615.60207,0.01215
3613.54189,0.01284
3611.48172,0.01360
3609.42155,0.01416
3607.36138,0.01432
3605.30120,0.01440
3603.24103,0.01482
3601.18086,0.01531
3599.12069,0.01553
3597.06052,0.01567
3595.00034,0.01607
3592.94017,0.01667
3590.88000,0.01726
3588.81983,0.01775
3586.75966,0.01813
3584.69948,0.01840
3582.63931,0.01880
3580.57914,0.01926
3578.51897,0.01956
3576.45879,0.01985
3574.39862,0.02041
3572.33845,0.02112
3570.27828,0.02174
3568.21811,0.02219
3566.15793,0.02241
3564.09776,0.02262
3562.03759,0.02308
3559.97742,0.02356
3557.91725,0.02406
3555.85707,0.02482
3553.79690,0.02557
3551.73673,0.02601
3549.67656,0.02633
3547.61639,0.02676
3545.55621,0.02717
3543.49604,0.02740
3541.43587,0.02750
3539.37570,0.02754
3537.31552,0.02771
3535.25535,0.02813
3533.19518,0.02866
3531.13501,0.02919
3529.07484,0.02987
3527.01466,0.03072
3524.95449,0.03141
3522.89432,0.03158
3520.83415,0.03145
3518.77398,0.03155
3516.71380,0.03189
3514.65363,0.03215
3512.59346,0.03241
3510.53329,0.03283
3508.47312,0.03331
3506.41294,0.03373
3504.35277,0.03429
3502.29260,0.03512
3500.23243,0.03588
3498.17225,0.03629
3496.11208,0.03641
3494.05191,0.03654
3491.99174,0.03684
3489.93157,0.03720
3487.87139,0.03758
3485.81122,0.03802
3483.75105,0.03839
3481.69088,0.03857
3479.63071,0.03864
3477.57053,0.03876
3475.51036,0.03915
3473.45019,0.03988
3471.39002,0.04053
3469.32984,0.04068
3467.26967,0.04058
3465.20950,0.04066
3463.14933,0.04091
3461.08916,0.04135
3459.02898,0.04208
3456.96881,0.04277
3454.90864,0.04312
3452.84847,0.04325
3450.78830,0.04335
3448.72812,0.04362
3446.66795,0.04409
3444.60778,0.04452
3442.54761,0.04469
3440.48744,0.04471
3438.42726,0.04488
3436.36709,0.04543
3434.30692,0.04611
3432.24675,0.04640
3430.18657,0.04644
3428.12640,0.04660
3426.06623,0.04680
3424.00606,0.04699
3421.94589,0.04729
3419.88571,0.04756
3417.82554,0.04770
3415.76537,0.04786
3413.70520,0.04800
3411.64503,0.04804
3409.58485,0.04820
3407.52468,0.04861
3405.46451,0.04906
3403.40434,0.04928
3401.34416,0.04940
3399.28399,0.04982
3397.22382,0.04997
3395.16365,0.05001
3393.10348,0.05013
3391.04330,0.05021
3388.98313,0.05031
3386.92296,0.05049
3384.86279,0.05057
3382.80262,0.05051
3380.74244,0.05046
3378.68227,0.05056
3376.62210,0.05086
3374.56193,0.05117
3372.50176,0.05136
3370.44158,0.05156
3368.38141,0.05164
3366.32124,0.05158
3364.26107,0.05171
3362.20089,0.05198
3360.14072,0.05209
3358.08055,0.05201
3356.02038,0.05194
3353.96021,0.05201
3351.90003,0.05218
3349.83986,0.05233
3347.77969,0.05246
3345.71952,0.05264
3343.65935,0.05275
3341.59917,0.05275
3339.53900,0.05273
3337.47883,0.05281
3335.41866,0.05288
3333.35849,0.05282
3331.29831,0.05278
3329.23814,0.05285
3327.17797,0.05297
3325.11780,0.05317
3323.05762,0.05335
3320.99745,0.05348
3318.93728,0.05359
3316.87711,0.05364
3314.81694,0.05375
3312.75676,0.05394
3310.69659,0.05404
3308.63642,0.05409
3306.57625,0.05409
3304.51608,0.05398
3302.45590,0.05384
3300.39573,0.05379
3298.33556,0.05385
3296.27539,0.05403
3294.21521,0.05426
3292.15504,0.05429
3290.09487,0.05422
3288.03470,0.05426
3285.97453,0.05447
3283.91435,0.05483
3281.85418,0.05500
3279.79401,0.05471
3277.73384,0.05441
3275.67367,0.05450
3273.61349,0.05469
3271.55332,0.05469
3269.49315,0.05463
3267.43298,0.05461
3265.37281,0.05457
3263.31263,0.05450
3261.25246,0.05454
3259.19229,0.05474
3257.13212,0.05491
3255.07194,0.05492
3253.01177,0.05474
3250.95160,0.05437
3248.89143,0.05406
3246.83126,0.05400
3244.77108,0.05422
3242.71091,0.05451
3240.65074,0.05448
3238.59057,0.05432
3236.53040,0.05431
3234.47022,0.05427
3232.41005,0.05418
3230.34988,0.05414
3228.28971,0.05419
3226.22954,0.05419
3224.16936,0.05398
3222.10919,0.05380
3220.04902,0.05382
3217.98885,0.05381
3215.92867,0.05367
3213.86850,0.05353
3211.80833,0.05336
3209.74816,0.05313
3207.68799,0.05296
3205.62781,0.05300
3203.56764,0.05299
3201.50747,0.05275
3199.44730,0.05254
3197.38713,0.05247
3195.32695,0.05247
3193.26678,0.05253
3191.20661,0.05250
3189.14644,0.05242
3187.08626,0.05238
3185.02609,0.05223
3182.96592,0.05196
3180.90575,0.05175
3178.84558,0.05160
3176.78540,0.05153
3174.72523,0.05145
3172.66506,0.05114
3170.60489,0.05075
3168.54472,0.05045
3166.48454,0.05012
3164.42437,0.04985
3162.36420,0.04991
3160.30403,0.05006
3158.24386,0.04991
3156.18368,0.04969
3154.12351,0.04972
3152.06334,0.04975
3150.00317,0.04958
3147.94299,0.04936
3145.88282,0.04918
3143.82265,0.04905
3141.76248,0.04892
3139.70231,0.04864
3137.64213,0.04838
3135.58196,0.04826
3133.52179,0.04803
3131.46162,0.04773
3129.40145,0.04769
3127.34127,0.04776
3125.28110,0.04757
3123.22093,0.04734
3121.16076,0.04729
3119.10058,0.04717
3117.04041,0.04693
3114.98024,0.04666
3112.92007,0.04632
3110.85990,0.04603
3108.79972,0.04593
3106.73955,0.04592
3104.67938,0.04587
3102.61921,0.04577
3100.55904,0.04569
3098.49886,0.04562
3096.43869,0.04554
3094.37852,0.04531
3092.31835,0.04484
3090.25818,0.04433
3088.19800,0.04404
3086.13783,0.04400
3084.07766,0.04403
3082.01749,0.04388
3079.95731,0.04352
3077.89714,0.04309
3075.83697,0.04280
3073.77680,0.04278
3071.71663,0.04282
3069.65645,0.04260
3067.59628,0.04221
3065.53611,0.04197
3063.47594,0.04185
3061.41577,0.04159
3059.35559,0.04134
3057.29542,0.04120
3055.23525,0.04108
3053.17508,0.04097
3051.11491,0.04082
3049.05473,0.04044
3046.99456,0.03989
3044.93439,0.03949
3042.87422,0.03935
3040.81404,0.03926
3038.75387,0.03908
3036.69370,0.03886
3034.63353,0.03861
3032.57336,0.03837
3030.51318,0.03812
3028.45301,0.03787
3026.39284,0.03773
3024.33267,0.03754
3022.27250,0.03714
3020.21232,0.03681
3018.15215,0.03672
3016.09198,0.03655
3014.03181,0.03628
3011.97163,0.03614
3009.91146,0.03601
3007.85129,0.03566
3005.79112,0.03533
3003.73095,0.03528
3001.67077,0.03534
2999.61060,0.03529
2997.55043,0.03511
2995.49026,0.03480
2993.43009,0.03453
2991.36991,0.03434
2989.30974,0.03418
2987.24957,0.03402
2985.18940,0.03396
2983.12923,0.03403
2981.06905,0.03396
2979.00888,0.03378
2976.94871,0.03378
2974.88854,0.03382
2972.82836,0.03373
2970.76819,0.03361
2968.70802,0.03359
2966.64785,0.03351
2964.58768,0.03328
2962.52750,0.03318
2960.46733,0.03319
2958.40716,0.03317
2956.34699,0.03315
2954.28682,0.03315
2952.22664,0.03303
2950.16647,0.03294
2948.10630,0.03301
2946.04613,0.03294
2943.98596,0.03271
2941.92578,0.03255
2939.86561,0.03250
2937.80544,0.03251
2935.74527,0.03255
2933.68509,0.03241
2931.62492,0.03206
2929.56475,0.03186
2927.50458,0.03187
2925.44441,0.03184
2923.38423,0.03160
2921.32406,0.03118
2919.26389,0.03083
2917.20372,0.03064
2915.14355,0.03045
2913.08337,0.03019
2911.02320,0.02994
2908.96303,0.02975
2906.90286,0.02963
2904.84268,0.02946
2902.78251,0.02915
2900.72234,0.02876
2898.66217,0.02844
2896.60200,0.02826
2894.54182,0.02816
2892.48165,0.02813
2890.42148,0.02813
2888.36131,0.02802
2886.30114,0.02770
2884.24096,0.02739
2882.18079,0.02730
2880.12062,0.02727
2878.06045,0.02711
2876.00028,0.02689
2873.94010,0.02681
2871.87993,0.02682
2869.81976,0.02664
2867.75959,0.02625
2865.69941,0.02597
2863.63924,0.02585
2861.57907,0.02568
2859.51890,0.02535
2857.45873,0.02485
2855.39855,0.02435
2853.33838,0.02418
2851.27821,0.02428
2849.21804,0.02421
2847.15787,0.02386
2845.09769,0.02346
2843.03752,0.02317
2840.97735,0.02298
2838.91718,0.02287
2836.85700,0.02272
2834.79683,0.02254
2832.73666,0.02239
2830.67649,0.02218
2828.61632,0.02189
2826.55614,0.02162
2824.49597,0.02150
2822.43580,0.02142
2820.37563,0.02124
2818.31546,0.02102
2816.25528,0.02085
2814.19511,0.02072
2812.13494,0.02060
2810.07477,0.02042
2808.01460,0.02018
2805.95442,0.01999
2803.89425,0.01992
2801.83408,0.01991
2799.77391,0.01981
2797.71373,0.01963
2795.65356,0.01957
2793.59339,0.01955
2791.53322,0.01942
2789.47305,0.01923
2787.41287,0.01903
2785.35270,0.01879
2783.29253,0.01843
2781.23236,0.01809
2779.17219,0.01807
2777.11201,0.01833
2775.05184,0.01842
2772.99167,0.01817
2770.93150,0.01796
2768.87133,0.01789
2766.81115,0.01762
2764.75098,0.01723
2762.69081,0.01708
2760.63064,0.01710
2758.57046,0.01703
2756.51029,0.01692
2754.45012,0.01691
2752.38995,0.01680
2750.32978,0.01654
2748.26960,0.01636
2746.20943,0.01633
2744.14926,0.01625
2742.08909,0.01601
2740.02892,0.01580
2737.96874,0.01576
2735.90857,0.01573
2733.84840,0.01557
2731.78823,0.01537
2729.72805,0.01523
2727.66788,0.01521
2725.60771,0.01525
2723.54754,0.01521
2721.48737,0.01510
2719.42719,0.01498
2717.36702,0.01478
2715.30685,0.01458
2713.24668,0.01458
2711.18651,0.01459
2709.12633,0.01444
2707.06616,0.01422
2705.00599,0.01405
2702.94582,0.01399
2700.88565,0.01395
2698.82547,0.01386
2696.76530,0.01375
2694.70513,0.01360
2692.64496,0.01338
2690.58478,0.01323
2688.52461,0.01320
2686.46444,0.01317
2684.40427,0.01310
2682.34410,0.01301
2680.28392,0.01284
2678.22375,0.01262
2676.16358,0.01247
2674.10341,0.01242
2672.04324,0.01236
2669.98306,0.01220
2667.92289,0.01207
2665.86272,0.01211
2663.80255,0.01219
2661.74238,0.01212
2659.68220,0.01197
2657.62203,0.01183
2655.56186,0.01156
2653.50169,0.01126
2651.44151,0.01117
2649.38134,0.01128
2647.32117,0.01135
2645.26100,0.01126
2643.20083,0.01116
2641.14065,0.01119
2639.08048,0.01120
2637.02031,0.01108
2634.96014,0.01092
2632.89997,0.01076
2630.83979,0.01059
2628.77962,0.01042
2626.71945,0.01031
2624.65928,0.01028
2622.59910,0.01024
2620.53893,0.01019
2618.47876,0.01016
2616.41859,0.01003
2614.35842,0.00984
2612.29824,0.00978
2610.23807,0.00978
2608.17790,0.00970
2606.11773,0.00966
2604.05756,0.00953
2601.99738,0.00918
2599.93721,0.00889
2597.87704,0.00879
2595.81687,0.00889
2593.75670,0.00907
2591.69652,0.00926
2589.63635,0.00929
2587.57618,0.00904
2585.51601,0.00882
2583.45583,0.00889
2581.39566,0.00898
2579.33549,0.00888
2577.27532,0.00869
2575.21515,0.00870
2573.15497,0.00882
2571.09480,0.00870
2569.03463,0.00845
2566.97446,0.00837
2564.91429,0.00842
2562.85411,0.00841
2560.79394,0.00834
2558.73377,0.00839
2556.67360,0.00847
2554.61342,0.00840
2552.55325,0.00838
2550.49308,0.00848
2548.43291,0.00855
2546.37274,0.00860
2544.31256,0.00863
2542.25239,0.00838
2540.19222,0.00800
2538.13205,0.00791
2536.07188,0.00793
2534.01170,0.00790
2531.95153,0.00791
2529.89136,0.00791
2527.83119,0.00794
2525.77102,0.00809
2523.71084,0.00820
2521.65067,0.00829
2519.59050,0.00839
2517.53033,0.00834
2515.47015,0.00838
2513.40998,0.00854
2511.34981,0.00847
2509.28964,0.00842
2507.22947,0.00854
2505.16929,0.00846
2503.10912,0.00821
2501.04895,0.00811
2498.98878,0.00823
2496.92861,0.00832
2494.86843,0.00831
2492.80826,0.00848
2490.74809,0.00874
2488.68792,0.00883
2486.62775,0.00883
2484.56757,0.00888
2482.50740,0.00896
2480.44723,0.00902
2478.38706,0.00894
2476.32688,0.00881
2474.26671,0.00878
2472.20654,0.00876
2470.14637,0.00891
2468.08620,0.00917
2466.02602,0.00913
2463.96585,0.00901
2461.90568,0.00917
2459.84551,0.00933
2457.78534,0.00919
2455.72516,0.00905
2453.66499,0.00916
2451.60482,0.00927
2449.54465,0.00922
2447.48447,0.00914
2445.42430,0.00916
2443.36413,0.00915
2441.30396,0.00902
2439.24379,0.00875
2437.18361,0.00855
2435.12344,0.00870
2433.06327,0.00897
2431.00310,0.00905
2428.94293,0.00913
2426.88275,0.00927
2424.82258,0.00920
2422.76241,0.00898
2420.70224,0.00882
2418.64207,0.00876
2416.58189,0.00875
2414.52172,0.00865
2412.46155,0.00860
2410.40138,0.00868
2408.34120,0.00877
2406.28103,0.00889
2404.22086,0.00894
2402.16069,0.00891
2400.10052,0.00877
2398.04034,0.00861
2395.98017,0.00863
2393.92000,0.00883
2391.85983,0.00900
2389.79966,0.00906
2387.73948,0.00908
2385.67931,0.00931
2383.61914,0.00968
2381.55897,0.00983
2379.49880,0.00968
2377.43862,0.00958
2375.37845,0.00943
2373.31828,0.00910
2371.25811,0.00856
2369.19793,0.00809
2367.13776,0.00855
2365.07759,0.00935
2363.01742,0.00861
2360.95725,0.00848
2358.89707,0.00870
2356.83690,0.00827
2354.77673,0.00709
2352.71656,0.00701
2350.65639,0.00924
2348.59621,0.01052
2346.53604,0.00813
2344.47587,0.00725
2342.41570,0.00726
2340.35552,0.00721
2338.29535,0.00729
2336.23518,0.00702
2334.17501,0.00688
2332.11484,0.00717
2330.05466,0.00814
2327.99449,0.00927
2325.93432,0.01043
2323.87415,0.01027
2321.81398,0.00976
2319.75380,0.00960
2317.69363,0.01053
2315.63346,0.01102
2313.57329,0.01056
2311.51312,0.00986
2309.45294,0.00956
2307.39277,0.00969
2305.33260,0.00972
2303.27243,0.00947
2301.21225,0.00921
2299.15208,0.00927
2297.09191,0.00936
2295.03174,0.00941
2292.97157,0.00955
2290.91139,0.00932
2288.85122,0.00879
2286.79105,0.00866
2284.73088,0.00905
2282.67071,0.00937
2280.61053,0.00909
2278.55036,0.00835
2276.49019,0.00783
2274.43002,0.00779
2272.36984,0.00764
2270.30967,0.00717
2268.24950,0.00697
2266.18933,0.00738
2264.12916,0.00797
2262.06898,0.00826
2260.00881,0.00811
2257.94864,0.00767
2255.88847,0.00726
2253.82830,0.00718
2251.76812,0.00723
2249.70795,0.00698
2247.64778,0.00664
2245.58761,0.00663
2243.52744,0.00670
2241.46726,0.00657
2239.40709,0.00638
2237.34692,0.00625
2235.28675,0.00609
2233.22657,0.00590
2231.16640,0.00570
2229.10623,0.00573
2227.04606,0.00618
2224.98589,0.00679
2222.92571,0.00703
2220.86554,0.00668
2218.80537,0.00632
2216.74520,0.00631
2214.68503,0.00634
2212.62485,0.00643
2210.56468,0.00658
2208.50451,0.00628
2206.44434,0.00588
2204.38417,0.00591
2202.32399,0.00617
2200.26382,0.00628
2198.20365,0.00572
2196.14348,0.00501
2194.08330,0.00511
2192.02313,0.00530
2189.96296,0.00508
2187.90279,0.00512
2185.84262,0.00520
2183.78244,0.00511
2181.72227,0.00509
2179.66210,0.00476
2177.60193,0.00397
2175.54176,0.00340
2173.48158,0.00403
2171.42141,0.00554
2169.36124,0.00608
2167.30107,0.00525
2165.24089,0.00515
2163.18072,0.00602
2161.12055,0.00519
2159.06038,0.00337
2157.00021,0.00315
2154.94003,0.00366
2152.87986,0.00389
2150.81969,0.00386
2148.75952,0.00336
2146.69935,0.00304
2144.63917,0.00322
2142.57900,0.00343
2140.51883,0.00342
2138.45866,0.00317
2136.39849,0.00309
2134.33831,0.00371
2132.27814,0.00451
2130.21797,0.00460
2128.15780,0.00423
2126.09762,0.00429
2124.03745,0.00466
2121.97728,0.00448
2119.91711,0.00421
2117.85694,0.00455
2115.79676,0.00476
2113.73659,0.00440
2111.67642,0.00412
2109.61625,0.00420
2107.55608,0.00454
2105.49590,0.00505
2103.43573,0.00549
2101.37556,0.00544
2099.31539,0.00481
2097.25521,0.00447
2095.19504,0.00451
2093.13487,0.00444
2091.07470,0.00431
2089.01453,0.00438
2086.95435,0.00463
2084.89418,0.00460
2082.83401,0.00400
2080.77384,0.00329
2078.71367,0.00292
2076.65349,0.00302
2074.59332,0.00358
2072.53315,0.00395
2070.47298,0.00411
2068.41281,0.00471
2066.35263,0.00518
2064.29246,0.00486
2062.23229,0.00431
2060.17212,0.00426
2058.11194,0.00479
2056.05177,0.00548
2053.99160,0.00605
2051.93143,0.00617
2049.87126,0.00528
2047.81108,0.00389
2045.75091,0.00336
2043.69074,0.00378
2041.63057,0.00429
2039.57040,0.00400
2037.51022,0.00269
2035.45005,0.00174
2033.38988,0.00201
2031.32971,0.00248
2029.26954,0.00252
2027.20936,0.00254
2025.14919,0.00317
2023.08902,0.00417
2021.02885,0.00425
2018.96867,0.00338
2016.90850,0.00268
2014.84833,0.00207
2012.78816,0.00167
2010.72799,0.00175
2008.66781,0.00099
2006.60764,0.00000
2004.54747,0.00084
2002.48730,0.00211
2000.42713,0.00252
1998.36695,0.00313
1996.30678,0.00399
1994.24661,0.00414
1992.18644,0.00376
1990.12626,0.00364
1988.06609,0.00369
1986.00592,0.00353
1983.94575,0.00340
1981.88558,0.00353
1979.82540,0.00309
1977.76523,0.00210
1975.70506,0.00202
1973.64489,0.00257
1971.58472,0.00239
1969.52454,0.00150
1967.46437,0.00081
1965.40420,0.00078
1963.34403,0.00085
1961.28386,0.00048
1959.22368,0.00035
1957.16351,0.00096
1955.10334,0.00158
1953.04317,0.00189
1950.98299,0.00208
1948.92282,0.00192
1946.86265,0.00150
1944.80248,0.00124
1942.74231,0.00115
1940.68213,0.00080
1938.62196,0.00027
1936.56179,0.00040
1934.50162,0.00120
1932.44145,0.00185
1930.38127,0.00208
1928.32110,0.00232
1926.26093,0.00249
1924.20076,0.00215
1922.14059,0.00170
1920.08041,0.00172
1918.02024,0.00200
1915.96007,0.00217
1913.89990,0.00221
1911.83972,0.00218
1909.77955,0.00207
1907.71938,0.00196
1905.65921,0.00179
1903.59904,0.00159
1901.53886,0.00146
1899.47869,0.00129
1897.41852,0.00105
1895.35835,0.00084
1893.29818,0.00065
1891.23800,0.00054
1889.17783,0.00073
1887.11766,0.00105
1885.05749,0.00116
1882.99731,0.00106
1880.93714,0.00106
1878.87697,0.00132
1876.81680,0.00155
1874.75663,0.00154
1872.69645,0.00151
1870.63628,0.00158
1868.57611,0.00160
1866.51594,0.00155
1864.45577,0.00151
1862.39559,0.00154
1860.33542,0.00153
1858.27525,0.00145
1856.21508,0.00150
1854.15491,0.00167
1852.09473,0.00175
1850.03456,0.00182
1847.97439,0.00192
1845.91422,0.00190
1843.85404,0.00181
1841.79387,0.00175
1839.73370,0.00176
1837.67353,0.00181
1835.61336,0.00178
1833.55318,0.00154
1831.49301,0.00120
1829.43284,0.00099
1827.37267,0.00099
1825.31250,0.00113
1823.25232,0.00131
1821.19215,0.00141
1819.13198,0.00138
1817.07181,0.00139
1815.01163,0.00146
1812.95146,0.00148
1810.89129,0.00150
1808.83112,0.00159
1806.77095,0.00161
1804.71077,0.00159
1802.65060,0.00164
1800.59043,0.00175
1798.53026,0.00193
1796.47009,0.00220
1794.40991,0.00232
1792.34974,0.00207
1790.28957,0.00172
1788.22940,0.00167
1786.16923,0.00188
1784.10905,0.00214
1782.04888,0.00232
1779.98871,0.00242
1777.92854,0.00244
1775.86836,0.00232
1773.80819,0.00209
1771.74802,0.00202
1769.68785,0.00232
1767.62768,0.00275
1765.56750,0.00306
1763.50733,0.00334
1761.44716,0.00369
1759.38699,0.00408
1757.32682,0.00448
1755.26664,0.00483
1753.20647,0.00504
1751.14630,0.00518
1749.08613,0.00553
1747.02596,0.00613
1744.96578,0.00660
1742.90561,0.00667
1740.84544,0.00649
1738.78527,0.00643
1736.72509,0.00648
1734.66492,0.00644
1732.60475,0.00652
1730.54458,0.00682
1728.48441,0.00713
1726.42423,0.00736
1724.36406,0.00752
1722.30389,0.00759
1720.24372,0.00749
1718.18355,0.00730
1716.12337,0.00738
1714.06320,0.00771
1712.00303,0.00816
1709.94286,0.00847
1707.88268,0.00851
1705.82251,0.00861
1703.76234,0.00895
1701.70217,0.00928
1699.64200,0.00975
1697.58182,0.01076
1695.52165,0.01220
1693.46148,0.01345
1691.40131,0.01432
1689.34114,0.01511
1687.28096,0.01584
1685.22079,0.01664
1683.16062,0.01807
1681.10045,0.01951
1679.04028,0.02038
1676.98010,0.02102
1674.91993,0.02181
1672.85976,0.02272
1670.79959,0.02375
1668.73941,0.02505
1666.67924,0.02619
1664.61907,0.02698
1662.55890,0.02785
1660.49873,0.02880
1658.43855,0.02934
1656.37838,0.02933
1654.31821,0.02928
1652.25804,0.02998
1650.19787,0.03065
1648.13769,0.03078
1646.07752,0.03079
1644.01735,0.03089
1641.95718,0.03079
1639.89701,0.03033
1637.83683,0.02954
1635.77666,0.02882
1633.71649,0.02850
1631.65632,0.02831
1629.59614,0.02793
1627.53597,0.02739
1625.47580,0.02682
1623.41563,0.02629
1621.35546,0.02606
1619.29528,0.02581
1617.23511,0.02521
1615.17494,0.02469
1613.11477,0.02449
1611.05460,0.02419
1608.99442,0.02367
1606.93425,0.02317
1604.87408,0.02281
1602.81391,0.02263
1600.75373,0.02257
1598.69356,0.02245
1596.63339,0.02213
1594.57322,0.02167
1592.51305,0.02120
1590.45287,0.02078
1588.39270,0.02041
1586.33253,0.02005
1584.27236,0.01964
1582.21219,0.01922
1580.15201,0.01877
1578.09184,0.01820
1576.03167,0.01767
1573.97150,0.01746
1571.91133,0.01732
1569.85115,0.01708
1567.79098,0.01687
1565.73081,0.01667
1563.67064,0.01643
1561.61046,0.01618
1559.55029,0.01604
1557.49012,0.01612
1555.42995,0.01614
1553.36978,0.01610
1551.30960,0.01595
1549.24943,0.01569
1547.18926,0.01540
1545.12909,0.01492
1543.06892,0.01408
1541.00874,0.01319
1538.94857,0.01307
1536.88840,0.01346
1534.82823,0.01350
1532.76805,0.01304
1530.70788,0.01251
1528.64771,0.01207
1526.58754,0.01168
1524.52737,0.01129
1522.46719,0.01087
1520.40702,0.01060
1518.34685,0.01043
1516.28668,0.01024
1514.22651,0.01007
1512.16633,0.00986
1510.10616,0.00940
1508.04599,0.00856
1505.98582,0.00782
1503.92565,0.00771
1501.86547,0.00771
1499.80530,0.00723
1497.74513,0.00653
1495.68496,0.00621
1493.62478,0.00622
1491.56461,0.00621
1489.50444,0.00602
1487.44427,0.00567
1485.38410,0.00540
1483.32392,0.00530
1481.26375,0.00527
1479.20358,0.00527
1477.14341,0.00531
1475.08324,0.00540
1473.02306,0.00560
1470.96289,0.00597
1468.90272,0.00641
1466.84255,0.00674
1464.78238,0.00703
1462.72220,0.00729
1460.66203,0.00725
1458.60186,0.00698
1456.54169,0.00700
1454.48151,0.00723
1452.42134,0.00735
1450.36117,0.00735
1448.30100,0.00741
1446.24083,0.00752
1444.18065,0.00757
1442.12048,0.00750
1440.06031,0.00734
1438.00014,0.00720
1435.93997,0.00723
1433.87979,0.00737
1431.81962,0.00754
1429.75945,0.00779
1427.69928,0.00809
1425.63910,0.00839
1423.57893,0.00874
1421.51876,0.00916
1419.45859,0.00969
1417.39842,0.01024
1415.33824,0.01051
1413.27807,0.01051
1411.21790,0.01047
1409.15773,0.01047
1407.09756,0.01041
1405.03738,0.01027
1402.97721,0.01012
1400.91704,0.00998
1398.85687,0.00983
1396.79670,0.00955
1394.73652,0.00913
1392.67635,0.00876
1390.61618,0.00853
1388.55601,0.00838
1386.49583,0.00828
1384.43566,0.00814
1382.37549,0.00793
1380.31532,0.00776
1378.25515,0.00763
1376.19497,0.00749
1374.13480,0.00741
1372.07463,0.00733
1370.01446,0.00717
1367.95429,0.00695
1365.89411,0.00670
1363.83394,0.00642
1361.77377,0.00619
1359.71360,0.00605
1357.65343,0.00596
1355.59325,0.00588
1353.53308,0.00577
1351.47291,0.00566
1349.41274,0.00559
1347.35256,0.00546
1345.29239,0.00522
1343.23222,0.00500
1341.17205,0.00497
1339.11188,0.00510
1337.05170,0.00510
1334.99153,0.00494
1332.93136,0.00476
1330.87119,0.00466
1328.81102,0.00463
1326.75084,0.00461
1324.69067,0.00459
1322.63050,0.00463
1320.57033,0.00466
1318.51015,0.00469
1316.44998,0.00481
1314.38981,0.00495
1312.32964,0.00491
1310.26947,0.00480
1308.20929,0.00475
1306.14912,0.00469
1304.08895,0.00468
1302.02878,0.00480
1299.96861,0.00491
1297.90843,0.00495
1295.84826,0.00500
1293.78809,0.00513
1291.72792,0.00530
1289.66775,0.00545
1287.60757,0.00543
1285.54740,0.00522
1283.48723,0.00504
1281.42706,0.00504
1279.36688,0.00515
1277.30671,0.00526
1275.24654,0.00532
1273.18637,0.00531
1271.12620,0.00536
1269.06602,0.00550
1267.00585,0.00567
1264.94568,0.00584
1262.88551,0.00603
1260.82534,0.00620
1258.76516,0.00625
1256.70499,0.00625
1254.64482,0.00636
1252.58465,0.00646
1250.52447,0.00649
1248.46430,0.00656
1246.40413,0.00663
1244.34396,0.00654
1242.28379,0.00636
1240.22361,0.00620
1238.16344,0.00603
1236.10327,0.00589
1234.04310,0.00572
1231.98293,0.00543
1229.92275,0.00515
1227.86258,0.00495
1225.80241,0.00462
1223.74224,0.00407
1221.68207,0.00346
1219.62189,0.00306
1217.56172,0.00291
1215.50155,0.00271
1213.44138,0.00234
1211.38120,0.00190
1209.32103,0.00143
1207.26086,0.00107
1205.20069,0.00087
1203.14052,0.00070
1201.08034,0.00053
1199.02017,0.00043
1196.96000,0.00030
1194.89983,0.00017
1192.83966,0.00008
1190.77948,0.00000
1188.71931,-0.00011
1186.65914,-0.00011
1184.59897,0.00005
1182.53880,0.00030
1180.47862,0.00060
1178.41845,0.00095
1176.35828,0.00137
1174.29811,0.00175
1172.23793,0.00205
1170.17776,0.00241
1168.11759,0.00296
1166.05742,0.00359
1163.99725,0.00414
1161.93707,0.00470
1159.87690,0.00530
1157.81673,0.00600
1155.75656,0.00689
1153.69639,0.00789
1151.63621,0.00883
1149.57604,0.00978
1147.51587,0.01071
1145.45570,0.01152
1143.39552,0.01238
1141.33535,0.01350
1139.27518,0.01472
1137.21501,0.01591
1135.15484,0.01722
1133.09466,0.01872
1131.03449,0.02026
1128.97432,0.02190
1126.91415,0.02366
1124.85398,0.02532
1122.79380,0.02688
1120.73363,0.02862
1118.67346,0.03063
1116.61329,0.03277
1114.55312,0.03489
1112.49294,0.03679
1110.43277,0.03855
1108.37260,0.04043
1106.31243,0.04229
1104.25225,0.04398
1102.19208,0.04566
1100.13191,0.04732
1098.07174,0.04878
1096.01157,0.05007
1093.95139,0.05138
1091.89122,0.05272
1089.83105,0.05390
1087.77088,0.05495
1085.71071,0.05604
1083.65053,0.05726
1081.59036,0.05856
1079.53019,0.05968
1077.47002,0.06049
1075.40985,0.06128
1073.34967,0.06220
1071.28950,0.06288
1069.22933,0.06318
1067.16916,0.06326
1065.10898,0.06308
1063.04881,0.06275
1060.98864,0.06241
1058.92847,0.06182
1056.86830,0.06073
1054.80812,0.05941
1052.74795,0.05828
1050.68778,0.05718
1048.62761,0.05575
1046.56744,0.05393
1044.50726,0.05194
1042.44709,0.04993
1040.38692,0.04786
1038.32675,0.04566
1036.26657,0.04351
1034.20640,0.04145
1032.14623,0.03931
1030.08606,0.03716
1028.02589,0.03515
1025.96571,0.03343
1023.90554,0.03209
1021.84537,0.03083
1019.78520,0.02955
1017.72503,0.02857
1015.66485,0.02785
1013.60468,0.02730
1011.54451,0.02701
1009.48434,0.02693
1007.42417,0.02701
1005.36399,0.02738
1003.30382,0.02807
1001.24365,0.02909
999.18348,0.03034
997.12330,0.03158
995.06313,0.03279
993.00296,0.03413
990.94279,0.03554
988.88262,0.03672
986.82244,0.03760
984.76227,0.03815
982.70210,0.03826
980.64193,0.03819
978.58176,0.03814
976.52158,0.03771
974.46141,0.03664
972.40124,0.03536
970.34107,0.03410
968.28089,0.03271
966.22072,0.03111
964.16055,0.02922
962.10038,0.02710
960.04021,0.02503
957.98003,0.02325
955.91986,0.02162
953.85969,0.01986
951.79952,0.01799
949.73935,0.01622
947.67917,0.01450
945.61900,0.01280
943.55883,0.01133
941.49866,0.01031
939.43849,0.00957
937.37831,0.00873
935.31814,0.00772
933.25797,0.00684
931.19780,0.00617
929.13762,0.00547
927.07745,0.00469
925.01728,0.00405
922.95711,0.00358
920.89694,0.00309
918.83676,0.00260
916.77659,0.00224
914.71642,0.00210
912.65625,0.00202
910.59608,0.00173
908.53590,0.00131
906.47573,0.00120
904.41556,0.00147
902.35539,0.00182
900.29522,0.00193
898.23504,0.00188
896.17487,0.00211
894.11470,0.00274
892.05453,0.00350
889.99435,0.00414
887.93418,0.00457
885.87401,0.00508
883.81384,0.00579
881.75367,0.00647
879.69349,0.00708
877.63332,0.00772
875.57315,0.00836
873.51298,0.00896
871.45281,0.00967
869.39263,0.01044
867.33246,0.01104
865.27229,0.01142
863.21212,0.01169
861.15194,0.01195
859.09177,0.01223
857.03160,0.01243
854.97143,0.01254
852.91126,0.01246
850.85108,0.01208
848.79091,0.01164
846.73074,0.01120
844.67057,0.01071
842.61040,0.01037
840.55022,0.01023
838.49005,0.00990
836.42988,0.00931
834.36971,0.00871
832.30954,0.00794
830.24936,0.00710
828.18919,0.00658
826.12902,0.00603
824.06885,0.00530
822.00867,0.00475
819.94850,0.00441
817.88833,0.00410
815.82816,0.00388
813.76799,0.00375
811.70781,0.00341
809.64764,0.00283
807.58747,0.00232
805.52730,0.00196
803.46713,0.00158
801.40695,0.00124
799.34678,0.00100
797.28661,0.00089
795.22644,0.00098
793.16627,0.00102
791.10609,0.00111
789.04592,0.00141
786.98575,0.00171
784.92558,0.00195
782.86540,0.00200
780.80523,0.00172
778.74506,0.00111
776.68489,0.00064
774.62472,0.00056
772.56454,0.00067
770.50437,0.00083
768.44420,0.00072
766.38403,0.00042
764.32386,0.00023
762.26368,0.00022
760.20351,0.00023
758.14334,0.00031
756.08317,0.00060
754.02299,0.00064
751.96282,0.00022
749.90265,0.00000
747.84248,0.00010
745.78231,0.00009
743.72213,-0.00004
741.66196,0.00017
739.60179,0.00066
737.54162,0.00099
735.48145,0.00077
733.42127,0.00015
731.36110,-0.00016
729.30093,0.00013
727.24076,0.00042
725.18059,0.00012
723.12041,0.00007
721.06024,0.00018
719.00007,0.00054
716.93990,0.00048
714.87972,0.00045
712.81955,0.00079
710.75938,0.00089
708.69921,0.00079
706.63904,0.00092
704.57886,0.00110
702.51869,0.00094
700.45852,0.00056
698.39835,0.00042
696.33818,0.00085
694.27800,0.00150
692.21783,0.00177
690.15766,0.00155
688.09749,0.00120
686.03731,0.00129
683.97714,0.00180
681.91697,0.00219
679.85680,0.00243
677.79663,0.00254
675.73645,0.00233
673.67628,0.00248
671.61611,0.00336
669.55594,0.00144
667.49577,-0.00037
665.43559,0.00489
663.37542,0.00361
661.31525,0.00183
659.25508,0.00178
657.19491,0.00222
655.13473,0.00242
653.07456,0.00221
651.01439,0.00179
648.95422,0.00183
646.89404,0.00251
644.83387,0.00276
642.77370,0.00287
640.71353,0.00315
638.65336,0.00287
636.59318,0.00196
634.53301,0.00120
632.47284,0.00118
630.41267,0.00167
628.35250,0.00187
626.29232,0.00184
624.23215,0.00216
622.17198,0.00206
620.11181,0.00193
618.05164,0.00331
615.99146,0.00499
613.93129,0.00508
611.87112,0.00348
609.81095,0.00121
607.75077,0.00073
605.69060,0.00169
603.63043,0.00156
601.57026,0.00069
599.51009,0.00000
