3996.73391,0.00004
3994.67373,0.00000
3992.61356,0.00024
3990.55339,0.00035
3988.49322,0.00015
3986.43305,-0.00000
3984.37287,0.00011
3982.31270,0.00031
3980.25253,0.00036
3978.19236,0.00027
3976.13219,0.00026
3974.07201,0.00028
3972.01184,0.00017
3969.95167,0.00004
3967.89150,0.00008
3965.83133,0.00028
3963.77115,0.00042
3961.71098,0.00041
3959.65081,0.00033
3957.59064,0.00023
3955.53046,0.00012
3953.47029,0.00005
3951.41012,0.00007
3949.34995,0.00026
3947.28978,0.00055
3945.22960,0.00064
3943.16943,0.00055
3941.10926,0.00044
3939.04909,0.00036
3936.98892,0.00042
3934.92874,0.00065
3932.86857,0.00070
3930.80840,0.00038
3928.74823,0.00013
3926.68805,0.00020
3924.62788,0.00038
3922.56771,0.00062
3920.50754,0.00090
3918.44737,0.00102
3916.38719,0.00087
3914.32702,0.00061
3912.26685,0.00054
3910.20668,0.00076
3908.14651,0.00116
3906.08633,0.00136
3904.02616,0.00111
3901.96599,0.00068
3899.90582,0.00053
3897.84565,0.00070
3895.78547,0.00086
3893.72530,0.00081
3891.66513,0.00068
3889.60496,0.00086
3887.54478,0.00139
3885.48461,0.00186
3883.42444,0.00196
3881.36427,0.00172
3879.30410,0.00131
3877.24392,0.00113
3875.18375,0.00122
3873.12358,0.00138
3871.06341,0.00149
3869.00324,0.00146
3866.94306,0.00170
3864.88289,0.00211
3862.82272,0.00202
3860.76255,0.00165
3858.70237,0.00185
3856.64220,0.00270
3854.58203,0.00297
3852.52186,0.00177
3850.46169,0.00075
3848.40151,0.00086
3846.34134,0.00135
3844.28117,0.00170
3842.22100,0.00188
3840.16083,0.00182
3838.10065,0.00151
3836.04048,0.00125
3833.98031,0.00122
3831.92014,0.00124
3829.85997,0.00126
3827.79979,0.00127
3825.73962,0.00125
3823.67945,0.00110
3821.61928,0.00051
3819.55910,0.00000
3817.49893,0.00029
3815.43876,0.00076
3813.37859,0.00082
3811.31842,0.00085
3809.25824,0.00106
3807.19807,0.00126
3805.13790,0.00149
3803.07773,0.00168
3801.01756,0.00136
3798.95738,0.00101
3796.89721,0.00112
3794.83704,0.00119
3792.77687,0.00109
3790.71670,0.00108
3788.65652,0.00117
3786.59635,0.00128
3784.53618,0.00142
3782.47601,0.00151
3780.41583,0.00135
3778.35566,0.00117
3776.29549,0.00136
3774.23532,0.00180
3772.17515,0.00210
3770.11497,0.00201
3768.05480,0.00168
3765.99463,0.00150
3763.93446,0.00154
3761.87429,0.00149
3759.81411,0.00122
3757.75394,0.00129
3755.69377,0.00196
3753.63360,0.00260
3751.57342,0.00273
3749.51325,0.00268
3747.45308,0.00273
3745.39291,0.00244
3743.33274,0.00181
3741.27256,0.00191
3739.21239,0.00265
3737.15222,0.00299
3735.09205,0.00265
3733.03188,0.00193
3730.97170,0.00150
3728.91153,0.00165
3726.85136,0.00196
3724.79119,0.00188
3722.73102,0.00162
3720.67084,0.00155
3718.61067,0.00173
3716.55050,0.00236
3714.49033,0.00306
3712.43015,0.00277
3710.36998,0.00167
3708.30981,0.00113
3706.24964,0.00150
3704.18947,0.00200
3702.12929,0.00211
3700.06912,0.00199
3698.00895,0.00199
3695.94878,0.00219
3693.88861,0.00249
3691.82843,0.00274
3689.76826,0.00275
3687.70809,0.00270
3685.64792,0.00281
3683.58775,0.00309
3681.52757,0.00339
3679.46740,0.00373
3677.40723,0.00394
3675.34706,0.00364
3673.28688,0.00322
3671.22671,0.00321
3669.16654,0.00333
3667.10637,0.00366
3665.04620,0.00429
3662.98602,0.00485
3660.92585,0.00511
3658.86568,0.00514
3656.80551,0.00513
3654.74534,0.00546
3652.68516,0.00616
3650.62499,0.00664
3648.56482,0.00683
3646.50465,0.00718
3644.44447,0.00769
3642.38430,0.00812
3640.32413,0.00848
3638.26396,0.00903
3636.20379,0.00970
3634.14361,0.01023
3632.08344,0.01071
3630.02327,0.01095
3627.96310,0.01083
3625.90293,0.01103
3623.84275,0.01182
3621.78258,0.01264
3619.72241,0.01329
3617.66224,0.01404
3615.60207,0.01487
3613.54189,0.01560
3611.48172,0.01606
3609.42155,0.01630
3607.36138,0.01636
3605.30120,0.01653
3603.24103,0.01701
3601.18086,0.01754
3599.12069,0.01802
3597.06052,0.01846
3595.00034,0.01888
3592.94017,0.01941
3590.88000,0.02028
3588.81983,0.02116
3586.75966,0.02162
3584.69948,0.02164
3582.63931,0.02174
3580.57914,0.02211
3578.51897,0.02251
3576.45879,0.02285
3574.39862,0.02332
3572.33845,0.02393
3570.27828,0.02472
3568.21811,0.02564
3566.15793,0.02617
3564.09776,0.02627
3562.03759,0.02654
3559.97742,0.02707
3557.91725,0.02770
3555.85707,0.02830
3553.79690,0.02866
3551.73673,0.02898
3549.67656,0.02960
3547.61639,0.03051
3545.55621,0.03129
3543.49604,0.03173
3541.43587,0.03199
3539.37570,0.03220
3537.31552,0.03246
3535.25535,0.03287
3533.19518,0.03328
3531.13501,0.03368
3529.07484,0.03420
3527.01466,0.03470
3524.95449,0.03503
3522.89432,0.03536
3520.83415,0.03584
3518.77398,0.03649
3516.71380,0.03715
3514.65363,0.03751
3512.59346,0.03766
3510.53329,0.03790
3508.47312,0.03828
3506.41294,0.03874
3504.35277,0.03934
3502.29260,0.04003
3500.23243,0.04049
3498.17225,0.04086
3496.11208,0.04133
3494.05191,0.04172
3491.99174,0.04198
3489.93157,0.04231
3487.87139,0.04284
3485.81122,0.04347
3483.75105,0.04397
3481.69088,0.04425
3479.63071,0.04452
3477.57053,0.04491
3475.51036,0.04528
3473.45019,0.04562
3471.39002,0.04600
3469.32984,0.04632
3467.26967,0.04660
3465.20950,0.04695
3463.14933,0.04731
3461.08916,0.04772
3459.02898,0.04818
3456.96881,0.04841
3454.90864,0.04842
3452.84847,0.04839
3450.78830,0.04844
3448.72812,0.04875
3446.66795,0.04937
3444.60778,0.05020
3442.54761,0.05079
3440.48744,0.05098
3438.42726,0.05113
3436.36709,0.05151
3434.30692,0.05202
3432.24675,0.05244
3430.18657,0.05279
3428.12640,0.05304
3426.06623,0.05305
3424.00606,0.05314
3421.94589,0.05347
3419.88571,0.05379
3417.82554,0.05401
3415.76537,0.05415
3413.70520,0.05406
3411.64503,0.05394
3409.58485,0.05425
3407.52468,0.05495
3405.46451,0.05558
3403.40434,0.05571
3401.34416,0.05561
3399.28399,0.05602
3397.22382,0.05633
3395.16365,0.05647
3393.10348,0.05662
3391.04330,0.05675
3388.98313,0.05690
3386.92296,0.05708
3384.86279,0.05704
3382.80262,0.05682
3380.74244,0.05679
3378.68227,0.05704
3376.62210,0.05732
3374.56193,0.05742
3372.50176,0.05737
3370.44158,0.05741
3368.38141,0.05761
3366.32124,0.05772
3364.26107,0.05780
3362.20089,0.05806
3360.14072,0.05834
3358.08055,0.05838
3356.02038,0.05824
3353.96021,0.05816
3351.90003,0.05820
3349.83986,0.05827
3347.77969,0.05838
3345.71952,0.05851
3343.65935,0.05859
3341.59917,0.05859
3339.53900,0.05857
3337.47883,0.05864
3335.41866,0.05884
3333.35849,0.05890
3331.29831,0.05877
3329.23814,0.05870
3327.17797,0.05887
3325.11780,0.05906
3323.05762,0.05900
3320.99745,0.05891
3318.93728,0.05901
3316.87711,0.05925
3314.81694,0.05943
3312.75676,0.05951
3310.69659,0.05962
3308.63642,0.05979
3306.57625,0.05987
3304.51608,0.05978
3302.45590,0.05966
3300.39573,0.05958
3298.33556,0.05950
3296.27539,0.05952
3294.21521,0.05965
3292.15504,0.05975
3290.09487,0.05976
3288.03470,0.05975
3285.97453,0.05984
3283.91435,0.06015
3281.85418,0.06040
3279.79401,0.06031
3277.73384,0.06008
3275.67367,0.06001
3273.61349,0.06011
3271.55332,0.06016
3269.49315,0.06002
3267.43298,0.05986
3265.37281,0.05991
3263.31263,0.06010
3261.25246,0.06026
3259.19229,0.06032
3257.13212,0.06026
3255.07194,0.06006
3253.01177,0.05982
3250.95160,0.05969
3248.89143,0.05967
3246.83126,0.05964
3244.77108,0.05945
3242.71091,0.05920
3240.65074,0.05897
3238.59057,0.05889
3236.53040,0.05907
3234.47022,0.05927
3232.41005,0.05932
3230.34988,0.05933
3228.28971,0.05929
3226.22954,0.05911
3224.16936,0.05883
3222.10919,0.05877
3220.04902,0.05895
3217.98885,0.05896
3215.92867,0.05882
3213.86850,0.05856
3211.80833,0.05817
3209.74816,0.05792
3207.68799,0.05792
3205.62781,0.05794
3203.56764,0.05777
3201.50747,0.05749
3199.44730,0.05732
3197.38713,0.05727
3195.32695,0.05723
3193.26678,0.05711
3191.20661,0.05696
3189.14644,0.05686
3187.08626,0.05675
3185.02609,0.05656
3182.96592,0.05648
3180.90575,0.05651
3178.84558,0.05641
3176.78540,0.05628
3174.72523,0.05615
3172.66506,0.05585
3170.60489,0.05551
3168.54472,0.05529
3166.48454,0.05508
3164.42437,0.05485
3162.36420,0.05467
3160.30403,0.05460
3158.24386,0.05452
3156.18368,0.05437
3154.12351,0.05422
3152.06334,0.05406
3150.00317,0.05389
3147.94299,0.05363
3145.88282,0.05335
3143.82265,0.05331
3141.76248,0.05339
3139.70231,0.05317
3137.64213,0.05268
3135.58196,0.05220
3133.52179,0.05183
3131.46162,0.05161
3129.40145,0.05163
3127.34127,0.05175
3125.28110,0.05168
3123.22093,0.05143
3121.16076,0.05122
3119.10058,0.05107
3117.04041,0.05083
3114.98024,0.05047
3112.92007,0.05020
3110.85990,0.05007
3108.79972,0.04981
3106.73955,0.04946
3104.67938,0.04925
3102.61921,0.04913
3100.55904,0.04910
3098.49886,0.04908
3096.43869,0.04893
3094.37852,0.04869
3092.31835,0.04840
3090.25818,0.04803
3088.19800,0.04765
3086.13783,0.04745
3084.07766,0.04752
3082.01749,0.04759
3079.95731,0.04740
3077.89714,0.04703
3075.83697,0.04667
3073.77680,0.04641
3071.71663,0.04618
3069.65645,0.04582
3067.59628,0.04541
3065.53611,0.04525
3063.47594,0.04527
3061.41577,0.04518
3059.35559,0.04504
3057.29542,0.04496
3055.23525,0.04475
3053.17508,0.04448
3051.11491,0.04423
3049.05473,0.04379
3046.99456,0.04318
3044.93439,0.04268
3042.87422,0.04241
3040.81404,0.04231
3038.75387,0.04218
3036.69370,0.04194
3034.63353,0.04164
3032.57336,0.04136
3030.51318,0.04120
3028.45301,0.04110
3026.39284,0.04088
3024.33267,0.04049
3022.27250,0.04010
3020.21232,0.03996
3018.15215,0.03992
3016.09198,0.03964
3014.03181,0.03933
3011.97163,0.03934
3009.91146,0.03926
3007.85129,0.03878
3005.79112,0.03845
3003.73095,0.03844
3001.67077,0.03834
2999.61060,0.03822
2997.55043,0.03830
2995.49026,0.03811
2993.43009,0.03751
2991.36991,0.03704
2989.30974,0.03695
2987.24957,0.03694
2985.18940,0.03681
2983.12923,0.03677
2981.06905,0.03677
2979.00888,0.03666
2976.94871,0.03649
2974.88854,0.03638
2972.82836,0.03632
2970.76819,0.03627
2968.70802,0.03623
2966.64785,0.03610
2964.58768,0.03592
2962.52750,0.03584
2960.46733,0.03586
2958.40716,0.03584
2956.34699,0.03573
2954.28682,0.03558
2952.22664,0.03540
2950.16647,0.03535
2948.10630,0.03543
2946.04613,0.03534
2943.98596,0.03516
2941.92578,0.03513
2939.86561,0.03508
2937.80544,0.03495
2935.74527,0.03490
2933.68509,0.03478
2931.62492,0.03451
2929.56475,0.03421
2927.50458,0.03401
2925.44441,0.03404
2923.38423,0.03406
2921.32406,0.03372
2919.26389,0.03318
2917.20372,0.03291
2915.14355,0.03285
2913.08337,0.03264
2911.02320,0.03216
2908.96303,0.03166
2906.90286,0.03131
2904.84268,0.03102
2902.78251,0.03077
2900.72234,0.03053
2898.66217,0.03029
2896.60200,0.03011
2894.54182,0.02992
2892.48165,0.02969
2890.42148,0.02955
2888.36131,0.02951
2886.30114,0.02943
2884.24096,0.02923
2882.18079,0.02894
2880.12062,0.02861
2878.06045,0.02837
2876.00028,0.02826
2873.94010,0.02823
2871.87993,0.02821
2869.81976,0.02807
2867.75959,0.02777
2865.69941,0.02744
2863.63924,0.02714
2861.57907,0.02694
2859.51890,0.02674
2857.45873,0.02633
2855.39855,0.02582
2853.33838,0.02554
2851.27821,0.02543
2849.21804,0.02520
2847.15787,0.02482
2845.09769,0.02445
2843.03752,0.02417
2840.97735,0.02395
2838.91718,0.02370
2836.85700,0.02346
2834.79683,0.02325
2832.73666,0.02313
2830.67649,0.02302
2828.61632,0.02279
2826.55614,0.02255
2824.49597,0.02244
2822.43580,0.02233
2820.37563,0.02209
2818.31546,0.02184
2816.25528,0.02163
2814.19511,0.02148
2812.13494,0.02136
2810.07477,0.02115
2808.01460,0.02094
2805.95442,0.02087
2803.89425,0.02071
2801.83408,0.02048
2799.77391,0.02030
2797.71373,0.02014
2795.65356,0.02007
2793.59339,0.02010
2791.53322,0.02002
2789.47305,0.01986
2787.41287,0.01973
2785.35270,0.01957
2783.29253,0.01927
2781.23236,0.01891
2779.17219,0.01884
2777.11201,0.01900
2775.05184,0.01898
2772.99167,0.01864
2770.93150,0.01831
2768.87133,0.01809
2766.81115,0.01780
2764.75098,0.01752
2762.69081,0.01735
2760.63064,0.01723
2758.57046,0.01711
2756.51029,0.01708
2754.45012,0.01713
2752.38995,0.01710
2750.32978,0.01693
2748.26960,0.01675
2746.20943,0.01663
2744.14926,0.01649
2742.08909,0.01628
2740.02892,0.01610
2737.96874,0.01604
2735.90857,0.01605
2733.84840,0.01604
2731.78823,0.01599
2729.72805,0.01586
2727.66788,0.01570
2725.60771,0.01557
2723.54754,0.01548
2721.48737,0.01542
2719.42719,0.01534
2717.36702,0.01513
2715.30685,0.01487
2713.24668,0.01478
2711.18651,0.01474
2709.12633,0.01453
2707.06616,0.01429
2705.00599,0.01417
2702.94582,0.01419
2700.88565,0.01418
2698.82547,0.01409
2696.76530,0.01393
2694.70513,0.01376
2692.64496,0.01363
2690.58478,0.01350
2688.52461,0.01342
2686.46444,0.01340
2684.40427,0.01329
2682.34410,0.01304
2680.28392,0.01277
2678.22375,0.01262
2676.16358,0.01258
2674.10341,0.01253
2672.04324,0.01238
2669.98306,0.01218
2667.92289,0.01208
2665.86272,0.01210
2663.80255,0.01220
2661.74238,0.01231
2659.68220,0.01235
2657.62203,0.01221
2655.56186,0.01185
2653.50169,0.01144
2651.44151,0.01133
2649.38134,0.01154
2647.32117,0.01168
2645.26100,0.01151
2643.20083,0.01118
2641.14065,0.01103
2639.08048,0.01108
2637.02031,0.01099
2634.96014,0.01072
2632.89997,0.01048
2630.83979,0.01035
2628.77962,0.01035
2626.71945,0.01052
2624.65928,0.01065
2622.59910,0.01051
2620.53893,0.01021
2618.47876,0.01004
2616.41859,0.00996
2614.35842,0.00987
2612.29824,0.00984
2610.23807,0.00977
2608.17790,0.00960
2606.11773,0.00950
2604.05756,0.00951
2601.99738,0.00941
2599.93721,0.00911
2597.87704,0.00890
2595.81687,0.00901
2593.75670,0.00919
2591.69652,0.00924
2589.63635,0.00920
2587.57618,0.00894
2585.51601,0.00861
2583.45583,0.00854
2581.39566,0.00856
2579.33549,0.00852
2577.27532,0.00851
2575.21515,0.00857
2573.15497,0.00862
2571.09480,0.00857
2569.03463,0.00851
2566.97446,0.00859
2564.91429,0.00864
2562.85411,0.00849
2560.79394,0.00841
2558.73377,0.00849
2556.67360,0.00837
2554.61342,0.00811
2552.55325,0.00822
2550.49308,0.00857
2548.43291,0.00867
2546.37274,0.00856
2544.31256,0.00843
2542.25239,0.00822
2540.19222,0.00808
2538.13205,0.00819
2536.07188,0.00828
2534.01170,0.00823
2531.95153,0.00812
2529.89136,0.00803
2527.83119,0.00815
2525.77102,0.00834
2523.71084,0.00825
2521.65067,0.00802
2519.59050,0.00791
2517.53033,0.00792
2515.47015,0.00822
2513.40998,0.00857
2511.34981,0.00861
2509.28964,0.00864
2507.22947,0.00867
2505.16929,0.00837
2503.10912,0.00804
2501.04895,0.00804
2498.98878,0.00819
2496.92861,0.00831
2494.86843,0.00837
2492.80826,0.00840
2490.74809,0.00845
2488.68792,0.00851
2486.62775,0.00849
2484.56757,0.00847
2482.50740,0.00859
2480.44723,0.00875
2478.38706,0.00873
2476.32688,0.00868
2474.26671,0.00887
2472.20654,0.00909
2470.14637,0.00907
2468.08620,0.00893
2466.02602,0.00895
2463.96585,0.00906
2461.90568,0.00902
2459.84551,0.00902
2457.78534,0.00915
2455.72516,0.00923
2453.66499,0.00927
2451.60482,0.00928
2449.54465,0.00921
2447.48447,0.00906
2445.42430,0.00882
2443.36413,0.00863
2441.30396,0.00849
2439.24379,0.00836
2437.18361,0.00838
2435.12344,0.00859
2433.06327,0.00884
2431.00310,0.00892
2428.94293,0.00892
2426.88275,0.00908
2424.82258,0.00916
2422.76241,0.00901
2420.70224,0.00898
2418.64207,0.00916
2416.58189,0.00921
2414.52172,0.00888
2412.46155,0.00864
2410.40138,0.00871
2408.34120,0.00870
2406.28103,0.00877
2404.22086,0.00910
2402.16069,0.00932
2400.10052,0.00910
2398.04034,0.00882
2395.98017,0.00881
2393.92000,0.00897
2391.85983,0.00902
2389.79966,0.00889
2387.73948,0.00881
2385.67931,0.00910
2383.61914,0.00959
2381.55897,0.00974
2379.49880,0.00938
2377.43862,0.00899
2375.37845,0.00872
2373.31828,0.00889
2371.25811,0.00911
2369.19793,0.00840
2367.13776,0.00773
2365.07759,0.00781
2363.01742,0.00714
2360.95725,0.00778
2358.89707,0.00817
2356.83690,0.00773
2354.77673,0.00674
2352.71656,0.00690
2350.65639,0.00996
2348.59621,0.01169
2346.53604,0.00819
2344.47587,0.00699
2342.41570,0.00678
2340.35552,0.00630
2338.29535,0.00661
2336.23518,0.00694
2334.17501,0.00720
2332.11484,0.00743
2330.05466,0.00821
2327.99449,0.00915
2325.93432,0.01046
2323.87415,0.01037
2321.81398,0.00981
2319.75380,0.00957
2317.69363,0.01067
2315.63346,0.01114
2313.57329,0.01061
2311.51312,0.01002
2309.45294,0.00981
2307.39277,0.00993
2305.33260,0.00994
2303.27243,0.00971
2301.21225,0.00940
2299.15208,0.00943
2297.09191,0.00949
2295.03174,0.00931
2292.97157,0.00911
2290.91139,0.00889
2288.85122,0.00864
2286.79105,0.00867
2284.73088,0.00917
2282.67071,0.00962
2280.61053,0.00943
2278.55036,0.00878
2276.49019,0.00829
2274.43002,0.00813
2272.36984,0.00794
2270.30967,0.00773
2268.24950,0.00782
2266.18933,0.00828
2264.12916,0.00885
2262.06898,0.00905
2260.00881,0.00856
2257.94864,0.00800
2255.88847,0.00791
2253.82830,0.00799
2251.76812,0.00783
2249.70795,0.00745
2247.64778,0.00729
2245.58761,0.00747
2243.52744,0.00739
2241.46726,0.00701
2239.40709,0.00663
2237.34692,0.00622
2235.28675,0.00625
2233.22657,0.00665
2231.16640,0.00663
2229.10623,0.00667
2227.04606,0.00721
2224.98589,0.00738
2222.92571,0.00691
2220.86554,0.00659
2218.80537,0.00666
2216.74520,0.00679
2214.68503,0.00690
2212.62485,0.00715
2210.56468,0.00732
2208.50451,0.00702
2206.44434,0.00673
2204.38417,0.00649
2202.32399,0.00615
2200.26382,0.00606
2198.20365,0.00586
2196.14348,0.00543
2194.08330,0.00556
2192.02313,0.00628
2189.96296,0.00677
2187.90279,0.00661
2185.84262,0.00591
2183.78244,0.00526
2181.72227,0.00514
2179.66210,0.00564
2177.60193,0.00632
2175.54176,0.00629
2173.48158,0.00616
2171.42141,0.00661
2169.36124,0.00685
2167.30107,0.00665
2165.24089,0.00667
2163.18072,0.00657
2161.12055,0.00509
2159.06038,0.00293
2157.00021,0.00197
2154.94003,0.00224
2152.87986,0.00300
2150.81969,0.00339
2148.75952,0.00339
2146.69935,0.00366
2144.63917,0.00409
2142.57900,0.00445
2140.51883,0.00468
2138.45866,0.00458
2136.39849,0.00444
2134.33831,0.00449
2132.27814,0.00438
2130.21797,0.00407
2128.15780,0.00405
2126.09762,0.00460
2124.03745,0.00530
2121.97728,0.00560
2119.91711,0.00554
2117.85694,0.00536
2115.79676,0.00515
2113.73659,0.00513
2111.67642,0.00536
2109.61625,0.00538
2107.55608,0.00523
2105.49590,0.00538
2103.43573,0.00551
2101.37556,0.00530
2099.31539,0.00506
2097.25521,0.00521
2095.19504,0.00543
2093.13487,0.00536
2091.07470,0.00508
2089.01453,0.00500
2086.95435,0.00537
2084.89418,0.00555
2082.83401,0.00516
2080.77384,0.00479
2078.71367,0.00441
2076.65349,0.00392
2074.59332,0.00403
2072.53315,0.00452
2070.47298,0.00474
2068.41281,0.00491
2066.35263,0.00506
2064.29246,0.00505
2062.23229,0.00506
2060.17212,0.00498
2058.11194,0.00484
2056.05177,0.00514
2053.99160,0.00604
2051.93143,0.00675
2049.87126,0.00619
2047.81108,0.00478
2045.75091,0.00391
2043.69074,0.00357
2041.63057,0.00342
2039.57040,0.00304
2037.51022,0.00210
2035.45005,0.00166
2033.38988,0.00196
2031.32971,0.00229
2029.26954,0.00301
2027.20936,0.00413
2025.14919,0.00508
2023.08902,0.00539
2021.02885,0.00458
2018.96867,0.00308
2016.90850,0.00229
2014.84833,0.00224
2012.78816,0.00191
2010.72799,0.00121
2008.66781,0.00038
2006.60764,0.00000
2004.54747,0.00079
2002.48730,0.00211
2000.42713,0.00337
1998.36695,0.00437
1996.30678,0.00477
1994.24661,0.00490
1992.18644,0.00481
1990.12626,0.00463
1988.06609,0.00455
1986.00592,0.00400
1983.94575,0.00335
1981.88558,0.00384
1979.82540,0.00465
1977.76523,0.00441
1975.70506,0.00375
1973.64489,0.00329
1971.58472,0.00292
1969.52454,0.00228
1967.46437,0.00137
1965.40420,0.00088
1963.34403,0.00090
1961.28386,0.00085
1959.22368,0.00079
1957.16351,0.00107
1955.10334,0.00149
1953.04317,0.00167
1950.98299,0.00160
1948.92282,0.00171
1946.86265,0.00207
1944.80248,0.00212
1942.74231,0.00163
1940.68213,0.00099
1938.62196,0.00049
1936.56179,0.00016
1934.50162,0.00030
1932.44145,0.00112
1930.38127,0.00207
1928.32110,0.00253
1926.26093,0.00242
1924.20076,0.00200
1922.14059,0.00174
1920.08041,0.00178
1918.02024,0.00179
1915.96007,0.00176
1913.89990,0.00205
1911.83972,0.00258
1909.77955,0.00281
1907.71938,0.00246
1905.65921,0.00189
1903.59904,0.00149
1901.53886,0.00142
1899.47869,0.00159
1897.41852,0.00180
1895.35835,0.00196
1893.29818,0.00202
1891.23800,0.00198
1889.17783,0.00188
1887.11766,0.00166
1885.05749,0.00128
1882.99731,0.00101
1880.93714,0.00112
1878.87697,0.00147
1876.81680,0.00174
1874.75663,0.00196
1872.69645,0.00222
1870.63628,0.00233
1868.57611,0.00215
1866.51594,0.00193
1864.45577,0.00187
1862.39559,0.00200
1860.33542,0.00211
1858.27525,0.00200
1856.21508,0.00191
1854.15491,0.00198
1852.09473,0.00196
1850.03456,0.00185
1847.97439,0.00169
1845.91422,0.00150
1843.85404,0.00150
1841.79387,0.00180
1839.73370,0.00205
1837.67353,0.00198
1835.61336,0.00170
1833.55318,0.00134
1831.49301,0.00097
1829.43284,0.00088
1827.37267,0.00117
1825.31250,0.00149
1823.25232,0.00155
1821.19215,0.00140
1819.13198,0.00129
1817.07181,0.00138
1815.01163,0.00155
1812.95146,0.00164
1810.89129,0.00169
1808.83112,0.00176
1806.77095,0.00182
1804.71077,0.00183
1802.65060,0.00186
1800.59043,0.00190
1798.53026,0.00198
1796.47009,0.00219
1794.40991,0.00236
1792.34974,0.00228
1790.28957,0.00203
1788.22940,0.00193
1786.16923,0.00209
1784.10905,0.00232
1782.04888,0.00240
1779.98871,0.00234
1777.92854,0.00227
1775.86836,0.00216
1773.80819,0.00207
1771.74802,0.00223
1769.68785,0.00267
1767.62768,0.00299
1765.56750,0.00312
1763.50733,0.00333
1761.44716,0.00366
1759.38699,0.00395
1757.32682,0.00421
1755.26664,0.00462
1753.20647,0.00506
1751.14630,0.00520
1749.08613,0.00525
1747.02596,0.00567
1744.96578,0.00626
1742.90561,0.00658
1740.84544,0.00661
1738.78527,0.00661
1736.72509,0.00670
1734.66492,0.00674
1732.60475,0.00681
1730.54458,0.00701
1728.48441,0.00729
1726.42423,0.00751
1724.36406,0.00764
1722.30389,0.00778
1720.24372,0.00790
1718.18355,0.00788
1716.12337,0.00795
1714.06320,0.00830
1712.00303,0.00883
1709.94286,0.00922
1707.88268,0.00936
1705.82251,0.00964
1703.76234,0.01034
1701.70217,0.01116
1699.64200,0.01185
1697.58182,0.01268
1695.52165,0.01391
1693.46148,0.01516
1691.40131,0.01615
1689.34114,0.01695
1687.28096,0.01760
1685.22079,0.01849
1683.16062,0.02020
1681.10045,0.02189
1679.04028,0.02292
1676.98010,0.02375
1674.91993,0.02481
1672.85976,0.02582
1670.79959,0.02679
1668.73941,0.02819
1666.67924,0.02962
1664.61907,0.03069
1662.55890,0.03175
1660.49873,0.03281
1658.43855,0.03349
1656.37838,0.03376
1654.31821,0.03404
1652.25804,0.03475
1650.19787,0.03523
1648.13769,0.03530
1646.07752,0.03537
1644.01735,0.03541
1641.95718,0.03517
1639.89701,0.03460
1637.83683,0.03387
1635.77666,0.03342
1633.71649,0.03337
1631.65632,0.03311
1629.59614,0.03244
1627.53597,0.03162
1625.47580,0.03083
1623.41563,0.03006
1621.35546,0.02948
1619.29528,0.02891
1617.23511,0.02812
1615.17494,0.02751
1613.11477,0.02718
1611.05460,0.02671
1608.99442,0.02603
1606.93425,0.02538
1604.87408,0.02489
1602.81391,0.02458
1600.75373,0.02437
1598.69356,0.02413
1596.63339,0.02380
1594.57322,0.02344
1592.51305,0.02302
1590.45287,0.02252
1588.39270,0.02192
1586.33253,0.02136
1584.27236,0.02093
1582.21219,0.02061
1580.15201,0.02031
1578.09184,0.01986
1576.03167,0.01928
1573.97150,0.01888
1571.91133,0.01864
1569.85115,0.01836
1567.79098,0.01804
1565.73081,0.01781
1563.67064,0.01773
1561.61046,0.01776
1559.55029,0.01762
1557.49012,0.01732
1555.42995,0.01716
1553.36978,0.01715
1551.30960,0.01709
1549.24943,0.01692
1547.18926,0.01668
1545.12909,0.01627
1543.06892,0.01554
1541.00874,0.01463
1538.94857,0.01429
1536.88840,0.01444
1534.82823,0.01437
1532.76805,0.01395
1530.70788,0.01351
1528.64771,0.01309
1526.58754,0.01272
1524.52737,0.01251
1522.46719,0.01224
1520.40702,0.01179
1518.34685,0.01134
1516.28668,0.01100
1514.22651,0.01076
1512.16633,0.01045
1510.10616,0.00990
1508.04599,0.00910
1505.98582,0.00848
1503.92565,0.00842
1501.86547,0.00845
1499.80530,0.00807
1497.74513,0.00748
1495.68496,0.00719
1493.62478,0.00712
1491.56461,0.00688
1489.50444,0.00647
1487.44427,0.00619
1485.38410,0.00611
1483.32392,0.00605
1481.26375,0.00595
1479.20358,0.00593
1477.14341,0.00596
1475.08324,0.00600
1473.02306,0.00617
1470.96289,0.00653
1468.90272,0.00698
1466.84255,0.00739
1464.78238,0.00772
1462.72220,0.00791
1460.66203,0.00787
1458.60186,0.00779
1456.54169,0.00796
1454.48151,0.00810
1452.42134,0.00795
1450.36117,0.00770
1448.30100,0.00769
1446.24083,0.00793
1444.18065,0.00807
1442.12048,0.00798
1440.06031,0.00781
1438.00014,0.00772
1435.93997,0.00772
1433.87979,0.00773
1431.81962,0.00781
1429.75945,0.00810
1427.69928,0.00853
1425.63910,0.00893
1423.57893,0.00929
1421.51876,0.00966
1419.45859,0.01005
1417.39842,0.01041
1415.33824,0.01060
1413.27807,0.01065
1411.21790,0.01064
1409.15773,0.01063
1407.09756,0.01057
1405.03738,0.01048
1402.97721,0.01034
1400.91704,0.01017
1398.85687,0.00995
1396.79670,0.00969
1394.73652,0.00933
1392.67635,0.00891
1390.61618,0.00854
1388.55601,0.00828
1386.49583,0.00813
1384.43566,0.00802
1382.37549,0.00787
1380.31532,0.00770
1378.25515,0.00753
1376.19497,0.00735
1374.13480,0.00720
1372.07463,0.00707
1370.01446,0.00691
1367.95429,0.00675
1365.89411,0.00663
1363.83394,0.00651
1361.77377,0.00637
1359.71360,0.00621
1357.65343,0.00609
1355.59325,0.00596
1353.53308,0.00574
1351.47291,0.00553
1349.41274,0.00538
1347.35256,0.00522
1345.29239,0.00502
1343.23222,0.00484
1341.17205,0.00478
1339.11188,0.00481
1337.05170,0.00473
1334.99153,0.00452
1332.93136,0.00444
1330.87119,0.00453
1328.81102,0.00460
1326.75084,0.00458
1324.69067,0.00458
1322.63050,0.00464
1320.57033,0.00468
1318.51015,0.00477
1316.44998,0.00491
1314.38981,0.00491
1312.32964,0.00474
1310.26947,0.00458
1308.20929,0.00454
1306.14912,0.00459
1304.08895,0.00471
1302.02878,0.00492
1299.96861,0.00507
1297.90843,0.00511
1295.84826,0.00516
1293.78809,0.00524
1291.72792,0.00531
1289.66775,0.00535
1287.60757,0.00533
1285.54740,0.00524
1283.48723,0.00513
1281.42706,0.00505
1279.36688,0.00504
1277.30671,0.00515
1275.24654,0.00530
1273.18637,0.00541
1271.12620,0.00550
1269.06602,0.00555
1267.00585,0.00556
1264.94568,0.00557
1262.88551,0.00566
1260.82534,0.00592
1258.76516,0.00623
1256.70499,0.00639
1254.64482,0.00646
1252.58465,0.00651
1250.52447,0.00651
1248.46430,0.00652
1246.40413,0.00648
1244.34396,0.00640
1242.28379,0.00629
1240.22361,0.00613
1238.16344,0.00591
1236.10327,0.00568
1234.04310,0.00552
1231.98293,0.00538
1229.92275,0.00512
1227.86258,0.00479
1225.80241,0.00451
1223.74224,0.00422
1221.68207,0.00378
1219.62189,0.00329
1217.56172,0.00290
1215.50155,0.00256
1213.44138,0.00219
1211.38120,0.00181
1209.32103,0.00143
1207.26086,0.00121
1205.20069,0.00115
1203.14052,0.00094
1201.08034,0.00054
1199.02017,0.00023
1196.96000,0.00006
1194.89983,0.00000
1192.83966,-0.00003
1190.77948,-0.00005
1188.71931,-0.00015
1186.65914,-0.00027
1184.59897,-0.00029
1182.53880,-0.00013
1180.47862,0.00025
1178.41845,0.00064
1176.35828,0.00095
1174.29811,0.00130
1172.23793,0.00169
1170.17776,0.00211
1168.11759,0.00258
1166.05742,0.00311
1163.99725,0.00360
1161.93707,0.00405
1159.87690,0.00454
1157.81673,0.00512
1155.75656,0.00584
1153.69639,0.00667
1151.63621,0.00743
1149.57604,0.00818
1147.51587,0.00902
1145.45570,0.00991
1143.39552,0.01085
1141.33535,0.01186
1139.27518,0.01290
1137.21501,0.01398
1135.15484,0.01515
1133.09466,0.01645
1131.03449,0.01793
1128.97432,0.01955
1126.91415,0.02117
1124.85398,0.02277
1122.79380,0.02451
1120.73363,0.02645
1118.67346,0.02853
1116.61329,0.03067
1114.55312,0.03272
1112.49294,0.03467
1110.43277,0.03671
1108.37260,0.03879
1106.31243,0.04074
1104.25225,0.04256
1102.19208,0.04435
1100.13191,0.04617
1098.07174,0.04790
1096.01157,0.04945
1093.95139,0.05103
1091.89122,0.05272
1089.83105,0.05423
1087.77088,0.05543
1085.71071,0.05661
1083.65053,0.05792
1081.59036,0.05923
1079.53019,0.06045
1077.47002,0.06160
1075.40985,0.06265
1073.34967,0.06358
1071.28950,0.06423
1069.22933,0.06464
1067.16916,0.06494
1065.10898,0.06497
1063.04881,0.06484
1060.98864,0.06477
1058.92847,0.06448
1056.86830,0.06366
1054.80812,0.06246
1052.74795,0.06123
1050.68778,0.06000
1048.62761,0.05863
1046.56744,0.05697
1044.50726,0.05503
1042.44709,0.05294
1040.38692,0.05069
1038.32675,0.04830
1036.26657,0.04595
1034.20640,0.04375
1032.14623,0.04149
1030.08606,0.03916
1028.02589,0.03708
1025.96571,0.03530
1023.90554,0.03363
1021.84537,0.03189
1019.78520,0.03036
1017.72503,0.02932
1015.66485,0.02854
1013.60468,0.02779
1011.54451,0.02719
1009.48434,0.02694
1007.42417,0.02704
1005.36399,0.02744
1003.30382,0.02807
1001.24365,0.02901
999.18348,0.03038
997.12330,0.03207
995.06313,0.03381
993.00296,0.03549
990.94279,0.03706
988.88262,0.03831
986.82244,0.03912
984.76227,0.03954
982.70210,0.03965
980.64193,0.03954
978.58176,0.03932
976.52158,0.03884
974.46141,0.03784
972.40124,0.03644
970.34107,0.03482
968.28089,0.03307
966.22072,0.03118
964.16055,0.02907
962.10038,0.02698
960.04021,0.02511
957.98003,0.02330
955.91986,0.02140
953.85969,0.01945
951.79952,0.01760
949.73935,0.01586
947.67917,0.01415
945.61900,0.01251
943.55883,0.01113
941.49866,0.00991
939.43849,0.00871
937.37831,0.00765
935.31814,0.00665
933.25797,0.00572
931.19780,0.00502
929.13762,0.00441
927.07745,0.00374
925.01728,0.00312
922.95711,0.00256
920.89694,0.00201
918.83676,0.00160
916.77659,0.00125
914.71642,0.00098
912.65625,0.00088
910.59608,0.00063
908.53590,0.00018
906.47573,0.00000
904.41556,0.00017
902.35539,0.00049
900.29522,0.00079
898.23504,0.00101
896.17487,0.00127
894.11470,0.00175
892.05453,0.00238
889.99435,0.00288
887.93418,0.00318
885.87401,0.00370
883.81384,0.00445
881.75367,0.00501
879.69349,0.00559
877.63332,0.00638
875.57315,0.00713
873.51298,0.00790
871.45281,0.00884
869.39263,0.00964
867.33246,0.01004
865.27229,0.01039
863.21212,0.01082
861.15194,0.01113
859.09177,0.01149
857.03160,0.01196
854.97143,0.01247
852.91126,0.01279
850.85108,0.01263
848.79091,0.01227
846.73074,0.01184
844.67057,0.01115
842.61040,0.01051
840.55022,0.01023
838.49005,0.00988
836.42988,0.00919
834.36971,0.00857
832.30954,0.00813
830.24936,0.00753
828.18919,0.00684
826.12902,0.00610
824.06885,0.00534
822.00867,0.00485
819.94850,0.00454
817.88833,0.00425
815.82816,0.00393
813.76799,0.00357
811.70781,0.00325
809.64764,0.00287
807.58747,0.00242
805.52730,0.00211
803.46713,0.00195
801.40695,0.00189
799.34678,0.00191
797.28661,0.00185
795.22644,0.00162
793.16627,0.00133
791.10609,0.00125
789.04592,0.00163
786.98575,0.00223
784.92558,0.00235
782.86540,0.00186
780.80523,0.00156
778.74506,0.00158
776.68489,0.00153
774.62472,0.00143
772.56454,0.00140
770.50437,0.00148
768.44420,0.00131
766.38403,0.00071
764.32386,0.00043
762.26368,0.00097
760.20351,0.00154
758.14334,0.00164
756.08317,0.00147
754.02299,0.00121
751.96282,0.00113
749.90265,0.00094
747.84248,0.00041
745.78231,0.00000
743.72213,0.00006
741.66196,0.00073
739.60179,0.00158
737.54162,0.00208
735.48145,0.00203
733.42127,0.00165
731.36110,0.00138
729.30093,0.00123
727.24076,0.00120
725.18059,0.00130
723.12041,0.00150
721.06024,0.00122
719.00007,0.00149
716.93990,0.00137
714.87972,0.00093
712.81955,0.00113
710.75938,0.00167
708.69921,0.00212
706.63904,0.00248
704.57886,0.00277
702.51869,0.00280
700.45852,0.00267
698.39835,0.00269
696.33818,0.00307
694.27800,0.00368
692.21783,0.00409
690.15766,0.00411
688.09749,0.00386
686.03731,0.00369
683.97714,0.00388
681.91697,0.00439
679.85680,0.00511
677.79663,0.00560
675.73645,0.00543
673.67628,0.00573
671.61611,0.00706
669.55594,0.00355
667.49577,0.00000
665.43559,0.00748
663.37542,0.00575
661.31525,0.00314
659.25508,0.00274
657.19491,0.00314
655.13473,0.00360
653.07456,0.00377
651.01439,0.00386
648.95422,0.00441
646.89404,0.00536
644.83387,0.00538
642.77370,0.00483
640.71353,0.00472
638.65336,0.00464
636.59318,0.00381
634.53301,0.00299
632.47284,0.00297
630.41267,0.00301
628.35250,0.00242
626.29232,0.00182
624.23215,0.00186
622.17198,0.00278
620.11181,0.00471
618.05164,0.00621
615.99146,0.00629
613.93129,0.00605
611.87112,0.00493
609.81095,0.00226
607.75077,0.00022
605.69060,-0.00014
603.63043,0.00015
601.57026,0.00022
599.51009,0.00000
