3996.73391,-0.00084
3994.67373,-0.00091
3992.61356,-0.00077
3990.55339,-0.00051
3988.49322,-0.00033
3986.43305,-0.00021
3984.37287,-0.00010
3982.31270,-0.00005
3980.25253,-0.00005
3978.19236,-0.00004
3976.13219,-0.00005
3974.07201,-0.00005
3972.01184,-0.00004
3969.95167,0.00005
3967.89150,0.00036
3965.83133,0.00070
3963.77115,0.00070
3961.71098,0.00045
3959.65081,0.00027
3957.59064,0.00037
3955.53046,0.00078
3953.47029,0.00113
3951.41012,0.00095
3949.34995,0.00033
3947.28978,0.00000
3945.22960,0.00018
3943.16943,0.00042
3941.10926,0.00068
3939.04909,0.00111
3936.98892,0.00128
3934.92874,0.00083
3932.86857,0.00024
3930.80840,0.00041
3928.74823,0.00115
3926.68805,0.00158
3924.62788,0.00138
3922.56771,0.00084
3920.50754,0.00036
3918.44737,0.00023
3916.38719,0.00083
3914.32702,0.00177
3912.26685,0.00220
3910.20668,0.00219
3908.14651,0.00197
3906.08633,0.00137
3904.02616,0.00048
3901.96599,0.00028
3899.90582,0.00124
3897.84565,0.00217
3895.78547,0.00219
3893.72530,0.00164
3891.66513,0.00127
3889.60496,0.00132
3887.54478,0.00134
3885.48461,0.00119
3883.42444,0.00101
3881.36427,0.00105
3879.30410,0.00143
3877.24392,0.00165
3875.18375,0.00143
3873.12358,0.00112
3871.06341,0.00118
3869.00324,0.00167
3866.94306,0.00190
3864.88289,0.00176
3862.82272,0.00180
3860.76255,0.00186
3858.70237,0.00132
3856.64220,0.00021
3854.58203,0.00000
3852.52186,0.00146
3850.46169,0.00286
3848.40151,0.00292
3846.34134,0.00264
3844.28117,0.00251
3842.22100,0.00220
3840.16083,0.00171
3838.10065,0.00155
3836.04048,0.00209
3833.98031,0.00291
3831.92014,0.00348
3829.85997,0.00370
3827.79979,0.00354
3825.73962,0.00314
3823.67945,0.00273
3821.61928,0.00264
3819.55910,0.00287
3817.49893,0.00330
3815.43876,0.00389
3813.37859,0.00421
3811.31842,0.00392
3809.25824,0.00345
3807.19807,0.00326
3805.13790,0.00329
3803.07773,0.00354
3801.01756,0.00408
3798.95738,0.00434
3796.89721,0.00422
3794.83704,0.00441
3792.77687,0.00480
3790.71670,0.00496
3788.65652,0.00506
3786.59635,0.00530
3784.53618,0.00554
3782.47601,0.00564
3780.41583,0.00572
3778.35566,0.00587
3776.29549,0.00592
3774.23532,0.00568
3772.17515,0.00526
3770.11497,0.00495
3768.05480,0.00486
3765.99463,0.00490
3763.93446,0.00484
3761.87429,0.00448
3759.81411,0.00388
3757.75394,0.00315
3755.69377,0.00246
3753.63360,0.00169
3751.57342,0.00076
3749.51325,0.00009
3747.45308,0.00000
3745.39291,0.00015
3743.33274,0.00112
3741.27256,0.00194
3739.21239,0.00171
3737.15222,0.00127
3735.09205,0.00121
3733.03188,0.00175
3730.97170,0.00239
3728.91153,0.00259
3726.85136,0.00251
3724.79119,0.00262
3722.73102,0.00303
3720.67084,0.00350
3718.61067,0.00357
3716.55050,0.00322
3714.49033,0.00302
3712.43015,0.00347
3710.36998,0.00407
3708.30981,0.00449
3706.24964,0.00475
3704.18947,0.00490
3702.12929,0.00509
3700.06912,0.00538
3698.00895,0.00554
3695.94878,0.00533
3693.88861,0.00491
3691.82843,0.00463
3689.76826,0.00460
3687.70809,0.00496
3685.64792,0.00546
3683.58775,0.00548
3681.52757,0.00499
3679.46740,0.00426
3677.40723,0.00373
3675.34706,0.00390
3673.28688,0.00451
3671.22671,0.00514
3669.16654,0.00596
3667.10637,0.00637
3665.04620,0.00618
3662.98602,0.00599
3660.92585,0.00600
3658.86568,0.00594
3656.80551,0.00581
3654.74534,0.00575
3652.68516,0.00566
3650.62499,0.00574
3648.56482,0.00629
3646.50465,0.00718
3644.44447,0.00729
3642.38430,0.00702
3640.32413,0.00706
3638.26396,0.00714
3636.20379,0.00709
3634.14361,0.00702
3632.08344,0.00701
3630.02327,0.00750
3627.96310,0.00846
3625.90293,0.00890
3623.84275,0.00866
3621.78258,0.00836
3619.72241,0.00821
3617.66224,0.00814
3615.60207,0.00798
3613.54189,0.00777
3611.48172,0.00784
3609.42155,0.00834
3607.36138,0.00915
3605.30120,0.01003
3603.24103,0.01071
3601.18086,0.01108
3599.12069,0.01116
3597.06052,0.01122
3595.00034,0.01153
3592.94017,0.01206
3590.88000,0.01237
3588.81983,0.01219
3586.75966,0.01208
3584.69948,0.01254
3582.63931,0.01312
3580.57914,0.01357
3578.51897,0.01404
3576.45879,0.01445
3574.39862,0.01458
3572.33845,0.01454
3570.27828,0.01446
3568.21811,0.01435
3566.15793,0.01458
3564.09776,0.01516
3562.03759,0.01557
3559.97742,0.01592
3557.91725,0.01628
3555.85707,0.01641
3553.79690,0.01637
3551.73673,0.01638
3549.67656,0.01632
3547.61639,0.01599
3545.55621,0.01596
3543.49604,0.01678
3541.43587,0.01791
3539.37570,0.01868
3537.31552,0.01899
3535.25535,0.01915
3533.19518,0.01942
3531.13501,0.01968
3529.07484,0.01966
3527.01466,0.01933
3524.95449,0.01923
3522.89432,0.01978
3520.83415,0.02060
3518.77398,0.02121
3516.71380,0.02159
3514.65363,0.02182
3512.59346,0.02191
3510.53329,0.02190
3508.47312,0.02194
3506.41294,0.02197
3504.35277,0.02182
3502.29260,0.02174
3500.23243,0.02225
3498.17225,0.02301
3496.11208,0.02361
3494.05191,0.02399
3491.99174,0.02418
3489.93157,0.02429
3487.87139,0.02442
3485.81122,0.02449
3483.75105,0.02457
3481.69088,0.02477
3479.63071,0.02498
3477.57053,0.02516
3475.51036,0.02541
3473.45019,0.02569
3471.39002,0.02586
3469.32984,0.02602
3467.26967,0.02634
3465.20950,0.02663
3463.14933,0.02668
3461.08916,0.02670
3459.02898,0.02696
3456.96881,0.02736
3454.90864,0.02765
3452.84847,0.02782
3450.78830,0.02787
3448.72812,0.02791
3446.66795,0.02805
3444.60778,0.02821
3442.54761,0.02828
3440.48744,0.02826
3438.42726,0.02831
3436.36709,0.02860
3434.30692,0.02908
3432.24675,0.02943
3430.18657,0.02956
3428.12640,0.02973
3426.06623,0.02987
3424.00606,0.02985
3421.94589,0.02991
3419.88571,0.03010
3417.82554,0.03041
3415.76537,0.03078
3413.70520,0.03097
3411.64503,0.03089
3409.58485,0.03075
3407.52468,0.03083
3405.46451,0.03107
3403.40434,0.03112
3401.34416,0.03098
3399.28399,0.03023
3397.22382,0.03041
3395.16365,0.03080
3393.10348,0.03099
3391.04330,0.03110
3388.98313,0.03141
3386.92296,0.03187
3384.86279,0.03225
3382.80262,0.03250
3380.74244,0.03272
3378.68227,0.03299
3376.62210,0.03319
3374.56193,0.03326
3372.50176,0.03325
3370.44158,0.03323
3368.38141,0.03320
3366.32124,0.03319
3364.26107,0.03325
3362.20089,0.03330
3360.14072,0.03332
3358.08055,0.03338
3356.02038,0.03348
3353.96021,0.03357
3351.90003,0.03367
3349.83986,0.03378
3347.77969,0.03389
3345.71952,0.03398
3343.65935,0.03395
3341.59917,0.03379
3339.53900,0.03370
3337.47883,0.03387
3335.41866,0.03416
3333.35849,0.03437
3331.29831,0.03467
3329.23814,0.03494
3327.17797,0.03484
3325.11780,0.03458
3323.05762,0.03464
3320.99745,0.03498
3318.93728,0.03521
3316.87711,0.03518
3314.81694,0.03499
3312.75676,0.03470
3310.69659,0.03451
3308.63642,0.03465
3306.57625,0.03495
3304.51608,0.03524
3302.45590,0.03554
3300.39573,0.03567
3298.33556,0.03558
3296.27539,0.03547
3294.21521,0.03543
3292.15504,0.03542
3290.09487,0.03546
3288.03470,0.03564
3285.97453,0.03584
3283.91435,0.03595
3281.85418,0.03599
3279.79401,0.03589
3277.73384,0.03574
3275.67367,0.03575
3273.61349,0.03580
3271.55332,0.03583
3269.49315,0.03598
3267.43298,0.03625
3265.37281,0.03638
3263.31263,0.03624
3261.25246,0.03609
3259.19229,0.03611
3257.13212,0.03614
3255.07194,0.03616
3253.01177,0.03627
3250.95160,0.03648
3248.89143,0.03663
3246.83126,0.03657
3244.77108,0.03644
3242.71091,0.03646
3240.65074,0.03662
3238.59057,0.03671
3236.53040,0.03668
3234.47022,0.03667
3232.41005,0.03687
3230.34988,0.03699
3228.28971,0.03673
3226.22954,0.03633
3224.16936,0.03621
3222.10919,0.03631
3220.04902,0.03643
3217.98885,0.03655
3215.92867,0.03663
3213.86850,0.03657
3211.80833,0.03643
3209.74816,0.03635
3207.68799,0.03649
3205.62781,0.03677
3203.56764,0.03694
3201.50747,0.03688
3199.44730,0.03679
3197.38713,0.03682
3195.32695,0.03682
3193.26678,0.03661
3191.20661,0.03640
3189.14644,0.03633
3187.08626,0.03622
3185.02609,0.03612
3182.96592,0.03631
3180.90575,0.03656
3178.84558,0.03656
3176.78540,0.03650
3174.72523,0.03658
3172.66506,0.03665
3170.60489,0.03659
3168.54472,0.03654
3166.48454,0.03671
3164.42437,0.03700
3162.36420,0.03702
3160.30403,0.03677
3158.24386,0.03658
3156.18368,0.03650
3154.12351,0.03636
3152.06334,0.03621
3150.00317,0.03615
3147.94299,0.03612
3145.88282,0.03604
3143.82265,0.03599
3141.76248,0.03606
3139.70231,0.03613
3137.64213,0.03606
3135.58196,0.03592
3133.52179,0.03576
3131.46162,0.03571
3129.40145,0.03575
3127.34127,0.03556
3125.28110,0.03518
3123.22093,0.03495
3121.16076,0.03499
3119.10058,0.03512
3117.04041,0.03508
3114.98024,0.03496
3112.92007,0.03500
3110.85990,0.03506
3108.79972,0.03503
3106.73955,0.03490
3104.67938,0.03465
3102.61921,0.03440
3100.55904,0.03442
3098.49886,0.03459
3096.43869,0.03453
3094.37852,0.03440
3092.31835,0.03451
3090.25818,0.03456
3088.19800,0.03441
3086.13783,0.03434
3084.07766,0.03426
3082.01749,0.03399
3079.95731,0.03379
3077.89714,0.03378
3075.83697,0.03379
3073.77680,0.03386
3071.71663,0.03392
3069.65645,0.03378
3067.59628,0.03350
3065.53611,0.03329
3063.47594,0.03327
3061.41577,0.03338
3059.35559,0.03345
3057.29542,0.03329
3055.23525,0.03302
3053.17508,0.03288
3051.11491,0.03287
3049.05473,0.03286
3046.99456,0.03278
3044.93439,0.03265
3042.87422,0.03253
3040.81404,0.03246
3038.75387,0.03242
3036.69370,0.03233
3034.63353,0.03219
3032.57336,0.03196
3030.51318,0.03169
3028.45301,0.03146
3026.39284,0.03131
3024.33267,0.03129
3022.27250,0.03134
3020.21232,0.03134
3018.15215,0.03116
3016.09198,0.03076
3014.03181,0.03041
3011.97163,0.03025
3009.91146,0.03021
3007.85129,0.03021
3005.79112,0.03022
3003.73095,0.03024
3001.67077,0.03025
2999.61060,0.03031
2997.55043,0.03012
2995.49026,0.02990
2993.43009,0.02977
2991.36991,0.02973
2989.30974,0.02967
2987.24957,0.02968
2985.18940,0.02980
2983.12923,0.02982
2981.06905,0.02978
2979.00888,0.02984
2976.94871,0.02986
2974.88854,0.02966
2972.82836,0.02939
2970.76819,0.02933
2968.70802,0.02945
2966.64785,0.02950
2964.58768,0.02947
2962.52750,0.02953
2960.46733,0.02962
2958.40716,0.02962
2956.34699,0.02957
2954.28682,0.02952
2952.22664,0.02947
2950.16647,0.02940
2948.10630,0.02933
2946.04613,0.02935
2943.98596,0.02933
2941.92578,0.02909
2939.86561,0.02885
2937.80544,0.02881
2935.74527,0.02890
2933.68509,0.02908
2931.62492,0.02919
2929.56475,0.02907
2927.50458,0.02889
2925.44441,0.02884
2923.38423,0.02890
2921.32406,0.02902
2919.26389,0.02906
2917.20372,0.02898
2915.14355,0.02897
2913.08337,0.02899
2911.02320,0.02885
2908.96303,0.02862
2906.90286,0.02847
2904.84268,0.02839
2902.78251,0.02833
2900.72234,0.02826
2898.66217,0.02824
2896.60200,0.02826
2894.54182,0.02821
2892.48165,0.02808
2890.42148,0.02799
2888.36131,0.02799
2886.30114,0.02802
2884.24096,0.02810
2882.18079,0.02822
2880.12062,0.02822
2878.06045,0.02809
2876.00028,0.02801
2873.94010,0.02802
2871.87993,0.02803
2869.81976,0.02796
2867.75959,0.02785
2865.69941,0.02772
2863.63924,0.02754
2861.57907,0.02742
2859.51890,0.02744
2857.45873,0.02747
2855.39855,0.02751
2853.33838,0.02753
2851.27821,0.02743
2849.21804,0.02733
2847.15787,0.02733
2845.09769,0.02728
2843.03752,0.02711
2840.97735,0.02689
2838.91718,0.02667
2836.85700,0.02652
2834.79683,0.02645
2832.73666,0.02642
2830.67649,0.02640
2828.61632,0.02635
2826.55614,0.02625
2824.49597,0.02620
2822.43580,0.02615
2820.37563,0.02598
2818.31546,0.02580
2816.25528,0.02578
2814.19511,0.02588
2812.13494,0.02592
2810.07477,0.02581
2808.01460,0.02564
2805.95442,0.02550
2803.89425,0.02531
2801.83408,0.02513
2799.77391,0.02509
2797.71373,0.02512
2795.65356,0.02508
2793.59339,0.02504
2791.53322,0.02505
2789.47305,0.02504
2787.41287,0.02496
2785.35270,0.02481
2783.29253,0.02469
2781.23236,0.02467
2779.17219,0.02473
2777.11201,0.02472
2775.05184,0.02459
2772.99167,0.02442
2770.93150,0.02430
2768.87133,0.02428
2766.81115,0.02425
2764.75098,0.02411
2762.69081,0.02389
2760.63064,0.02363
2758.57046,0.02347
2756.51029,0.02351
2754.45012,0.02361
2752.38995,0.02370
2750.32978,0.02367
2748.26960,0.02350
2746.20943,0.02329
2744.14926,0.02308
2742.08909,0.02298
2740.02892,0.02306
2737.96874,0.02316
2735.90857,0.02308
2733.84840,0.02297
2731.78823,0.02296
2729.72805,0.02293
2727.66788,0.02283
2725.60771,0.02264
2723.54754,0.02241
2721.48737,0.02228
2719.42719,0.02232
2717.36702,0.02240
2715.30685,0.02237
2713.24668,0.02221
2711.18651,0.02207
2709.12633,0.02207
2707.06616,0.02202
2705.00599,0.02189
2702.94582,0.02181
2700.88565,0.02184
2698.82547,0.02189
2696.76530,0.02187
2694.70513,0.02181
2692.64496,0.02176
2690.58478,0.02169
2688.52461,0.02155
2686.46444,0.02141
2684.40427,0.02140
2682.34410,0.02146
2680.28392,0.02151
2678.22375,0.02147
2676.16358,0.02131
2674.10341,0.02113
2672.04324,0.02101
2669.98306,0.02092
2667.92289,0.02085
2665.86272,0.02080
2663.80255,0.02077
2661.74238,0.02073
2659.68220,0.02065
2657.62203,0.02056
2655.56186,0.02051
2653.50169,0.02045
2651.44151,0.02035
2649.38134,0.02022
2647.32117,0.02009
2645.26100,0.01999
2643.20083,0.01993
2641.14065,0.01985
2639.08048,0.01983
2637.02031,0.01988
2634.96014,0.01991
2632.89997,0.01994
2630.83979,0.01999
2628.77962,0.01997
2626.71945,0.01993
2624.65928,0.01997
2622.59910,0.01990
2620.53893,0.01968
2618.47876,0.01958
2616.41859,0.01966
2614.35842,0.01972
2612.29824,0.01965
2610.23807,0.01949
2608.17790,0.01941
2606.11773,0.01944
2604.05756,0.01944
2601.99738,0.01942
2599.93721,0.01949
2597.87704,0.01946
2595.81687,0.01944
2593.75670,0.01958
2591.69652,0.01962
2589.63635,0.01947
2587.57618,0.01933
2585.51601,0.01928
2583.45583,0.01932
2581.39566,0.01941
2579.33549,0.01947
2577.27532,0.01948
2575.21515,0.01942
2573.15497,0.01934
2571.09480,0.01916
2569.03463,0.01902
2566.97446,0.01911
2564.91429,0.01932
2562.85411,0.01942
2560.79394,0.01940
2558.73377,0.01937
2556.67360,0.01927
2554.61342,0.01917
2552.55325,0.01926
2550.49308,0.01946
2548.43291,0.01956
2546.37274,0.01952
2544.31256,0.01947
2542.25239,0.01956
2540.19222,0.01959
2538.13205,0.01945
2536.07188,0.01939
2534.01170,0.01942
2531.95153,0.01950
2529.89136,0.01958
2527.83119,0.01952
2525.77102,0.01948
2523.71084,0.01957
2521.65067,0.01961
2519.59050,0.01974
2517.53033,0.01990
2515.47015,0.01980
2513.40998,0.01968
2511.34981,0.01985
2509.28964,0.02014
2507.22947,0.02033
2505.16929,0.02028
2503.10912,0.02017
2501.04895,0.02006
2498.98878,0.01979
2496.92861,0.01969
2494.86843,0.02002
2492.80826,0.02038
2490.74809,0.02051
2488.68792,0.02050
2486.62775,0.02056
2484.56757,0.02070
2482.50740,0.02078
2480.44723,0.02072
2478.38706,0.02059
2476.32688,0.02050
2474.26671,0.02059
2472.20654,0.02070
2470.14637,0.02069
2468.08620,0.02069
2466.02602,0.02070
2463.96585,0.02074
2461.90568,0.02095
2459.84551,0.02117
2457.78534,0.02121
2455.72516,0.02126
2453.66499,0.02126
2451.60482,0.02100
2449.54465,0.02080
2447.48447,0.02101
2445.42430,0.02133
2443.36413,0.02144
2441.30396,0.02152
2439.24379,0.02168
2437.18361,0.02165
2435.12344,0.02146
2433.06327,0.02132
2431.00310,0.02132
2428.94293,0.02148
2426.88275,0.02149
2424.82258,0.02124
2422.76241,0.02109
2420.70224,0.02114
2418.64207,0.02116
2416.58189,0.02114
2414.52172,0.02108
2412.46155,0.02092
2410.40138,0.02075
2408.34120,0.02076
2406.28103,0.02087
2404.22086,0.02098
2402.16069,0.02112
2400.10052,0.02122
2398.04034,0.02140
2395.98017,0.02135
2393.92000,0.02113
2391.85983,0.02094
2389.79966,0.02082
2387.73948,0.02060
2385.67931,0.02018
2383.61914,0.01969
2381.55897,0.01930
2379.49880,0.01910
2377.43862,0.01911
2375.37845,0.01926
2373.31828,0.01940
2371.25811,0.01976
2369.19793,0.02084
2367.13776,0.02213
2365.07759,0.02236
2363.01742,0.02148
2360.95725,0.02041
2358.89707,0.01976
2356.83690,0.01985
2354.77673,0.02037
2352.71656,0.02038
2350.65639,0.01983
2348.59621,0.01945
2346.53604,0.01945
2344.47587,0.01964
2342.41570,0.02010
2340.35552,0.02064
2338.29535,0.02074
2336.23518,0.02052
2334.17501,0.02027
2332.11484,0.01986
2330.05466,0.01916
2327.99449,0.01848
2325.93432,0.01810
2323.87415,0.01797
2321.81398,0.01782
2319.75380,0.01754
2317.69363,0.01728
2315.63346,0.01713
2313.57329,0.01710
2311.51312,0.01732
2309.45294,0.01774
2307.39277,0.01804
2305.33260,0.01807
2303.27243,0.01791
2301.21225,0.01773
2299.15208,0.01762
2297.09191,0.01763
2295.03174,0.01782
2292.97157,0.01809
2290.91139,0.01835
2288.85122,0.01861
2286.79105,0.01877
2284.73088,0.01884
2282.67071,0.01906
2280.61053,0.01937
2278.55036,0.01931
2276.49019,0.01895
2274.43002,0.01882
2272.36984,0.01890
2270.30967,0.01888
2268.24950,0.01875
2266.18933,0.01857
2264.12916,0.01836
2262.06898,0.01825
2260.00881,0.01822
2257.94864,0.01811
2255.88847,0.01795
2253.82830,0.01771
2251.76812,0.01742
2249.70795,0.01756
2247.64778,0.01803
2245.58761,0.01817
2243.52744,0.01787
2241.46726,0.01772
2239.40709,0.01805
2237.34692,0.01838
2235.28675,0.01827
2233.22657,0.01817
2231.16640,0.01838
2229.10623,0.01844
2227.04606,0.01820
2224.98589,0.01781
2222.92571,0.01696
2220.86554,0.01623
2218.80537,0.01654
2216.74520,0.01714
2214.68503,0.01722
2212.62485,0.01716
2210.56468,0.01723
2208.50451,0.01726
2206.44434,0.01731
2204.38417,0.01746
2202.32399,0.01733
2200.26382,0.01675
2198.20365,0.01670
2196.14348,0.01737
2194.08330,0.01738
2192.02313,0.01692
2189.96296,0.01693
2187.90279,0.01697
2185.84262,0.01661
2183.78244,0.01622
2181.72227,0.01633
2179.66210,0.01693
2177.60193,0.01750
2175.54176,0.01732
2173.48158,0.01642
2171.42141,0.01587
2169.36124,0.01583
2167.30107,0.01543
2165.24089,0.01495
2163.18072,0.01497
2161.12055,0.01468
2159.06038,0.01421
2157.00021,0.01466
2154.94003,0.01544
2152.87986,0.01613
2150.81969,0.01652
2148.75952,0.01583
2146.69935,0.01439
2144.63917,0.01382
2142.57900,0.01455
2140.51883,0.01545
2138.45866,0.01576
2136.39849,0.01540
2134.33831,0.01503
2132.27814,0.01527
2130.21797,0.01556
2128.15780,0.01569
2126.09762,0.01584
2124.03745,0.01590
2121.97728,0.01609
2119.91711,0.01627
2117.85694,0.01592
2115.79676,0.01539
2113.73659,0.01522
2111.67642,0.01514
2109.61625,0.01493
2107.55608,0.01464
2105.49590,0.01432
2103.43573,0.01453
2101.37556,0.01536
2099.31539,0.01644
2097.25521,0.01656
2095.19504,0.01599
2093.13487,0.01528
2091.07470,0.01496
2089.01453,0.01511
2086.95435,0.01526
2084.89418,0.01511
2082.83401,0.01504
2080.77384,0.01554
2078.71367,0.01621
2076.65349,0.01634
2074.59332,0.01608
2072.53315,0.01593
2070.47298,0.01578
2068.41281,0.01571
2066.35263,0.01580
2064.29246,0.01566
2062.23229,0.01511
2060.17212,0.01456
2058.11194,0.01427
2056.05177,0.01429
2053.99160,0.01489
2051.93143,0.01571
2049.87126,0.01629
2047.81108,0.01679
2045.75091,0.01715
2043.69074,0.01713
2041.63057,0.01686
2039.57040,0.01670
2037.51022,0.01670
2035.45005,0.01636
2033.38988,0.01543
2031.32971,0.01440
2029.26954,0.01429
2027.20936,0.01536
2025.14919,0.01630
2023.08902,0.01629
2021.02885,0.01583
2018.96867,0.01543
2016.90850,0.01569
2014.84833,0.01636
2012.78816,0.01653
2010.72799,0.01654
2008.66781,0.01667
2006.60764,0.01601
2004.54747,0.01470
2002.48730,0.01417
2000.42713,0.01455
1998.36695,0.01478
1996.30678,0.01451
1994.24661,0.01441
1992.18644,0.01449
1990.12626,0.01435
1988.06609,0.01429
1986.00592,0.01446
1983.94575,0.01452
1981.88558,0.01490
1979.82540,0.01594
1977.76523,0.01675
1975.70506,0.01665
1973.64489,0.01610
1971.58472,0.01572
1969.52454,0.01542
1967.46437,0.01490
1965.40420,0.01424
1963.34403,0.01372
1961.28386,0.01376
1959.22368,0.01403
1957.16351,0.01391
1955.10334,0.01369
1953.04317,0.01394
1950.98299,0.01458
1948.92282,0.01523
1946.86265,0.01549
1944.80248,0.01544
1942.74231,0.01560
1940.68213,0.01591
1938.62196,0.01579
1936.56179,0.01522
1934.50162,0.01485
1932.44145,0.01480
1930.38127,0.01486
1928.32110,0.01506
1926.26093,0.01514
1924.20076,0.01491
1922.14059,0.01469
1920.08041,0.01459
1918.02024,0.01452
1915.96007,0.01465
1913.89990,0.01510
1911.83972,0.01553
1909.77955,0.01559
1907.71938,0.01551
1905.65921,0.01561
1903.59904,0.01569
1901.53886,0.01561
1899.47869,0.01552
1897.41852,0.01544
1895.35835,0.01540
1893.29818,0.01540
1891.23800,0.01537
1889.17783,0.01532
1887.11766,0.01541
1885.05749,0.01561
1882.99731,0.01573
1880.93714,0.01573
1878.87697,0.01566
1876.81680,0.01562
1874.75663,0.01574
1872.69645,0.01597
1870.63628,0.01616
1868.57611,0.01624
1866.51594,0.01625
1864.45577,0.01609
1862.39559,0.01579
1860.33542,0.01568
1858.27525,0.01585
1856.21508,0.01599
1854.15491,0.01588
1852.09473,0.01571
1850.03456,0.01569
1847.97439,0.01564
1845.91422,0.01538
1843.85404,0.01511
1841.79387,0.01518
1839.73370,0.01553
1837.67353,0.01582
1835.61336,0.01578
1833.55318,0.01575
1831.49301,0.01605
1829.43284,0.01629
1827.37267,0.01619
1825.31250,0.01611
1823.25232,0.01633
1821.19215,0.01660
1819.13198,0.01654
1817.07181,0.01626
1815.01163,0.01608
1812.95146,0.01585
1810.89129,0.01552
1808.83112,0.01543
1806.77095,0.01560
1804.71077,0.01559
1802.65060,0.01537
1800.59043,0.01535
1798.53026,0.01546
1796.47009,0.01551
1794.40991,0.01565
1792.34974,0.01566
1790.28957,0.01538
1788.22940,0.01511
1786.16923,0.01500
1784.10905,0.01516
1782.04888,0.01553
1779.98871,0.01565
1777.92854,0.01551
1775.86836,0.01551
1773.80819,0.01572
1771.74802,0.01562
1769.68785,0.01504
1767.62768,0.01469
1765.56750,0.01490
1763.50733,0.01528
1761.44716,0.01537
1759.38699,0.01519
1757.32682,0.01505
1755.26664,0.01501
1753.20647,0.01506
1751.14630,0.01514
1749.08613,0.01517
1747.02596,0.01510
1744.96578,0.01509
1742.90561,0.01538
1740.84544,0.01576
1738.78527,0.01591
1736.72509,0.01591
1734.66492,0.01575
1732.60475,0.01542
1730.54458,0.01542
1728.48441,0.01563
1726.42423,0.01578
1724.36406,0.01577
1722.30389,0.01586
1720.24372,0.01624
1718.18355,0.01623
1716.12337,0.01533
1714.06320,0.01480
1712.00303,0.01488
1709.94286,0.01521
1707.88268,0.01550
1705.82251,0.01536
1703.76234,0.01507
1701.70217,0.01530
1699.64200,0.01563
1697.58182,0.01564
1695.52165,0.01577
1693.46148,0.01611
1691.40131,0.01636
1689.34114,0.01668
1687.28096,0.01727
1685.22079,0.01800
1683.16062,0.01812
1681.10045,0.01807
1679.04028,0.01848
1676.98010,0.01931
1674.91993,0.02025
1672.85976,0.02102
1670.79959,0.02153
1668.73941,0.02161
1666.67924,0.02147
1664.61907,0.02158
1662.55890,0.02176
1660.49873,0.02159
1658.43855,0.02149
1656.37838,0.02195
1654.31821,0.02257
1652.25804,0.02230
1650.19787,0.02196
1648.13769,0.02195
1646.07752,0.02187
1644.01735,0.02158
1641.95718,0.02156
1639.89701,0.02204
1637.83683,0.02268
1635.77666,0.02272
1633.71649,0.02228
1631.65632,0.02207
1629.59614,0.02217
1627.53597,0.02226
1625.47580,0.02221
1623.41563,0.02199
1621.35546,0.02173
1619.29528,0.02199
1617.23511,0.02254
1615.17494,0.02242
1613.11477,0.02197
1611.05460,0.02184
1608.99442,0.02192
1606.93425,0.02193
1604.87408,0.02195
1602.81391,0.02196
1600.75373,0.02190
1598.69356,0.02187
1596.63339,0.02185
1594.57322,0.02166
1592.51305,0.02134
1590.45287,0.02111
1588.39270,0.02096
1586.33253,0.02070
1584.27236,0.02024
1582.21219,0.01976
1580.15201,0.01966
1578.09184,0.01976
1576.03167,0.01931
1573.97150,0.01835
1571.91133,0.01783
1569.85115,0.01764
1567.79098,0.01714
1565.73081,0.01656
1563.67064,0.01641
1561.61046,0.01688
1559.55029,0.01686
1557.49012,0.01520
1555.42995,0.01400
1553.36978,0.01365
1551.30960,0.01356
1549.24943,0.01345
1547.18926,0.01330
1545.12909,0.01320
1543.06892,0.01334
1541.00874,0.01376
1538.94857,0.01360
1536.88840,0.01293
1534.82823,0.01257
1532.76805,0.01256
1530.70788,0.01245
1528.64771,0.01228
1526.58754,0.01198
1524.52737,0.01158
1522.46719,0.01120
1520.40702,0.01069
1518.34685,0.01046
1516.28668,0.01039
1514.22651,0.01012
1512.16633,0.00988
1510.10616,0.00998
1508.04599,0.01044
1505.98582,0.01090
1503.92565,0.01096
1501.86547,0.01077
1499.80530,0.01095
1497.74513,0.01136
1495.68496,0.01163
1493.62478,0.01191
1491.56461,0.01219
1489.50444,0.01214
1487.44427,0.01196
1485.38410,0.01202
1483.32392,0.01221
1481.26375,0.01237
1479.20358,0.01247
1477.14341,0.01255
1475.08324,0.01259
1473.02306,0.01256
1470.96289,0.01252
1468.90272,0.01256
1466.84255,0.01282
1464.78238,0.01301
1462.72220,0.01293
1460.66203,0.01294
1458.60186,0.01286
1456.54169,0.01232
1454.48151,0.01221
1452.42134,0.01259
1450.36117,0.01323
1448.30100,0.01387
1446.24083,0.01421
1444.18065,0.01430
1442.12048,0.01435
1440.06031,0.01436
1438.00014,0.01421
1435.93997,0.01395
1433.87979,0.01396
1431.81962,0.01422
1429.75945,0.01456
1427.69928,0.01482
1425.63910,0.01502
1423.57893,0.01512
1421.51876,0.01501
1419.45859,0.01472
1417.39842,0.01472
1415.33824,0.01528
1413.27807,0.01596
1411.21790,0.01638
1409.15773,0.01664
1407.09756,0.01688
1405.03738,0.01699
1402.97721,0.01697
1400.91704,0.01682
1398.85687,0.01638
1396.79670,0.01598
1394.73652,0.01603
1392.67635,0.01631
1390.61618,0.01651
1388.55601,0.01666
1386.49583,0.01686
1384.43566,0.01707
1382.37549,0.01717
1380.31532,0.01717
1378.25515,0.01724
1376.19497,0.01740
1374.13480,0.01737
1372.07463,0.01725
1370.01446,0.01733
1367.95429,0.01745
1365.89411,0.01741
1363.83394,0.01711
1361.77377,0.01682
1359.71360,0.01701
1357.65343,0.01740
1355.59325,0.01761
1353.53308,0.01766
1351.47291,0.01762
1349.41274,0.01747
1347.35256,0.01720
1345.29239,0.01686
1343.23222,0.01643
1341.17205,0.01583
1339.11188,0.01525
1337.05170,0.01523
1334.99153,0.01561
1332.93136,0.01582
1330.87119,0.01568
1328.81102,0.01545
1326.75084,0.01531
1324.69067,0.01522
1322.63050,0.01509
1320.57033,0.01493
1318.51015,0.01469
1316.44998,0.01451
1314.38981,0.01443
1312.32964,0.01445
1310.26947,0.01453
1308.20929,0.01457
1306.14912,0.01452
1304.08895,0.01452
1302.02878,0.01452
1299.96861,0.01443
1297.90843,0.01430
1295.84826,0.01424
1293.78809,0.01420
1291.72792,0.01406
1289.66775,0.01387
1287.60757,0.01378
1285.54740,0.01378
1283.48723,0.01380
1281.42706,0.01385
1279.36688,0.01395
1277.30671,0.01405
1275.24654,0.01403
1273.18637,0.01389
1271.12620,0.01369
1269.06602,0.01351
1267.00585,0.01344
1264.94568,0.01345
1262.88551,0.01350
1260.82534,0.01355
1258.76516,0.01357
1256.70499,0.01356
1254.64482,0.01350
1252.58465,0.01340
1250.52447,0.01330
1248.46430,0.01323
1246.40413,0.01308
1244.34396,0.01284
1242.28379,0.01269
1240.22361,0.01267
1238.16344,0.01272
1236.10327,0.01271
1234.04310,0.01252
1231.98293,0.01231
1229.92275,0.01224
1227.86258,0.01220
1225.80241,0.01209
1223.74224,0.01197
1221.68207,0.01185
1219.62189,0.01171
1217.56172,0.01154
1215.50155,0.01138
1213.44138,0.01125
1211.38120,0.01114
1209.32103,0.01114
1207.26086,0.01125
1205.20069,0.01138
1203.14052,0.01152
1201.08034,0.01167
1199.02017,0.01178
1196.96000,0.01210
1194.89983,0.01261
1192.83966,0.01308
1190.77948,0.01348
1188.71931,0.01396
1186.65914,0.01461
1184.59897,0.01538
1182.53880,0.01614
1180.47862,0.01694
1178.41845,0.01785
1176.35828,0.01858
1174.29811,0.01923
1172.23793,0.02015
1170.17776,0.02115
1168.11759,0.02193
1166.05742,0.02261
1163.99725,0.02336
1161.93707,0.02418
1159.87690,0.02502
1157.81673,0.02583
1155.75656,0.02655
1153.69639,0.02723
1151.63621,0.02809
1149.57604,0.02913
1147.51587,0.03001
1145.45570,0.03062
1143.39552,0.03117
1141.33535,0.03177
1139.27518,0.03229
1137.21501,0.03265
1135.15484,0.03300
1133.09466,0.03343
1131.03449,0.03394
1128.97432,0.03448
1126.91415,0.03496
1124.85398,0.03544
1122.79380,0.03606
1120.73363,0.03677
1118.67346,0.03747
1116.61329,0.03813
1114.55312,0.03895
1112.49294,0.03997
1110.43277,0.04095
1108.37260,0.04178
1106.31243,0.04261
1104.25225,0.04352
1102.19208,0.04447
1100.13191,0.04552
1098.07174,0.04653
1096.01157,0.04736
1093.95139,0.04814
1091.89122,0.04899
1089.83105,0.04997
1087.77088,0.05112
1085.71071,0.05222
1083.65053,0.05322
1081.59036,0.05425
1079.53019,0.05522
1077.47002,0.05599
1075.40985,0.05658
1073.34967,0.05715
1071.28950,0.05766
1069.22933,0.05801
1067.16916,0.05815
1065.10898,0.05804
1063.04881,0.05776
1060.98864,0.05731
1058.92847,0.05662
1056.86830,0.05573
1054.80812,0.05478
1052.74795,0.05373
1050.68778,0.05240
1048.62761,0.05093
1046.56744,0.04953
1044.50726,0.04814
1042.44709,0.04657
1040.38692,0.04484
1038.32675,0.04307
1036.26657,0.04129
1034.20640,0.03949
1032.14623,0.03782
1030.08606,0.03637
1028.02589,0.03515
1025.96571,0.03407
1023.90554,0.03296
1021.84537,0.03181
1019.78520,0.03082
1017.72503,0.03004
1015.66485,0.02949
1013.60468,0.02923
1011.54451,0.02921
1009.48434,0.02950
1007.42417,0.03002
1005.36399,0.03051
1003.30382,0.03102
1001.24365,0.03181
999.18348,0.03291
997.12330,0.03405
995.06313,0.03499
993.00296,0.03571
990.94279,0.03646
988.88262,0.03727
986.82244,0.03788
984.76227,0.03830
982.70210,0.03864
980.64193,0.03896
978.58176,0.03919
976.52158,0.03922
974.46141,0.03915
972.40124,0.03907
970.34107,0.03880
968.28089,0.03823
966.22072,0.03757
964.16055,0.03701
962.10038,0.03655
960.04021,0.03605
957.98003,0.03552
955.91986,0.03500
953.85969,0.03448
951.79952,0.03395
949.73935,0.03347
947.67917,0.03304
945.61900,0.03260
943.55883,0.03209
941.49866,0.03155
939.43849,0.03089
937.37831,0.03011
935.31814,0.02925
933.25797,0.02832
931.19780,0.02753
929.13762,0.02698
927.07745,0.02643
925.01728,0.02581
922.95711,0.02517
920.89694,0.02446
918.83676,0.02366
916.77659,0.02282
914.71642,0.02197
912.65625,0.02130
910.59608,0.02086
908.53590,0.02035
906.47573,0.01973
904.41556,0.01928
902.35539,0.01910
900.29522,0.01902
898.23504,0.01888
896.17487,0.01884
894.11470,0.01902
892.05453,0.01928
889.99435,0.01963
887.93418,0.02004
885.87401,0.02048
883.81384,0.02104
881.75367,0.02182
879.69349,0.02268
877.63332,0.02355
875.57315,0.02462
873.51298,0.02589
871.45281,0.02733
869.39263,0.02881
867.33246,0.03009
865.27229,0.03116
863.21212,0.03216
861.15194,0.03298
859.09177,0.03352
857.03160,0.03384
854.97143,0.03383
852.91126,0.03369
850.85108,0.03369
848.79091,0.03347
846.73074,0.03284
844.67057,0.03214
842.61040,0.03137
840.55022,0.03032
838.49005,0.02922
836.42988,0.02831
834.36971,0.02762
832.30954,0.02698
830.24936,0.02635
828.18919,0.02565
826.12902,0.02472
824.06885,0.02385
822.00867,0.02332
819.94850,0.02287
817.88833,0.02227
815.82816,0.02174
813.76799,0.02130
811.70781,0.02060
809.64764,0.01976
807.58747,0.01930
805.52730,0.01923
803.46713,0.01932
801.40695,0.01919
799.34678,0.01845
797.28661,0.01756
795.22644,0.01709
793.16627,0.01681
791.10609,0.01646
789.04592,0.01599
786.98575,0.01546
784.92558,0.01508
782.86540,0.01480
780.80523,0.01456
778.74506,0.01451
776.68489,0.01464
774.62472,0.01455
772.56454,0.01411
770.50437,0.01377
768.44420,0.01359
766.38403,0.01327
764.32386,0.01299
762.26368,0.01281
760.20351,0.01248
758.14334,0.01211
756.08317,0.01177
754.02299,0.01131
751.96282,0.01092
749.90265,0.01086
747.84248,0.01097
745.78231,0.01091
743.72213,0.01049
741.66196,0.00987
739.60179,0.00937
737.54162,0.00937
735.48145,0.00990
733.42127,0.01024
731.36110,0.00996
729.30093,0.00951
727.24076,0.00938
725.18059,0.00934
723.12041,0.00897
721.06024,0.00891
719.00007,0.00926
716.93990,0.00944
714.87972,0.00923
712.81955,0.00887
710.75938,0.00850
708.69921,0.00823
706.63904,0.00810
704.57886,0.00812
702.51869,0.00825
700.45852,0.00825
698.39835,0.00796
696.33818,0.00758
694.27800,0.00732
692.21783,0.00722
690.15766,0.00714
688.09749,0.00701
686.03731,0.00715
683.97714,0.00763
681.91697,0.00782
679.85680,0.00730
677.79663,0.00670
675.73645,0.00661
673.67628,0.00666
671.61611,0.00630
669.55594,0.00562
667.49577,0.00526
665.43559,0.00554
663.37542,0.00565
661.31525,0.00560
659.25508,0.00565
657.19491,0.00571
655.13473,0.00551
653.07456,0.00505
651.01439,0.00435
648.95422,0.00373
646.89404,0.00389
644.83387,0.00479
642.77370,0.00563
640.71353,0.00584
638.65336,0.00536
636.59318,0.00477
634.53301,0.00448
632.47284,0.00409
630.41267,0.00333
628.35250,0.00268
626.29232,0.00265
624.23215,0.00322
622.17198,0.00402
620.11181,0.00356
618.05164,0.00195
615.99146,0.00138
613.93129,0.00178
611.87112,0.00191
609.81095,0.00177
607.75077,0.00106
605.69060,0.00004
603.63043,0.00000
601.57026,0.00018
599.51009,0.00000
