3996.73391,-0.00071
3994.67373,-0.00078
3992.61356,-0.00075
3990.55339,-0.00049
3988.49322,-0.00016
3986.43305,0.00003
3984.37287,0.00009
3982.31270,0.00015
3980.25253,0.00019
3978.19236,0.00015
3976.13219,0.00003
3974.07201,-0.00004
3972.01184,0.00008
3969.95167,0.00033
3967.89150,0.00076
3965.83133,0.00114
3963.77115,0.00109
3961.71098,0.00072
3959.65081,0.00046
3957.59064,0.00053
3955.53046,0.00084
3953.47029,0.00109
3951.41012,0.00083
3949.34995,0.00017
3947.28978,0.00000
3945.22960,0.00050
3943.16943,0.00079
3941.10926,0.00071
3939.04909,0.00079
3936.98892,0.00094
3934.92874,0.00074
3932.86857,0.00042
3930.80840,0.00057
3928.74823,0.00101
3926.68805,0.00128
3924.62788,0.00121
3922.56771,0.00085
3920.50754,0.00061
3918.44737,0.00070
3916.38719,0.00123
3914.32702,0.00197
3912.26685,0.00232
3910.20668,0.00219
3908.14651,0.00188
3906.08633,0.00145
3904.02616,0.00085
3901.96599,0.00061
3899.90582,0.00115
3897.84565,0.00170
3895.78547,0.00171
3893.72530,0.00139
3891.66513,0.00116
3889.60496,0.00118
3887.54478,0.00121
3885.48461,0.00127
3883.42444,0.00135
3881.36427,0.00147
3879.30410,0.00168
3877.24392,0.00175
3875.18375,0.00151
3873.12358,0.00103
3871.06341,0.00074
3869.00324,0.00113
3866.94306,0.00156
3864.88289,0.00153
3862.82272,0.00138
3860.76255,0.00128
3858.70237,0.00081
3856.64220,-0.00002
3854.58203,0.00000
3852.52186,0.00137
3850.46169,0.00257
3848.40151,0.00256
3846.34134,0.00218
3844.28117,0.00201
3842.22100,0.00198
3840.16083,0.00199
3838.10065,0.00210
3836.04048,0.00243
3833.98031,0.00282
3831.92014,0.00313
3829.85997,0.00335
3827.79979,0.00339
3825.73962,0.00312
3823.67945,0.00269
3821.61928,0.00263
3819.55910,0.00285
3817.49893,0.00314
3815.43876,0.00360
3813.37859,0.00380
3811.31842,0.00342
3809.25824,0.00301
3807.19807,0.00293
3805.13790,0.00297
3803.07773,0.00304
3801.01756,0.00332
3798.95738,0.00355
3796.89721,0.00371
3794.83704,0.00412
3792.77687,0.00439
3790.71670,0.00434
3788.65652,0.00441
3786.59635,0.00464
3784.53618,0.00473
3782.47601,0.00482
3780.41583,0.00513
3778.35566,0.00541
3776.29549,0.00540
3774.23532,0.00525
3772.17515,0.00509
3770.11497,0.00480
3768.05480,0.00442
3765.99463,0.00423
3763.93446,0.00410
3761.87429,0.00377
3759.81411,0.00322
3757.75394,0.00259
3755.69377,0.00212
3753.63360,0.00172
3751.57342,0.00099
3749.51325,0.00017
3747.45308,0.00000
3745.39291,0.00005
3743.33274,0.00067
3741.27256,0.00130
3739.21239,0.00120
3737.15222,0.00083
3735.09205,0.00063
3733.03188,0.00103
3730.97170,0.00175
3728.91153,0.00216
3726.85136,0.00221
3724.79119,0.00220
3722.73102,0.00236
3720.67084,0.00265
3718.61067,0.00267
3716.55050,0.00247
3714.49033,0.00257
3712.43015,0.00319
3710.36998,0.00372
3708.30981,0.00396
3706.24964,0.00428
3704.18947,0.00469
3702.12929,0.00488
3700.06912,0.00478
3698.00895,0.00462
3695.94878,0.00455
3693.88861,0.00463
3691.82843,0.00500
3689.76826,0.00530
3687.70809,0.00525
3685.64792,0.00508
3683.58775,0.00491
3681.52757,0.00473
3679.46740,0.00438
3677.40723,0.00404
3675.34706,0.00414
3673.28688,0.00446
3671.22671,0.00478
3669.16654,0.00530
3667.10637,0.00567
3665.04620,0.00568
3662.98602,0.00559
3660.92585,0.00553
3658.86568,0.00540
3656.80551,0.00534
3654.74534,0.00548
3652.68516,0.00558
3650.62499,0.00535
3648.56482,0.00512
3646.50465,0.00575
3644.44447,0.00634
3642.38430,0.00665
3640.32413,0.00691
3638.26396,0.00696
3636.20379,0.00698
3634.14361,0.00729
3632.08344,0.00769
3630.02327,0.00807
3627.96310,0.00855
3625.90293,0.00890
3623.84275,0.00890
3621.78258,0.00886
3619.72241,0.00888
3617.66224,0.00882
3615.60207,0.00865
3613.54189,0.00846
3611.48172,0.00838
3609.42155,0.00873
3607.36138,0.00962
3605.30120,0.01059
3603.24103,0.01121
3601.18086,0.01160
3599.12069,0.01192
3597.06052,0.01207
3595.00034,0.01219
3592.94017,0.01255
3590.88000,0.01306
3588.81983,0.01336
3586.75966,0.01359
3584.69948,0.01403
3582.63931,0.01452
3580.57914,0.01509
3578.51897,0.01567
3576.45879,0.01605
3574.39862,0.01613
3572.33845,0.01618
3570.27828,0.01628
3568.21811,0.01617
3566.15793,0.01615
3564.09776,0.01663
3562.03759,0.01720
3559.97742,0.01769
3557.91725,0.01822
3555.85707,0.01865
3553.79690,0.01889
3551.73673,0.01896
3549.67656,0.01874
3547.61639,0.01831
3545.55621,0.01834
3543.49604,0.01913
3541.43587,0.02015
3539.37570,0.02098
3537.31552,0.02153
3535.25535,0.02189
3533.19518,0.02222
3531.13501,0.02247
3529.07484,0.02256
3527.01466,0.02244
3524.95449,0.02237
3522.89432,0.02275
3520.83415,0.02347
3518.77398,0.02405
3516.71380,0.02433
3514.65363,0.02450
3512.59346,0.02472
3510.53329,0.02492
3508.47312,0.02504
3506.41294,0.02519
3504.35277,0.02527
3502.29260,0.02537
3500.23243,0.02591
3498.17225,0.02675
3496.11208,0.02730
3494.05191,0.02739
3491.99174,0.02747
3489.93157,0.02783
3487.87139,0.02827
3485.81122,0.02854
3483.75105,0.02873
3481.69088,0.02894
3479.63071,0.02914
3477.57053,0.02942
3475.51036,0.02978
3473.45019,0.03003
3471.39002,0.03011
3469.32984,0.03026
3467.26967,0.03059
3465.20950,0.03084
3463.14933,0.03088
3461.08916,0.03092
3459.02898,0.03118
3456.96881,0.03156
3454.90864,0.03199
3452.84847,0.03244
3450.78830,0.03271
3448.72812,0.03263
3446.66795,0.03242
3444.60778,0.03250
3442.54761,0.03277
3440.48744,0.03297
3438.42726,0.03325
3436.36709,0.03352
3434.30692,0.03367
3432.24675,0.03394
3430.18657,0.03431
3428.12640,0.03456
3426.06623,0.03464
3424.00606,0.03462
3421.94589,0.03472
3419.88571,0.03501
3417.82554,0.03541
3415.76537,0.03571
3413.70520,0.03582
3411.64503,0.03580
3409.58485,0.03576
3407.52468,0.03583
3405.46451,0.03614
3403.40434,0.03653
3401.34416,0.03665
3399.28399,0.03588
3397.22382,0.03589
3395.16365,0.03609
3393.10348,0.03625
3391.04330,0.03656
3388.98313,0.03705
3386.92296,0.03751
3384.86279,0.03779
3382.80262,0.03789
3380.74244,0.03795
3378.68227,0.03817
3376.62210,0.03847
3374.56193,0.03865
3372.50176,0.03873
3370.44158,0.03889
3368.38141,0.03904
3366.32124,0.03903
3364.26107,0.03901
3362.20089,0.03904
3360.14072,0.03915
3358.08055,0.03937
3356.02038,0.03955
3353.96021,0.03954
3351.90003,0.03942
3349.83986,0.03942
3347.77969,0.03965
3345.71952,0.03986
3343.65935,0.03994
3341.59917,0.03998
3339.53900,0.03994
3337.47883,0.03992
3335.41866,0.04007
3333.35849,0.04035
3331.29831,0.04072
3329.23814,0.04108
3327.17797,0.04113
3325.11780,0.04091
3323.05762,0.04083
3320.99745,0.04107
3318.93728,0.04132
3316.87711,0.04136
3314.81694,0.04111
3312.75676,0.04066
3310.69659,0.04044
3308.63642,0.04070
3306.57625,0.04114
3304.51608,0.04146
3302.45590,0.04167
3300.39573,0.04175
3298.33556,0.04169
3296.27539,0.04156
3294.21521,0.04143
3292.15504,0.04138
3290.09487,0.04149
3288.03470,0.04174
3285.97453,0.04201
3283.91435,0.04226
3281.85418,0.04238
3279.79401,0.04218
3277.73384,0.04193
3275.67367,0.04197
3273.61349,0.04212
3271.55332,0.04216
3269.49315,0.04215
3267.43298,0.04225
3265.37281,0.04249
3263.31263,0.04262
3261.25246,0.04257
3259.19229,0.04259
3257.13212,0.04263
3255.07194,0.04260
3253.01177,0.04267
3250.95160,0.04281
3248.89143,0.04288
3246.83126,0.04291
3244.77108,0.04302
3242.71091,0.04315
3240.65074,0.04311
3238.59057,0.04293
3236.53040,0.04284
3234.47022,0.04292
3232.41005,0.04309
3230.34988,0.04315
3228.28971,0.04309
3226.22954,0.04314
3224.16936,0.04327
3222.10919,0.04320
3220.04902,0.04300
3217.98885,0.04297
3215.92867,0.04310
3213.86850,0.04315
3211.80833,0.04304
3209.74816,0.04293
3207.68799,0.04306
3205.62781,0.04344
3203.56764,0.04369
3201.50747,0.04351
3199.44730,0.04316
3197.38713,0.04298
3195.32695,0.04297
3193.26678,0.04298
3191.20661,0.04312
3189.14644,0.04338
3187.08626,0.04331
3185.02609,0.04298
3182.96592,0.04288
3180.90575,0.04292
3178.84558,0.04286
3176.78540,0.04288
3174.72523,0.04299
3172.66506,0.04298
3170.60489,0.04285
3168.54472,0.04265
3166.48454,0.04258
3164.42437,0.04281
3162.36420,0.04300
3160.30403,0.04296
3158.24386,0.04297
3156.18368,0.04299
3154.12351,0.04278
3152.06334,0.04247
3150.00317,0.04238
3147.94299,0.04243
3145.88282,0.04245
3143.82265,0.04240
3141.76248,0.04232
3139.70231,0.04223
3137.64213,0.04206
3135.58196,0.04190
3133.52179,0.04179
3131.46162,0.04168
3129.40145,0.04164
3127.34127,0.04159
3125.28110,0.04144
3123.22093,0.04123
3121.16076,0.04104
3119.10058,0.04089
3117.04041,0.04076
3114.98024,0.04068
3112.92007,0.04082
3110.85990,0.04104
3108.79972,0.04098
3106.73955,0.04067
3104.67938,0.04035
3102.61921,0.04012
3100.55904,0.04001
3098.49886,0.04003
3096.43869,0.03996
3094.37852,0.03981
3092.31835,0.03978
3090.25818,0.03980
3088.19800,0.03973
3086.13783,0.03975
3084.07766,0.03973
3082.01749,0.03943
3079.95731,0.03913
3077.89714,0.03911
3075.83697,0.03924
3073.77680,0.03935
3071.71663,0.03937
3069.65645,0.03920
3067.59628,0.03881
3065.53611,0.03850
3063.47594,0.03852
3061.41577,0.03863
3059.35559,0.03846
3057.29542,0.03801
3055.23525,0.03757
3053.17508,0.03741
3051.11491,0.03741
3049.05473,0.03735
3046.99456,0.03726
3044.93439,0.03717
3042.87422,0.03701
3040.81404,0.03686
3038.75387,0.03677
3036.69370,0.03670
3034.63353,0.03662
3032.57336,0.03648
3030.51318,0.03629
3028.45301,0.03606
3026.39284,0.03580
3024.33267,0.03561
3022.27250,0.03549
3020.21232,0.03541
3018.15215,0.03527
3016.09198,0.03494
3014.03181,0.03466
3011.97163,0.03457
3009.91146,0.03450
3007.85129,0.03440
3005.79112,0.03426
3003.73095,0.03409
3001.67077,0.03389
2999.61060,0.03381
2997.55043,0.03369
2995.49026,0.03359
2993.43009,0.03348
2991.36991,0.03350
2989.30974,0.03349
2987.24957,0.03342
2985.18940,0.03339
2983.12923,0.03334
2981.06905,0.03323
2979.00888,0.03313
2976.94871,0.03308
2974.88854,0.03298
2972.82836,0.03284
2970.76819,0.03275
2968.70802,0.03262
2966.64785,0.03239
2964.58768,0.03229
2962.52750,0.03240
2960.46733,0.03246
2958.40716,0.03250
2956.34699,0.03257
2954.28682,0.03251
2952.22664,0.03243
2950.16647,0.03235
2948.10630,0.03213
2946.04613,0.03193
2943.98596,0.03183
2941.92578,0.03169
2939.86561,0.03156
2937.80544,0.03153
2935.74527,0.03155
2933.68509,0.03160
2931.62492,0.03168
2929.56475,0.03156
2927.50458,0.03132
2925.44441,0.03119
2923.38423,0.03116
2921.32406,0.03120
2919.26389,0.03127
2917.20372,0.03131
2915.14355,0.03128
2913.08337,0.03110
2911.02320,0.03088
2908.96303,0.03075
2906.90286,0.03064
2904.84268,0.03051
2902.78251,0.03039
2900.72234,0.03035
2898.66217,0.03030
2896.60200,0.03014
2894.54182,0.02998
2892.48165,0.02989
2890.42148,0.02982
2888.36131,0.02989
2886.30114,0.03004
2884.24096,0.03012
2882.18079,0.03006
2880.12062,0.02987
2878.06045,0.02973
2876.00028,0.02965
2873.94010,0.02945
2871.87993,0.02921
2869.81976,0.02902
2867.75959,0.02889
2865.69941,0.02877
2863.63924,0.02861
2861.57907,0.02863
2859.51890,0.02864
2857.45873,0.02846
2855.39855,0.02841
2853.33838,0.02850
2851.27821,0.02840
2849.21804,0.02818
2847.15787,0.02806
2845.09769,0.02796
2843.03752,0.02784
2840.97735,0.02773
2838.91718,0.02762
2836.85700,0.02750
2834.79683,0.02736
2832.73666,0.02726
2830.67649,0.02716
2828.61632,0.02702
2826.55614,0.02692
2824.49597,0.02688
2822.43580,0.02680
2820.37563,0.02664
2818.31546,0.02649
2816.25528,0.02647
2814.19511,0.02655
2812.13494,0.02656
2810.07477,0.02636
2808.01460,0.02606
2805.95442,0.02579
2803.89425,0.02559
2801.83408,0.02555
2799.77391,0.02562
2797.71373,0.02553
2795.65356,0.02529
2793.59339,0.02515
2791.53322,0.02515
2789.47305,0.02509
2787.41287,0.02490
2785.35270,0.02480
2783.29253,0.02485
2781.23236,0.02490
2779.17219,0.02485
2777.11201,0.02468
2775.05184,0.02443
2772.99167,0.02421
2770.93150,0.02412
2768.87133,0.02409
2766.81115,0.02400
2764.75098,0.02384
2762.69081,0.02368
2760.63064,0.02352
2758.57046,0.02340
2756.51029,0.02338
2754.45012,0.02341
2752.38995,0.02345
2750.32978,0.02338
2748.26960,0.02318
2746.20943,0.02300
2744.14926,0.02287
2742.08909,0.02281
2740.02892,0.02279
2737.96874,0.02270
2735.90857,0.02258
2733.84840,0.02251
2731.78823,0.02248
2729.72805,0.02246
2727.66788,0.02238
2725.60771,0.02222
2723.54754,0.02197
2721.48737,0.02176
2719.42719,0.02165
2717.36702,0.02163
2715.30685,0.02161
2713.24668,0.02144
2711.18651,0.02128
2709.12633,0.02125
2707.06616,0.02118
2705.00599,0.02115
2702.94582,0.02119
2700.88565,0.02118
2698.82547,0.02109
2696.76530,0.02096
2694.70513,0.02088
2692.64496,0.02081
2690.58478,0.02065
2688.52461,0.02050
2686.46444,0.02039
2684.40427,0.02032
2682.34410,0.02029
2680.28392,0.02025
2678.22375,0.02015
2676.16358,0.01999
2674.10341,0.01990
2672.04324,0.01989
2669.98306,0.01981
2667.92289,0.01970
2665.86272,0.01969
2663.80255,0.01964
2661.74238,0.01944
2659.68220,0.01920
2657.62203,0.01912
2655.56186,0.01919
2653.50169,0.01921
2651.44151,0.01906
2649.38134,0.01883
2647.32117,0.01869
2645.26100,0.01866
2643.20083,0.01864
2641.14065,0.01861
2639.08048,0.01855
2637.02031,0.01852
2634.96014,0.01846
2632.89997,0.01830
2630.83979,0.01822
2628.77962,0.01815
2626.71945,0.01799
2624.65928,0.01784
2622.59910,0.01772
2620.53893,0.01764
2618.47876,0.01768
2616.41859,0.01782
2614.35842,0.01795
2612.29824,0.01795
2610.23807,0.01773
2608.17790,0.01754
2606.11773,0.01751
2604.05756,0.01749
2601.99738,0.01752
2599.93721,0.01757
2597.87704,0.01745
2595.81687,0.01731
2593.75670,0.01732
2591.69652,0.01732
2589.63635,0.01726
2587.57618,0.01722
2585.51601,0.01712
2583.45583,0.01705
2581.39566,0.01709
2579.33549,0.01708
2577.27532,0.01694
2575.21515,0.01688
2573.15497,0.01703
2571.09480,0.01703
2569.03463,0.01678
2566.97446,0.01673
2564.91429,0.01688
2562.85411,0.01699
2560.79394,0.01711
2558.73377,0.01716
2556.67360,0.01708
2554.61342,0.01708
2552.55325,0.01719
2550.49308,0.01719
2548.43291,0.01712
2546.37274,0.01708
2544.31256,0.01701
2542.25239,0.01695
2540.19222,0.01707
2538.13205,0.01723
2536.07188,0.01723
2534.01170,0.01714
2531.95153,0.01712
2529.89136,0.01725
2527.83119,0.01738
2525.77102,0.01748
2523.71084,0.01764
2521.65067,0.01768
2519.59050,0.01754
2517.53033,0.01741
2515.47015,0.01735
2513.40998,0.01729
2511.34981,0.01722
2509.28964,0.01736
2507.22947,0.01770
2505.16929,0.01785
2503.10912,0.01778
2501.04895,0.01765
2498.98878,0.01745
2496.92861,0.01743
2494.86843,0.01775
2492.80826,0.01807
2490.74809,0.01812
2488.68792,0.01797
2486.62775,0.01784
2484.56757,0.01784
2482.50740,0.01789
2480.44723,0.01798
2478.38706,0.01817
2476.32688,0.01833
2474.26671,0.01843
2472.20654,0.01846
2470.14637,0.01844
2468.08620,0.01841
2466.02602,0.01828
2463.96585,0.01821
2461.90568,0.01838
2459.84551,0.01857
2457.78534,0.01857
2455.72516,0.01848
2453.66499,0.01840
2451.60482,0.01832
2449.54465,0.01833
2447.48447,0.01852
2445.42430,0.01880
2443.36413,0.01895
2441.30396,0.01890
2439.24379,0.01886
2437.18361,0.01880
2435.12344,0.01858
2433.06327,0.01831
2431.00310,0.01817
2428.94293,0.01828
2426.88275,0.01844
2424.82258,0.01843
2422.76241,0.01852
2420.70224,0.01865
2418.64207,0.01855
2416.58189,0.01855
2414.52172,0.01874
2412.46155,0.01855
2410.40138,0.01800
2408.34120,0.01783
2406.28103,0.01809
2404.22086,0.01831
2402.16069,0.01845
2400.10052,0.01856
2398.04034,0.01872
2395.98017,0.01870
2393.92000,0.01860
2391.85983,0.01842
2389.79966,0.01817
2387.73948,0.01794
2385.67931,0.01769
2383.61914,0.01725
2381.55897,0.01669
2379.49880,0.01636
2377.43862,0.01647
2375.37845,0.01665
2373.31828,0.01677
2371.25811,0.01694
2369.19793,0.01746
2367.13776,0.01827
2365.07759,0.01858
2363.01742,0.01786
2360.95725,0.01755
2358.89707,0.01768
2356.83690,0.01790
2354.77673,0.01747
2352.71656,0.01680
2350.65639,0.01680
2348.59621,0.01699
2346.53604,0.01631
2344.47587,0.01691
2342.41570,0.01801
2340.35552,0.01850
2338.29535,0.01821
2336.23518,0.01760
2334.17501,0.01721
2332.11484,0.01686
2330.05466,0.01640
2327.99449,0.01594
2325.93432,0.01602
2323.87415,0.01587
2321.81398,0.01565
2319.75380,0.01533
2317.69363,0.01530
2315.63346,0.01499
2313.57329,0.01444
2311.51312,0.01422
2309.45294,0.01436
2307.39277,0.01461
2305.33260,0.01492
2303.27243,0.01528
2301.21225,0.01541
2299.15208,0.01517
2297.09191,0.01486
2295.03174,0.01496
2292.97157,0.01546
2290.91139,0.01594
2288.85122,0.01620
2286.79105,0.01615
2284.73088,0.01584
2282.67071,0.01572
2280.61053,0.01596
2278.55036,0.01608
2276.49019,0.01584
2274.43002,0.01559
2272.36984,0.01539
2270.30967,0.01529
2268.24950,0.01552
2266.18933,0.01587
2264.12916,0.01609
2262.06898,0.01619
2260.00881,0.01618
2257.94864,0.01600
2255.88847,0.01565
2253.82830,0.01514
2251.76812,0.01473
2249.70795,0.01491
2247.64778,0.01529
2245.58761,0.01525
2243.52744,0.01465
2241.46726,0.01406
2239.40709,0.01421
2237.34692,0.01476
2235.28675,0.01463
2233.22657,0.01443
2231.16640,0.01514
2229.10623,0.01575
2227.04606,0.01537
2224.98589,0.01445
2222.92571,0.01352
2220.86554,0.01314
2218.80537,0.01365
2216.74520,0.01423
2214.68503,0.01432
2212.62485,0.01428
2210.56468,0.01441
2208.50451,0.01453
2206.44434,0.01410
2204.38417,0.01348
2202.32399,0.01322
2200.26382,0.01269
2198.20365,0.01228
2196.14348,0.01281
2194.08330,0.01302
2192.02313,0.01260
2189.96296,0.01277
2187.90279,0.01325
2185.84262,0.01307
2183.78244,0.01234
2181.72227,0.01137
2179.66210,0.01100
2177.60193,0.01189
2175.54176,0.01286
2173.48158,0.01290
2171.42141,0.01269
2169.36124,0.01278
2167.30107,0.01270
2165.24089,0.01262
2163.18072,0.01271
2161.12055,0.01189
2159.06038,0.01022
2157.00021,0.00952
2154.94003,0.01046
2152.87986,0.01171
2150.81969,0.01219
2148.75952,0.01184
2146.69935,0.01110
2144.63917,0.01110
2142.57900,0.01200
2140.51883,0.01227
2138.45866,0.01155
2136.39849,0.01098
2134.33831,0.01093
2132.27814,0.01107
2130.21797,0.01102
2128.15780,0.01106
2126.09762,0.01136
2124.03745,0.01153
2121.97728,0.01166
2119.91711,0.01179
2117.85694,0.01172
2115.79676,0.01160
2113.73659,0.01151
2111.67642,0.01133
2109.61625,0.01120
2107.55608,0.01126
2105.49590,0.01137
2103.43573,0.01150
2101.37556,0.01160
2099.31539,0.01206
2097.25521,0.01223
2095.19504,0.01193
2093.13487,0.01102
2091.07470,0.01022
2089.01453,0.01014
2086.95435,0.01045
2084.89418,0.01084
2082.83401,0.01134
2080.77384,0.01188
2078.71367,0.01197
2076.65349,0.01155
2074.59332,0.01107
2072.53315,0.01076
2070.47298,0.01081
2068.41281,0.01133
2066.35263,0.01172
2064.29246,0.01133
2062.23229,0.01064
2060.17212,0.01008
2058.11194,0.00976
2056.05177,0.01020
2053.99160,0.01137
2051.93143,0.01237
2049.87126,0.01277
2047.81108,0.01280
2045.75091,0.01292
2043.69074,0.01305
2041.63057,0.01295
2039.57040,0.01302
2037.51022,0.01307
2035.45005,0.01230
2033.38988,0.01084
2031.32971,0.00949
2029.26954,0.00927
2027.20936,0.01068
2025.14919,0.01230
2023.08902,0.01253
2021.02885,0.01183
2018.96867,0.01113
2016.90850,0.01073
2014.84833,0.01081
2012.78816,0.01135
2010.72799,0.01238
2008.66781,0.01344
2006.60764,0.01316
2004.54747,0.01148
2002.48730,0.00987
2000.42713,0.00912
1998.36695,0.00922
1996.30678,0.00971
1994.24661,0.00996
1992.18644,0.00965
1990.12626,0.00926
1988.06609,0.00952
1986.00592,0.00988
1983.94575,0.00989
1981.88558,0.01045
1979.82540,0.01190
1977.76523,0.01289
1975.70506,0.01249
1973.64489,0.01170
1971.58472,0.01165
1969.52454,0.01202
1967.46437,0.01195
1965.40420,0.01120
1963.34403,0.01043
1961.28386,0.01045
1959.22368,0.01083
1957.16351,0.01051
1955.10334,0.00984
1953.04317,0.00974
1950.98299,0.01014
1948.92282,0.01077
1946.86265,0.01113
1944.80248,0.01087
1942.74231,0.01056
1940.68213,0.01062
1938.62196,0.01084
1936.56179,0.01096
1934.50162,0.01091
1932.44145,0.01078
1930.38127,0.01072
1928.32110,0.01063
1926.26093,0.01023
1924.20076,0.00972
1922.14059,0.00961
1920.08041,0.00969
1918.02024,0.00952
1915.96007,0.00941
1913.89990,0.00982
1911.83972,0.01041
1909.77955,0.01070
1907.71938,0.01069
1905.65921,0.01074
1903.59904,0.01089
1901.53886,0.01084
1899.47869,0.01061
1897.41852,0.01048
1895.35835,0.01037
1893.29818,0.01024
1891.23800,0.01031
1889.17783,0.01043
1887.11766,0.01047
1885.05749,0.01047
1882.99731,0.01042
1880.93714,0.01046
1878.87697,0.01069
1876.81680,0.01093
1874.75663,0.01108
1872.69645,0.01123
1870.63628,0.01142
1868.57611,0.01161
1866.51594,0.01156
1864.45577,0.01118
1862.39559,0.01076
1860.33542,0.01066
1858.27525,0.01094
1856.21508,0.01123
1854.15491,0.01125
1852.09473,0.01119
1850.03456,0.01114
1847.97439,0.01091
1845.91422,0.01046
1843.85404,0.01019
1841.79387,0.01038
1839.73370,0.01076
1837.67353,0.01101
1835.61336,0.01101
1833.55318,0.01109
1831.49301,0.01141
1829.43284,0.01160
1827.37267,0.01150
1825.31250,0.01141
1823.25232,0.01151
1821.19215,0.01169
1819.13198,0.01163
1817.07181,0.01138
1815.01163,0.01113
1812.95146,0.01083
1810.89129,0.01050
1808.83112,0.01044
1806.77095,0.01057
1804.71077,0.01050
1802.65060,0.01024
1800.59043,0.01025
1798.53026,0.01053
1796.47009,0.01078
1794.40991,0.01100
1792.34974,0.01104
1790.28957,0.01078
1788.22940,0.01037
1786.16923,0.01002
1784.10905,0.01002
1782.04888,0.01038
1779.98871,0.01057
1777.92854,0.01056
1775.86836,0.01080
1773.80819,0.01116
1771.74802,0.01089
1769.68785,0.01008
1767.62768,0.00972
1765.56750,0.01000
1763.50733,0.01041
1761.44716,0.01051
1759.38699,0.01040
1757.32682,0.01040
1755.26664,0.01049
1753.20647,0.01056
1751.14630,0.01058
1749.08613,0.01056
1747.02596,0.01053
1744.96578,0.01063
1742.90561,0.01102
1740.84544,0.01139
1738.78527,0.01143
1736.72509,0.01137
1734.66492,0.01129
1732.60475,0.01110
1730.54458,0.01119
1728.48441,0.01146
1726.42423,0.01164
1724.36406,0.01166
1722.30389,0.01177
1720.24372,0.01224
1718.18355,0.01239
1716.12337,0.01153
1714.06320,0.01095
1712.00303,0.01099
1709.94286,0.01132
1707.88268,0.01165
1705.82251,0.01162
1703.76234,0.01148
1701.70217,0.01186
1699.64200,0.01231
1697.58182,0.01234
1695.52165,0.01234
1693.46148,0.01261
1691.40131,0.01305
1689.34114,0.01366
1687.28096,0.01464
1685.22079,0.01573
1683.16062,0.01581
1681.10045,0.01548
1679.04028,0.01587
1676.98010,0.01688
1674.91993,0.01789
1672.85976,0.01862
1670.79959,0.01918
1668.73941,0.01936
1666.67924,0.01939
1664.61907,0.01972
1662.55890,0.02001
1660.49873,0.01979
1658.43855,0.01966
1656.37838,0.02030
1654.31821,0.02107
1652.25804,0.02063
1650.19787,0.02014
1648.13769,0.02011
1646.07752,0.01989
1644.01735,0.01940
1641.95718,0.01935
1639.89701,0.01994
1637.83683,0.02069
1635.77666,0.02062
1633.71649,0.01991
1631.65632,0.01953
1629.59614,0.01952
1627.53597,0.01954
1625.47580,0.01950
1623.41563,0.01933
1621.35546,0.01907
1619.29528,0.01929
1617.23511,0.01967
1615.17494,0.01930
1613.11477,0.01873
1611.05460,0.01864
1608.99442,0.01877
1606.93425,0.01870
1604.87408,0.01859
1602.81391,0.01853
1600.75373,0.01842
1598.69356,0.01828
1596.63339,0.01819
1594.57322,0.01806
1592.51305,0.01778
1590.45287,0.01742
1588.39270,0.01710
1586.33253,0.01685
1584.27236,0.01657
1582.21219,0.01625
1580.15201,0.01617
1578.09184,0.01622
1576.03167,0.01562
1573.97150,0.01458
1571.91133,0.01412
1569.85115,0.01394
1567.79098,0.01339
1565.73081,0.01281
1563.67064,0.01278
1561.61046,0.01357
1559.55029,0.01381
1557.49012,0.01190
1555.42995,0.01021
1553.36978,0.00960
1551.30960,0.00950
1549.24943,0.00945
1547.18926,0.00942
1545.12909,0.00967
1543.06892,0.01027
1541.00874,0.01076
1538.94857,0.01004
1536.88840,0.00894
1534.82823,0.00854
1532.76805,0.00855
1530.70788,0.00841
1528.64771,0.00820
1526.58754,0.00789
1524.52737,0.00764
1522.46719,0.00755
1520.40702,0.00722
1518.34685,0.00690
1516.28668,0.00656
1514.22651,0.00601
1512.16633,0.00566
1510.10616,0.00592
1508.04599,0.00654
1505.98582,0.00686
1503.92565,0.00669
1501.86547,0.00652
1499.80530,0.00684
1497.74513,0.00726
1495.68496,0.00734
1493.62478,0.00743
1491.56461,0.00763
1489.50444,0.00750
1487.44427,0.00725
1485.38410,0.00727
1483.32392,0.00743
1481.26375,0.00756
1479.20358,0.00770
1477.14341,0.00794
1475.08324,0.00815
1473.02306,0.00816
1470.96289,0.00800
1468.90272,0.00794
1466.84255,0.00822
1464.78238,0.00844
1462.72220,0.00840
1460.66203,0.00864
1458.60186,0.00879
1456.54169,0.00808
1454.48151,0.00761
1452.42134,0.00783
1450.36117,0.00847
1448.30100,0.00906
1446.24083,0.00930
1444.18065,0.00938
1442.12048,0.00945
1440.06031,0.00950
1438.00014,0.00940
1435.93997,0.00914
1433.87979,0.00916
1431.81962,0.00955
1429.75945,0.00998
1427.69928,0.01018
1425.63910,0.01029
1423.57893,0.01042
1421.51876,0.01048
1419.45859,0.01026
1417.39842,0.01008
1415.33824,0.01046
1413.27807,0.01107
1411.21790,0.01144
1409.15773,0.01162
1407.09756,0.01180
1405.03738,0.01190
1402.97721,0.01190
1400.91704,0.01176
1398.85687,0.01132
1396.79670,0.01089
1394.73652,0.01086
1392.67635,0.01101
1390.61618,0.01114
1388.55601,0.01130
1386.49583,0.01152
1384.43566,0.01173
1382.37549,0.01181
1380.31532,0.01180
1378.25515,0.01192
1376.19497,0.01214
1374.13480,0.01208
1372.07463,0.01183
1370.01446,0.01180
1367.95429,0.01193
1365.89411,0.01199
1363.83394,0.01179
1361.77377,0.01146
1359.71360,0.01145
1357.65343,0.01170
1355.59325,0.01185
1353.53308,0.01185
1351.47291,0.01178
1349.41274,0.01166
1347.35256,0.01146
1345.29239,0.01120
1343.23222,0.01084
1341.17205,0.01025
1339.11188,0.00963
1337.05170,0.00957
1334.99153,0.01002
1332.93136,0.01037
1330.87119,0.01035
1328.81102,0.01019
1326.75084,0.01012
1324.69067,0.01005
1322.63050,0.00991
1320.57033,0.00976
1318.51015,0.00957
1316.44998,0.00942
1314.38981,0.00937
1312.32964,0.00936
1310.26947,0.00938
1308.20929,0.00945
1306.14912,0.00952
1304.08895,0.00955
1302.02878,0.00955
1299.96861,0.00952
1297.90843,0.00947
1295.84826,0.00948
1293.78809,0.00953
1291.72792,0.00945
1289.66775,0.00929
1287.60757,0.00923
1285.54740,0.00926
1283.48723,0.00929
1281.42706,0.00925
1279.36688,0.00921
1277.30671,0.00924
1275.24654,0.00925
1273.18637,0.00914
1271.12620,0.00901
1269.06602,0.00901
1267.00585,0.00903
1264.94568,0.00907
1262.88551,0.00923
1260.82534,0.00933
1258.76516,0.00931
1256.70499,0.00920
1254.64482,0.00901
1252.58465,0.00888
1250.52447,0.00881
1248.46430,0.00872
1246.40413,0.00854
1244.34396,0.00835
1242.28379,0.00827
1240.22361,0.00822
1238.16344,0.00819
1236.10327,0.00813
1234.04310,0.00797
1231.98293,0.00777
1229.92275,0.00759
1227.86258,0.00739
1225.80241,0.00725
1223.74224,0.00720
1221.68207,0.00711
1219.62189,0.00696
1217.56172,0.00690
1215.50155,0.00681
1213.44138,0.00654
1211.38120,0.00625
1209.32103,0.00615
1207.26086,0.00616
1205.20069,0.00624
1203.14052,0.00634
1201.08034,0.00642
1199.02017,0.00650
1196.96000,0.00683
1194.89983,0.00727
1192.83966,0.00760
1190.77948,0.00786
1188.71931,0.00822
1186.65914,0.00872
1184.59897,0.00938
1182.53880,0.01011
1180.47862,0.01089
1178.41845,0.01170
1176.35828,0.01232
1174.29811,0.01279
1172.23793,0.01341
1170.17776,0.01417
1168.11759,0.01491
1166.05742,0.01569
1163.99725,0.01658
1161.93707,0.01742
1159.87690,0.01816
1157.81673,0.01894
1155.75656,0.01986
1153.69639,0.02074
1151.63621,0.02149
1149.57604,0.02234
1147.51587,0.02331
1145.45570,0.02424
1143.39552,0.02507
1141.33535,0.02594
1139.27518,0.02684
1137.21501,0.02767
1135.15484,0.02849
1133.09466,0.02936
1131.03449,0.03016
1128.97432,0.03094
1126.91415,0.03180
1124.85398,0.03278
1122.79380,0.03397
1120.73363,0.03521
1118.67346,0.03631
1116.61329,0.03739
1114.55312,0.03859
1112.49294,0.03986
1110.43277,0.04104
1108.37260,0.04216
1106.31243,0.04334
1104.25225,0.04453
1102.19208,0.04570
1100.13191,0.04695
1098.07174,0.04821
1096.01157,0.04933
1093.95139,0.05029
1091.89122,0.05122
1089.83105,0.05230
1087.77088,0.05353
1085.71071,0.05474
1083.65053,0.05580
1081.59036,0.05673
1079.53019,0.05768
1077.47002,0.05866
1075.40985,0.05956
1073.34967,0.06037
1071.28950,0.06110
1069.22933,0.06158
1067.16916,0.06170
1065.10898,0.06153
1063.04881,0.06116
1060.98864,0.06071
1058.92847,0.06018
1056.86830,0.05938
1054.80812,0.05818
1052.74795,0.05669
1050.68778,0.05500
1048.62761,0.05314
1046.56744,0.05120
1044.50726,0.04927
1042.44709,0.04738
1040.38692,0.04542
1038.32675,0.04331
1036.26657,0.04096
1034.20640,0.03844
1032.14623,0.03622
1030.08606,0.03451
1028.02589,0.03303
1025.96571,0.03173
1023.90554,0.03062
1021.84537,0.02943
1019.78520,0.02813
1017.72503,0.02711
1015.66485,0.02658
1013.60468,0.02654
1011.54451,0.02680
1009.48434,0.02722
1007.42417,0.02775
1005.36399,0.02840
1003.30382,0.02937
1001.24365,0.03062
999.18348,0.03190
997.12330,0.03317
995.06313,0.03441
993.00296,0.03547
990.94279,0.03653
988.88262,0.03769
986.82244,0.03869
984.76227,0.03945
982.70210,0.04007
980.64193,0.04054
978.58176,0.04074
976.52158,0.04075
974.46141,0.04072
972.40124,0.04057
970.34107,0.04010
968.28089,0.03922
966.22072,0.03804
964.16055,0.03689
962.10038,0.03591
960.04021,0.03499
957.98003,0.03403
955.91986,0.03308
953.85969,0.03219
951.79952,0.03139
949.73935,0.03052
947.67917,0.02960
945.61900,0.02885
943.55883,0.02812
941.49866,0.02728
939.43849,0.02639
937.37831,0.02554
935.31814,0.02467
933.25797,0.02369
931.19780,0.02280
929.13762,0.02207
927.07745,0.02140
925.01728,0.02065
922.95711,0.01973
920.89694,0.01883
918.83676,0.01831
916.77659,0.01798
914.71642,0.01750
912.65625,0.01686
910.59608,0.01619
908.53590,0.01559
906.47573,0.01519
904.41556,0.01504
902.35539,0.01503
900.29522,0.01503
898.23504,0.01499
896.17487,0.01501
894.11470,0.01532
892.05453,0.01598
889.99435,0.01665
887.93418,0.01711
885.87401,0.01766
883.81384,0.01838
881.75367,0.01905
879.69349,0.01972
877.63332,0.02064
875.57315,0.02185
873.51298,0.02305
871.45281,0.02413
869.39263,0.02523
867.33246,0.02637
865.27229,0.02755
863.21212,0.02863
861.15194,0.02943
859.09177,0.03005
857.03160,0.03035
854.97143,0.03025
852.91126,0.03006
850.85108,0.02992
848.79091,0.02964
846.73074,0.02908
844.67057,0.02840
842.61040,0.02777
840.55022,0.02707
838.49005,0.02622
836.42988,0.02531
834.36971,0.02445
832.30954,0.02364
830.24936,0.02281
828.18919,0.02201
826.12902,0.02125
824.06885,0.02049
822.00867,0.01987
819.94850,0.01918
817.88833,0.01826
815.82816,0.01749
813.76799,0.01712
811.70781,0.01663
809.64764,0.01580
807.58747,0.01521
805.52730,0.01500
803.46713,0.01483
801.40695,0.01461
799.34678,0.01422
797.28661,0.01358
795.22644,0.01301
793.16627,0.01278
791.10609,0.01271
789.04592,0.01250
786.98575,0.01217
784.92558,0.01186
782.86540,0.01167
780.80523,0.01149
778.74506,0.01138
776.68489,0.01124
774.62472,0.01087
772.56454,0.01057
770.50437,0.01052
768.44420,0.01031
766.38403,0.00995
764.32386,0.00985
762.26368,0.00981
760.20351,0.00944
758.14334,0.00895
756.08317,0.00859
754.02299,0.00831
751.96282,0.00840
749.90265,0.00884
747.84248,0.00874
745.78231,0.00808
743.72213,0.00757
741.66196,0.00726
739.60179,0.00690
737.54162,0.00675
735.48145,0.00702
733.42127,0.00732
731.36110,0.00737
729.30093,0.00720
727.24076,0.00693
725.18059,0.00673
723.12041,0.00639
721.06024,0.00611
719.00007,0.00646
716.93990,0.00685
714.87972,0.00674
712.81955,0.00643
710.75938,0.00630
708.69921,0.00619
706.63904,0.00613
704.57886,0.00637
702.51869,0.00678
700.45852,0.00680
698.39835,0.00614
696.33818,0.00527
694.27800,0.00505
692.21783,0.00549
690.15766,0.00577
688.09749,0.00555
686.03731,0.00526
683.97714,0.00535
681.91697,0.00574
679.85680,0.00602
677.79663,0.00598
675.73645,0.00590
673.67628,0.00629
671.61611,0.00722
669.55594,0.00643
667.49577,0.00386
665.43559,0.00567
663.37542,0.00507
661.31525,0.00453
659.25508,0.00468
657.19491,0.00473
655.13473,0.00454
653.07456,0.00446
651.01439,0.00445
648.95422,0.00406
646.89404,0.00368
644.83387,0.00374
642.77370,0.00395
640.71353,0.00359
638.65336,0.00294
636.59318,0.00291
634.53301,0.00341
632.47284,0.00347
630.41267,0.00272
628.35250,0.00185
626.29232,0.00174
624.23215,0.00213
622.17198,0.00205
620.11181,0.00121
618.05164,0.00064
615.99146,0.00109
613.93129,0.00184
611.87112,0.00164
609.81095,0.00073
607.75077,0.00038
605.69060,0.00028
603.63043,0.00000
601.57026,-0.00032
599.51009,0.00000
