3996.73391,0.00023
3994.67373,0.00027
3992.61356,0.00037
3990.55339,0.00026
3988.49322,0.00000
3986.43305,0.00012
3984.37287,0.00056
3982.31270,0.00057
3980.25253,0.00017
3978.19236,0.00009
3976.13219,0.00042
3974.07201,0.00062
3972.01184,0.00066
3969.95167,0.00083
3967.89150,0.00093
3965.83133,0.00073
3963.77115,0.00049
3961.71098,0.00049
3959.65081,0.00072
3957.59064,0.00092
3955.53046,0.00098
3953.47029,0.00094
3951.41012,0.00083
3949.34995,0.00065
3947.28978,0.00065
3945.22960,0.00089
3943.16943,0.00112
3941.10926,0.00125
3939.04909,0.00130
3936.98892,0.00111
3934.92874,0.00068
3932.86857,0.00038
3930.80840,0.00043
3928.74823,0.00069
3926.68805,0.00093
3924.62788,0.00101
3922.56771,0.00098
3920.50754,0.00085
3918.44737,0.00063
3916.38719,0.00057
3914.32702,0.00070
3912.26685,0.00075
3910.20668,0.00071
3908.14651,0.00066
3906.08633,0.00063
3904.02616,0.00045
3901.96599,0.00014
3899.90582,0.00009
3897.84565,0.00028
3895.78547,0.00053
3893.72530,0.00077
3891.66513,0.00082
3889.60496,0.00056
3887.54478,0.00032
3885.48461,0.00048
3883.42444,0.00080
3881.36427,0.00094
3879.30410,0.00089
3877.24392,0.00059
3875.18375,0.00034
3873.12358,0.00037
3871.06341,0.00044
3869.00324,0.00052
3866.94306,0.00063
3864.88289,0.00063
3862.82272,0.00053
3860.76255,0.00049
3858.70237,0.00042
3856.64220,0.00016
3854.58203,0.00023
3852.52186,0.00095
3850.46169,0.00137
3848.40151,0.00103
3846.34134,0.00068
3844.28117,0.00069
3842.22100,0.00076
3840.16083,0.00071
3838.10065,0.00075
3836.04048,0.00102
3833.98031,0.00134
3831.92014,0.00157
3829.85997,0.00149
3827.79979,0.00111
3825.73962,0.00075
3823.67945,0.00057
3821.61928,0.00071
3819.55910,0.00109
3817.49893,0.00143
3815.43876,0.00170
3813.37859,0.00178
3811.31842,0.00156
3809.25824,0.00120
3807.19807,0.00081
3805.13790,0.00038
3803.07773,0.00009
3801.01756,0.00026
3798.95738,0.00056
3796.89721,0.00064
3794.83704,0.00085
3792.77687,0.00118
3790.71670,0.00125
3788.65652,0.00120
3786.59635,0.00142
3784.53618,0.00185
3782.47601,0.00214
3780.41583,0.00229
3778.35566,0.00230
3776.29549,0.00211
3774.23532,0.00187
3772.17515,0.00164
3770.11497,0.00145
3768.05480,0.00135
3765.99463,0.00130
3763.93446,0.00132
3761.87429,0.00133
3759.81411,0.00116
3757.75394,0.00091
3755.69377,0.00059
3753.63360,0.00019
3751.57342,0.00009
3749.51325,0.00046
3747.45308,0.00067
3745.39291,0.00057
3743.33274,0.00090
3741.27256,0.00139
3739.21239,0.00151
3737.15222,0.00135
3735.09205,0.00105
3733.03188,0.00103
3730.97170,0.00135
3728.91153,0.00156
3726.85136,0.00142
3724.79119,0.00124
3722.73102,0.00133
3720.67084,0.00153
3718.61067,0.00160
3716.55050,0.00179
3714.49033,0.00209
3712.43015,0.00236
3710.36998,0.00249
3708.30981,0.00224
3706.24964,0.00183
3704.18947,0.00166
3702.12929,0.00179
3700.06912,0.00196
3698.00895,0.00219
3695.94878,0.00261
3693.88861,0.00273
3691.82843,0.00227
3689.76826,0.00190
3687.70809,0.00223
3685.64792,0.00257
3683.58775,0.00238
3681.52757,0.00179
3679.46740,0.00101
3677.40723,0.00039
3675.34706,0.00050
3673.28688,0.00100
3671.22671,0.00125
3669.16654,0.00158
3667.10637,0.00199
3665.04620,0.00238
3662.98602,0.00275
3660.92585,0.00298
3658.86568,0.00311
3656.80551,0.00322
3654.74534,0.00331
3652.68516,0.00350
3650.62499,0.00375
3648.56482,0.00364
3646.50465,0.00324
3644.44447,0.00276
3642.38430,0.00250
3640.32413,0.00258
3638.26396,0.00276
3636.20379,0.00285
3634.14361,0.00295
3632.08344,0.00311
3630.02327,0.00327
3627.96310,0.00338
3625.90293,0.00337
3623.84275,0.00314
3621.78258,0.00286
3619.72241,0.00298
3617.66224,0.00350
3615.60207,0.00365
3613.54189,0.00348
3611.48172,0.00345
3609.42155,0.00366
3607.36138,0.00392
3605.30120,0.00400
3603.24103,0.00415
3601.18086,0.00472
3599.12069,0.00536
3597.06052,0.00546
3595.00034,0.00519
3592.94017,0.00514
3590.88000,0.00544
3588.81983,0.00585
3586.75966,0.00619
3584.69948,0.00624
3582.63931,0.00627
3580.57914,0.00664
3578.51897,0.00720
3576.45879,0.00756
3574.39862,0.00753
3572.33845,0.00719
3570.27828,0.00678
3568.21811,0.00644
3566.15793,0.00646
3564.09776,0.00696
3562.03759,0.00759
3559.97742,0.00808
3557.91725,0.00831
3555.85707,0.00835
3553.79690,0.00845
3551.73673,0.00851
3549.67656,0.00836
3547.61639,0.00822
3545.55621,0.00855
3543.49604,0.00922
3541.43587,0.00950
3539.37570,0.00943
3537.31552,0.00962
3535.25535,0.01000
3533.19518,0.01014
3531.13501,0.01013
3529.07484,0.01035
3527.01466,0.01074
3524.95449,0.01100
3522.89432,0.01105
3520.83415,0.01084
3518.77398,0.01052
3516.71380,0.01052
3514.65363,0.01093
3512.59346,0.01141
3510.53329,0.01162
3508.47312,0.01149
3506.41294,0.01135
3504.35277,0.01147
3502.29260,0.01174
3500.23243,0.01207
3498.17225,0.01250
3496.11208,0.01291
3494.05191,0.01300
3491.99174,0.01281
3489.93157,0.01279
3487.87139,0.01307
3485.81122,0.01330
3483.75105,0.01333
3481.69088,0.01328
3479.63071,0.01331
3477.57053,0.01350
3475.51036,0.01358
3473.45019,0.01335
3471.39002,0.01327
3469.32984,0.01371
3467.26967,0.01423
3465.20950,0.01435
3463.14933,0.01413
3461.08916,0.01386
3459.02898,0.01382
3456.96881,0.01404
3454.90864,0.01430
3452.84847,0.01440
3450.78830,0.01442
3448.72812,0.01453
3446.66795,0.01474
3444.60778,0.01507
3442.54761,0.01542
3440.48744,0.01568
3438.42726,0.01567
3436.36709,0.01533
3434.30692,0.01520
3432.24675,0.01539
3430.18657,0.01551
3428.12640,0.01569
3426.06623,0.01603
3424.00606,0.01632
3421.94589,0.01628
3419.88571,0.01586
3417.82554,0.01562
3415.76537,0.01582
3413.70520,0.01604
3411.64503,0.01611
3409.58485,0.01624
3407.52468,0.01640
3405.46451,0.01625
3403.40434,0.01617
3401.34416,0.01642
3399.28399,0.01639
3397.22382,0.01651
3395.16365,0.01676
3393.10348,0.01700
3391.04330,0.01725
3388.98313,0.01767
3386.92296,0.01791
3384.86279,0.01776
3382.80262,0.01760
3380.74244,0.01763
3378.68227,0.01782
3376.62210,0.01783
3374.56193,0.01736
3372.50176,0.01689
3370.44158,0.01690
3368.38141,0.01716
3366.32124,0.01729
3364.26107,0.01732
3362.20089,0.01754
3360.14072,0.01785
3358.08055,0.01800
3356.02038,0.01808
3353.96021,0.01830
3351.90003,0.01857
3349.83986,0.01858
3347.77969,0.01836
3345.71952,0.01820
3343.65935,0.01815
3341.59917,0.01818
3339.53900,0.01829
3337.47883,0.01839
3335.41866,0.01849
3333.35849,0.01851
3331.29831,0.01856
3329.23814,0.01882
3327.17797,0.01902
3325.11780,0.01902
3323.05762,0.01895
3320.99745,0.01894
3318.93728,0.01894
3316.87711,0.01880
3314.81694,0.01867
3312.75676,0.01867
3310.69659,0.01880
3308.63642,0.01891
3306.57625,0.01872
3304.51608,0.01849
3302.45590,0.01860
3300.39573,0.01883
3298.33556,0.01898
3296.27539,0.01910
3294.21521,0.01912
3292.15504,0.01895
3290.09487,0.01875
3288.03470,0.01865
3285.97453,0.01871
3283.91435,0.01889
3281.85418,0.01906
3279.79401,0.01934
3277.73384,0.01966
3275.67367,0.01952
3273.61349,0.01901
3271.55332,0.01874
3269.49315,0.01868
3267.43298,0.01872
3265.37281,0.01902
3263.31263,0.01951
3261.25246,0.01988
3259.19229,0.01977
3257.13212,0.01910
3255.07194,0.01841
3253.01177,0.01840
3250.95160,0.01885
3248.89143,0.01912
3246.83126,0.01924
3244.77108,0.01938
3242.71091,0.01947
3240.65074,0.01946
3238.59057,0.01921
3236.53040,0.01882
3234.47022,0.01860
3232.41005,0.01869
3230.34988,0.01913
3228.28971,0.01958
3226.22954,0.01961
3224.16936,0.01933
3222.10919,0.01913
3220.04902,0.01910
3217.98885,0.01913
3215.92867,0.01914
3213.86850,0.01901
3211.80833,0.01873
3209.74816,0.01857
3207.68799,0.01872
3205.62781,0.01904
3203.56764,0.01927
3201.50747,0.01924
3199.44730,0.01911
3197.38713,0.01926
3195.32695,0.01959
3193.26678,0.01958
3191.20661,0.01934
3189.14644,0.01919
3187.08626,0.01912
3185.02609,0.01912
3182.96592,0.01917
3180.90575,0.01930
3178.84558,0.01945
3176.78540,0.01945
3174.72523,0.01926
3172.66506,0.01895
3170.60489,0.01878
3168.54472,0.01882
3166.48454,0.01875
3164.42437,0.01855
3162.36420,0.01854
3160.30403,0.01868
3158.24386,0.01869
3156.18368,0.01868
3154.12351,0.01869
3152.06334,0.01852
3150.00317,0.01826
3147.94299,0.01803
3145.88282,0.01781
3143.82265,0.01764
3141.76248,0.01760
3139.70231,0.01764
3137.64213,0.01771
3135.58196,0.01780
3133.52179,0.01781
3131.46162,0.01789
3129.40145,0.01805
3127.34127,0.01808
3125.28110,0.01813
3123.22093,0.01837
3121.16076,0.01840
3119.10058,0.01816
3117.04041,0.01798
3114.98024,0.01790
3112.92007,0.01784
3110.85990,0.01786
3108.79972,0.01796
3106.73955,0.01788
3104.67938,0.01759
3102.61921,0.01744
3100.55904,0.01748
3098.49886,0.01745
3096.43869,0.01733
3094.37852,0.01730
3092.31835,0.01729
3090.25818,0.01720
3088.19800,0.01706
3086.13783,0.01689
3084.07766,0.01682
3082.01749,0.01702
3079.95731,0.01720
3077.89714,0.01709
3075.83697,0.01676
3073.77680,0.01653
3071.71663,0.01645
3069.65645,0.01633
3067.59628,0.01608
3065.53611,0.01598
3063.47594,0.01606
3061.41577,0.01607
3059.35559,0.01601
3057.29542,0.01595
3055.23525,0.01599
3053.17508,0.01616
3051.11491,0.01632
3049.05473,0.01640
3046.99456,0.01634
3044.93439,0.01608
3042.87422,0.01556
3040.81404,0.01506
3038.75387,0.01490
3036.69370,0.01484
3034.63353,0.01475
3032.57336,0.01478
3030.51318,0.01491
3028.45301,0.01502
3026.39284,0.01499
3024.33267,0.01483
3022.27250,0.01466
3020.21232,0.01456
3018.15215,0.01452
3016.09198,0.01456
3014.03181,0.01464
3011.97163,0.01473
3009.91146,0.01472
3007.85129,0.01454
3005.79112,0.01429
3003.73095,0.01412
3001.67077,0.01411
2999.61060,0.01419
2997.55043,0.01403
2995.49026,0.01386
2993.43009,0.01391
2991.36991,0.01394
2989.30974,0.01383
2987.24957,0.01387
2985.18940,0.01403
2983.12923,0.01393
2981.06905,0.01362
2979.00888,0.01346
2976.94871,0.01350
2974.88854,0.01359
2972.82836,0.01359
2970.76819,0.01351
2968.70802,0.01351
2966.64785,0.01373
2964.58768,0.01410
2962.52750,0.01417
2960.46733,0.01389
2958.40716,0.01352
2956.34699,0.01322
2954.28682,0.01317
2952.22664,0.01331
2950.16647,0.01345
2948.10630,0.01350
2946.04613,0.01341
2943.98596,0.01325
2941.92578,0.01314
2939.86561,0.01306
2937.80544,0.01287
2935.74527,0.01275
2933.68509,0.01288
2931.62492,0.01300
2929.56475,0.01295
2927.50458,0.01282
2925.44441,0.01274
2923.38423,0.01269
2921.32406,0.01254
2919.26389,0.01239
2917.20372,0.01233
2915.14355,0.01236
2913.08337,0.01253
2911.02320,0.01275
2908.96303,0.01279
2906.90286,0.01275
2904.84268,0.01287
2902.78251,0.01279
2900.72234,0.01249
2898.66217,0.01235
2896.60200,0.01235
2894.54182,0.01237
2892.48165,0.01233
2890.42148,0.01226
2888.36131,0.01231
2886.30114,0.01227
2884.24096,0.01202
2882.18079,0.01191
2880.12062,0.01210
2878.06045,0.01221
2876.00028,0.01200
2873.94010,0.01177
2871.87993,0.01171
2869.81976,0.01171
2867.75959,0.01177
2865.69941,0.01180
2863.63924,0.01171
2861.57907,0.01160
2859.51890,0.01132
2857.45873,0.01097
2855.39855,0.01084
2853.33838,0.01087
2851.27821,0.01078
2849.21804,0.01052
2847.15787,0.01043
2845.09769,0.01050
2843.03752,0.01046
2840.97735,0.01048
2838.91718,0.01067
2836.85700,0.01081
2834.79683,0.01081
2832.73666,0.01060
2830.67649,0.01042
2828.61632,0.01040
2826.55614,0.01032
2824.49597,0.01025
2822.43580,0.01034
2820.37563,0.01032
2818.31546,0.01008
2816.25528,0.01002
2814.19511,0.01015
2812.13494,0.01017
2810.07477,0.01016
2808.01460,0.01012
2805.95442,0.01001
2803.89425,0.00991
2801.83408,0.00980
2799.77391,0.00981
2797.71373,0.00991
2795.65356,0.00986
2793.59339,0.00967
2791.53322,0.00951
2789.47305,0.00934
2787.41287,0.00916
2785.35270,0.00907
2783.29253,0.00879
2781.23236,0.00847
2779.17219,0.00865
2777.11201,0.00914
2775.05184,0.00936
2772.99167,0.00924
2770.93150,0.00902
2768.87133,0.00897
2766.81115,0.00904
2764.75098,0.00903
2762.69081,0.00888
2760.63064,0.00886
2758.57046,0.00902
2756.51029,0.00906
2754.45012,0.00900
2752.38995,0.00903
2750.32978,0.00911
2748.26960,0.00914
2746.20943,0.00909
2744.14926,0.00895
2742.08909,0.00873
2740.02892,0.00854
2737.96874,0.00846
2735.90857,0.00848
2733.84840,0.00856
2731.78823,0.00851
2729.72805,0.00818
2727.66788,0.00788
2725.60771,0.00782
2723.54754,0.00777
2721.48737,0.00767
2719.42719,0.00767
2717.36702,0.00790
2715.30685,0.00808
2713.24668,0.00803
2711.18651,0.00794
2709.12633,0.00783
2707.06616,0.00774
2705.00599,0.00778
2702.94582,0.00773
2700.88565,0.00755
2698.82547,0.00748
2696.76530,0.00754
2694.70513,0.00761
2692.64496,0.00764
2690.58478,0.00763
2688.52461,0.00757
2686.46444,0.00747
2684.40427,0.00746
2682.34410,0.00742
2680.28392,0.00720
2678.22375,0.00715
2676.16358,0.00728
2674.10341,0.00717
2672.04324,0.00696
2669.98306,0.00687
2667.92289,0.00674
2665.86272,0.00663
2663.80255,0.00668
2661.74238,0.00671
2659.68220,0.00681
2657.62203,0.00700
2655.56186,0.00700
2653.50169,0.00682
2651.44151,0.00672
2649.38134,0.00680
2647.32117,0.00692
2645.26100,0.00691
2643.20083,0.00676
2641.14065,0.00673
2639.08048,0.00687
2637.02031,0.00689
2634.96014,0.00688
2632.89997,0.00696
2630.83979,0.00687
2628.77962,0.00659
2626.71945,0.00643
2624.65928,0.00628
2622.59910,0.00602
2620.53893,0.00591
2618.47876,0.00600
2616.41859,0.00605
2614.35842,0.00594
2612.29824,0.00567
2610.23807,0.00540
2608.17790,0.00541
2606.11773,0.00562
2604.05756,0.00560
2601.99738,0.00545
2599.93721,0.00563
2597.87704,0.00595
2595.81687,0.00587
2593.75670,0.00549
2591.69652,0.00527
2589.63635,0.00531
2587.57618,0.00542
2585.51601,0.00556
2583.45583,0.00559
2581.39566,0.00525
2579.33549,0.00491
2577.27532,0.00500
2575.21515,0.00514
2573.15497,0.00538
2571.09480,0.00587
2569.03463,0.00603
2566.97446,0.00581
2564.91429,0.00556
2562.85411,0.00529
2560.79394,0.00523
2558.73377,0.00552
2556.67360,0.00574
2554.61342,0.00570
2552.55325,0.00563
2550.49308,0.00547
2548.43291,0.00527
2546.37274,0.00549
2544.31256,0.00587
2542.25239,0.00584
2540.19222,0.00548
2538.13205,0.00520
2536.07188,0.00510
2534.01170,0.00520
2531.95153,0.00532
2529.89136,0.00524
2527.83119,0.00521
2525.77102,0.00530
2523.71084,0.00538
2521.65067,0.00535
2519.59050,0.00518
2517.53033,0.00517
2515.47015,0.00539
2513.40998,0.00565
2511.34981,0.00587
2509.28964,0.00565
2507.22947,0.00511
2505.16929,0.00484
2503.10912,0.00488
2501.04895,0.00491
2498.98878,0.00492
2496.92861,0.00517
2494.86843,0.00551
2492.80826,0.00562
2490.74809,0.00562
2488.68792,0.00564
2486.62775,0.00549
2484.56757,0.00530
2482.50740,0.00542
2480.44723,0.00560
2478.38706,0.00559
2476.32688,0.00570
2474.26671,0.00587
2472.20654,0.00568
2470.14637,0.00536
2468.08620,0.00543
2466.02602,0.00571
2463.96585,0.00575
2461.90568,0.00565
2459.84551,0.00586
2457.78534,0.00612
2455.72516,0.00610
2453.66499,0.00609
2451.60482,0.00611
2449.54465,0.00601
2447.48447,0.00584
2445.42430,0.00567
2443.36413,0.00578
2441.30396,0.00610
2439.24379,0.00608
2437.18361,0.00575
2435.12344,0.00549
2433.06327,0.00537
2431.00310,0.00526
2428.94293,0.00525
2426.88275,0.00533
2424.82258,0.00542
2422.76241,0.00551
2420.70224,0.00542
2418.64207,0.00530
2416.58189,0.00556
2414.52172,0.00610
2412.46155,0.00648
2410.40138,0.00640
2408.34120,0.00626
2406.28103,0.00631
2404.22086,0.00621
2402.16069,0.00596
2400.10052,0.00584
2398.04034,0.00547
2395.98017,0.00540
2393.92000,0.00542
2391.85983,0.00549
2389.79966,0.00563
2387.73948,0.00582
2385.67931,0.00607
2383.61914,0.00614
2381.55897,0.00598
2379.49880,0.00602
2377.43862,0.00643
2375.37845,0.00669
2373.31828,0.00666
2371.25811,0.00668
2369.19793,0.00726
2367.13776,0.00828
2365.07759,0.00861
2363.01742,0.00805
2360.95725,0.00843
2358.89707,0.00798
2356.83690,0.00660
2354.77673,0.00617
2352.71656,0.00676
2350.65639,0.00791
2348.59621,0.00835
2346.53604,0.00711
2344.47587,0.00753
2342.41570,0.00897
2340.35552,0.01007
2338.29535,0.01012
2336.23518,0.00898
2334.17501,0.00774
2332.11484,0.00704
2330.05466,0.00717
2327.99449,0.00751
2325.93432,0.00773
2323.87415,0.00715
2321.81398,0.00650
2319.75380,0.00600
2317.69363,0.00615
2315.63346,0.00622
2313.57329,0.00600
2311.51312,0.00590
2309.45294,0.00596
2307.39277,0.00604
2305.33260,0.00605
2303.27243,0.00593
2301.21225,0.00571
2299.15208,0.00573
2297.09191,0.00593
2295.03174,0.00619
2292.97157,0.00640
2290.91139,0.00642
2288.85122,0.00629
2286.79105,0.00619
2284.73088,0.00623
2282.67071,0.00616
2280.61053,0.00592
2278.55036,0.00595
2276.49019,0.00621
2274.43002,0.00615
2272.36984,0.00567
2270.30967,0.00506
2268.24950,0.00478
2266.18933,0.00516
2264.12916,0.00564
2262.06898,0.00556
2260.00881,0.00523
2257.94864,0.00521
2255.88847,0.00553
2253.82830,0.00543
2251.76812,0.00433
2249.70795,0.00310
2247.64778,0.00334
2245.58761,0.00445
2243.52744,0.00510
2241.46726,0.00523
2239.40709,0.00508
2237.34692,0.00454
2235.28675,0.00402
2233.22657,0.00422
2231.16640,0.00489
2229.10623,0.00508
2227.04606,0.00455
2224.98589,0.00400
2222.92571,0.00422
2220.86554,0.00489
2218.80537,0.00507
2216.74520,0.00529
2214.68503,0.00532
2212.62485,0.00421
2210.56468,0.00336
2208.50451,0.00366
2206.44434,0.00406
2204.38417,0.00407
2202.32399,0.00404
2200.26382,0.00350
2198.20365,0.00285
2196.14348,0.00339
2194.08330,0.00412
2192.02313,0.00394
2189.96296,0.00332
2187.90279,0.00308
2185.84262,0.00347
2183.78244,0.00357
2181.72227,0.00257
2179.66210,0.00131
2177.60193,0.00127
2175.54176,0.00216
2173.48158,0.00265
2171.42141,0.00276
2169.36124,0.00345
2167.30107,0.00441
2165.24089,0.00434
2163.18072,0.00325
2161.12055,0.00195
2159.06038,0.00086
2157.00021,0.00072
2154.94003,0.00151
2152.87986,0.00221
2150.81969,0.00213
2148.75952,0.00167
2146.69935,0.00160
2144.63917,0.00179
2142.57900,0.00184
2140.51883,0.00183
2138.45866,0.00186
2136.39849,0.00177
2134.33831,0.00144
2132.27814,0.00103
2130.21797,0.00123
2128.15780,0.00185
2126.09762,0.00205
2124.03745,0.00232
2121.97728,0.00314
2119.91711,0.00366
2117.85694,0.00351
2115.79676,0.00336
2113.73659,0.00377
2111.67642,0.00436
2109.61625,0.00432
2107.55608,0.00351
2105.49590,0.00282
2103.43573,0.00316
2101.37556,0.00337
2099.31539,0.00252
2097.25521,0.00183
2095.19504,0.00229
2093.13487,0.00287
2091.07470,0.00334
2089.01453,0.00403
2086.95435,0.00411
2084.89418,0.00349
2082.83401,0.00332
2080.77384,0.00375
2078.71367,0.00394
2076.65349,0.00383
2074.59332,0.00386
2072.53315,0.00425
2070.47298,0.00468
2068.41281,0.00444
2066.35263,0.00349
2064.29246,0.00263
2062.23229,0.00267
2060.17212,0.00306
2058.11194,0.00261
2056.05177,0.00194
2053.99160,0.00228
2051.93143,0.00303
2049.87126,0.00285
2047.81108,0.00208
2045.75091,0.00203
2043.69074,0.00240
2041.63057,0.00223
2039.57040,0.00199
2037.51022,0.00293
2035.45005,0.00422
2033.38988,0.00387
2031.32971,0.00274
2029.26954,0.00249
2027.20936,0.00283
2025.14919,0.00267
2023.08902,0.00159
2021.02885,0.00028
2018.96867,0.00004
2016.90850,0.00139
2014.84833,0.00312
2012.78816,0.00370
2010.72799,0.00298
2008.66781,0.00260
2006.60764,0.00338
2004.54747,0.00388
2002.48730,0.00339
2000.42713,0.00258
1998.36695,0.00216
1996.30678,0.00215
1994.24661,0.00226
1992.18644,0.00248
1990.12626,0.00283
1988.06609,0.00294
1986.00592,0.00256
1983.94575,0.00224
1981.88558,0.00244
1979.82540,0.00226
1977.76523,0.00157
1975.70506,0.00203
1973.64489,0.00289
1971.58472,0.00271
1969.52454,0.00182
1967.46437,0.00082
1965.40420,0.00047
1963.34403,0.00071
1961.28386,0.00123
1959.22368,0.00234
1957.16351,0.00302
1955.10334,0.00234
1953.04317,0.00151
1950.98299,0.00156
1948.92282,0.00201
1946.86265,0.00207
1944.80248,0.00164
1942.74231,0.00124
1940.68213,0.00143
1938.62196,0.00211
1936.56179,0.00246
1934.50162,0.00221
1932.44145,0.00175
1930.38127,0.00109
1928.32110,0.00057
1926.26093,0.00052
1924.20076,0.00063
1922.14059,0.00069
1920.08041,0.00084
1918.02024,0.00130
1915.96007,0.00178
1913.89990,0.00181
1911.83972,0.00141
1909.77955,0.00095
1907.71938,0.00100
1905.65921,0.00152
1903.59904,0.00179
1901.53886,0.00162
1899.47869,0.00155
1897.41852,0.00189
1895.35835,0.00230
1893.29818,0.00232
1891.23800,0.00210
1889.17783,0.00210
1887.11766,0.00224
1885.05749,0.00215
1882.99731,0.00196
1880.93714,0.00198
1878.87697,0.00213
1876.81680,0.00215
1874.75663,0.00187
1872.69645,0.00128
1870.63628,0.00089
1868.57611,0.00120
1866.51594,0.00174
1864.45577,0.00192
1862.39559,0.00182
1860.33542,0.00154
1858.27525,0.00124
1856.21508,0.00123
1854.15491,0.00132
1852.09473,0.00130
1850.03456,0.00123
1847.97439,0.00121
1845.91422,0.00138
1843.85404,0.00168
1841.79387,0.00172
1839.73370,0.00154
1837.67353,0.00141
1835.61336,0.00142
1833.55318,0.00178
1831.49301,0.00259
1829.43284,0.00310
1827.37267,0.00268
1825.31250,0.00202
1823.25232,0.00182
1821.19215,0.00179
1819.13198,0.00165
1817.07181,0.00169
1815.01163,0.00194
1812.95146,0.00207
1810.89129,0.00197
1808.83112,0.00183
1806.77095,0.00177
1804.71077,0.00173
1802.65060,0.00160
1800.59043,0.00145
1798.53026,0.00141
1796.47009,0.00153
1794.40991,0.00181
1792.34974,0.00208
1790.28957,0.00211
1788.22940,0.00194
1786.16923,0.00176
1784.10905,0.00183
1782.04888,0.00211
1779.98871,0.00217
1777.92854,0.00200
1775.86836,0.00192
1773.80819,0.00199
1771.74802,0.00198
1769.68785,0.00182
1767.62768,0.00174
1765.56750,0.00182
1763.50733,0.00194
1761.44716,0.00202
1759.38699,0.00206
1757.32682,0.00212
1755.26664,0.00216
1753.20647,0.00218
1751.14630,0.00226
1749.08613,0.00239
1747.02596,0.00252
1744.96578,0.00269
1742.90561,0.00285
1740.84544,0.00286
1738.78527,0.00276
1736.72509,0.00264
1734.66492,0.00245
1732.60475,0.00241
1730.54458,0.00267
1728.48441,0.00284
1726.42423,0.00288
1724.36406,0.00293
1722.30389,0.00297
1720.24372,0.00317
1718.18355,0.00343
1716.12337,0.00321
1714.06320,0.00278
1712.00303,0.00262
1709.94286,0.00281
1707.88268,0.00310
1705.82251,0.00311
1703.76234,0.00300
1701.70217,0.00315
1699.64200,0.00337
1697.58182,0.00344
1695.52165,0.00363
1693.46148,0.00395
1691.40131,0.00425
1689.34114,0.00471
1687.28096,0.00537
1685.22079,0.00599
1683.16062,0.00609
1681.10045,0.00597
1679.04028,0.00620
1676.98010,0.00679
1674.91993,0.00735
1672.85976,0.00763
1670.79959,0.00776
1668.73941,0.00785
1666.67924,0.00805
1664.61907,0.00844
1662.55890,0.00876
1660.49873,0.00873
1658.43855,0.00861
1656.37838,0.00879
1654.31821,0.00918
1652.25804,0.00928
1650.19787,0.00914
1648.13769,0.00895
1646.07752,0.00868
1644.01735,0.00841
1641.95718,0.00830
1639.89701,0.00837
1637.83683,0.00853
1635.77666,0.00857
1633.71649,0.00837
1631.65632,0.00818
1629.59614,0.00815
1627.53597,0.00805
1625.47580,0.00778
1623.41563,0.00757
1621.35546,0.00749
1619.29528,0.00747
1617.23511,0.00752
1615.17494,0.00751
1613.11477,0.00737
1611.05460,0.00727
1608.99442,0.00728
1606.93425,0.00729
1604.87408,0.00725
1602.81391,0.00723
1600.75373,0.00720
1598.69356,0.00703
1596.63339,0.00680
1594.57322,0.00665
1592.51305,0.00661
1590.45287,0.00656
1588.39270,0.00636
1586.33253,0.00605
1584.27236,0.00577
1582.21219,0.00554
1580.15201,0.00531
1578.09184,0.00510
1576.03167,0.00504
1573.97150,0.00503
1571.91133,0.00490
1569.85115,0.00463
1567.79098,0.00421
1565.73081,0.00379
1563.67064,0.00360
1561.61046,0.00374
1559.55029,0.00375
1557.49012,0.00323
1555.42995,0.00294
1553.36978,0.00301
1551.30960,0.00314
1549.24943,0.00305
1547.18926,0.00278
1545.12909,0.00267
1543.06892,0.00283
1541.00874,0.00293
1538.94857,0.00267
1536.88840,0.00232
1534.82823,0.00203
1532.76805,0.00180
1530.70788,0.00164
1528.64771,0.00152
1526.58754,0.00139
1524.52737,0.00136
1522.46719,0.00139
1520.40702,0.00127
1518.34685,0.00106
1516.28668,0.00087
1514.22651,0.00079
1512.16633,0.00079
1510.10616,0.00096
1508.04599,0.00125
1505.98582,0.00133
1503.92565,0.00106
1501.86547,0.00082
1499.80530,0.00091
1497.74513,0.00110
1495.68496,0.00113
1493.62478,0.00113
1491.56461,0.00117
1489.50444,0.00116
1487.44427,0.00112
1485.38410,0.00116
1483.32392,0.00125
1481.26375,0.00128
1479.20358,0.00128
1477.14341,0.00144
1475.08324,0.00167
1473.02306,0.00173
1470.96289,0.00164
1468.90272,0.00159
1466.84255,0.00176
1464.78238,0.00201
1462.72220,0.00208
1460.66203,0.00207
1458.60186,0.00201
1456.54169,0.00181
1454.48151,0.00172
1452.42134,0.00173
1450.36117,0.00185
1448.30100,0.00203
1446.24083,0.00217
1444.18065,0.00223
1442.12048,0.00227
1440.06031,0.00233
1438.00014,0.00230
1435.93997,0.00212
1433.87979,0.00202
1431.81962,0.00217
1429.75945,0.00240
1427.69928,0.00246
1425.63910,0.00241
1423.57893,0.00241
1421.51876,0.00251
1419.45859,0.00262
1417.39842,0.00270
1415.33824,0.00283
1413.27807,0.00295
1411.21790,0.00292
1409.15773,0.00282
1407.09756,0.00278
1405.03738,0.00274
1402.97721,0.00260
1400.91704,0.00240
1398.85687,0.00219
1396.79670,0.00206
1394.73652,0.00211
1392.67635,0.00218
1390.61618,0.00214
1388.55601,0.00210
1386.49583,0.00224
1384.43566,0.00245
1382.37549,0.00255
1380.31532,0.00251
1378.25515,0.00237
1376.19497,0.00219
1374.13480,0.00208
1372.07463,0.00208
1370.01446,0.00211
1367.95429,0.00203
1365.89411,0.00183
1363.83394,0.00166
1361.77377,0.00169
1359.71360,0.00188
1357.65343,0.00204
1355.59325,0.00214
1353.53308,0.00220
1351.47291,0.00224
1349.41274,0.00222
1347.35256,0.00213
1345.29239,0.00198
1343.23222,0.00179
1341.17205,0.00160
1339.11188,0.00152
1337.05170,0.00158
1334.99153,0.00167
1332.93136,0.00171
1330.87119,0.00172
1328.81102,0.00173
1326.75084,0.00172
1324.69067,0.00169
1322.63050,0.00164
1320.57033,0.00160
1318.51015,0.00157
1316.44998,0.00161
1314.38981,0.00171
1312.32964,0.00178
1310.26947,0.00179
1308.20929,0.00180
1306.14912,0.00182
1304.08895,0.00179
1302.02878,0.00178
1299.96861,0.00190
1297.90843,0.00210
1295.84826,0.00221
1293.78809,0.00227
1291.72792,0.00240
1289.66775,0.00245
1287.60757,0.00229
1285.54740,0.00214
1283.48723,0.00220
1281.42706,0.00230
1279.36688,0.00229
1277.30671,0.00231
1275.24654,0.00233
1273.18637,0.00222
1271.12620,0.00223
1269.06602,0.00240
1267.00585,0.00241
1264.94568,0.00220
1262.88551,0.00200
1260.82534,0.00194
1258.76516,0.00199
1256.70499,0.00198
1254.64482,0.00191
1252.58465,0.00199
1250.52447,0.00217
1248.46430,0.00214
1246.40413,0.00195
1244.34396,0.00187
1242.28379,0.00190
1240.22361,0.00190
1238.16344,0.00185
1236.10327,0.00179
1234.04310,0.00160
1231.98293,0.00124
1229.92275,0.00094
1227.86258,0.00091
1225.80241,0.00102
1223.74224,0.00112
1221.68207,0.00113
1219.62189,0.00104
1217.56172,0.00092
1215.50155,0.00083
1213.44138,0.00071
1211.38120,0.00047
1209.32103,0.00017
1207.26086,0.00002
1205.20069,0.00005
1203.14052,0.00007
1201.08034,0.00002
1199.02017,0.00009
1196.96000,0.00018
1194.89983,0.00020
1192.83966,0.00015
1190.77948,0.00008
1188.71931,0.00004
1186.65914,0.00001
1184.59897,0.00011
1182.53880,0.00030
1180.47862,0.00043
1178.41845,0.00050
1176.35828,0.00065
1174.29811,0.00094
1172.23793,0.00125
1170.17776,0.00143
1168.11759,0.00172
1166.05742,0.00221
1163.99725,0.00264
1161.93707,0.00291
1159.87690,0.00312
1157.81673,0.00350
1155.75656,0.00407
1153.69639,0.00458
1151.63621,0.00494
1149.57604,0.00526
1147.51587,0.00580
1145.45570,0.00666
1143.39552,0.00749
1141.33535,0.00807
1139.27518,0.00858
1137.21501,0.00919
1135.15484,0.00989
1133.09466,0.01047
1131.03449,0.01088
1128.97432,0.01141
1126.91415,0.01218
1124.85398,0.01302
1122.79380,0.01380
1120.73363,0.01445
1118.67346,0.01509
1116.61329,0.01571
1114.55312,0.01623
1112.49294,0.01692
1110.43277,0.01776
1108.37260,0.01835
1106.31243,0.01883
1104.25225,0.01945
1102.19208,0.02005
1100.13191,0.02040
1098.07174,0.02062
1096.01157,0.02101
1093.95139,0.02154
1091.89122,0.02201
1089.83105,0.02241
1087.77088,0.02272
1085.71071,0.02300
1083.65053,0.02337
1081.59036,0.02386
1079.53019,0.02433
1077.47002,0.02454
1075.40985,0.02457
1073.34967,0.02474
1071.28950,0.02499
1069.22933,0.02502
1067.16916,0.02490
1065.10898,0.02483
1063.04881,0.02477
1060.98864,0.02458
1058.92847,0.02429
1056.86830,0.02396
1054.80812,0.02348
1052.74795,0.02279
1050.68778,0.02199
1048.62761,0.02111
1046.56744,0.02012
1044.50726,0.01929
1042.44709,0.01865
1040.38692,0.01793
1038.32675,0.01698
1036.26657,0.01596
1034.20640,0.01507
1032.14623,0.01418
1030.08606,0.01336
1028.02589,0.01281
1025.96571,0.01241
1023.90554,0.01190
1021.84537,0.01126
1019.78520,0.01065
1017.72503,0.01036
1015.66485,0.01024
1013.60468,0.00990
1011.54451,0.00965
1009.48434,0.00990
1007.42417,0.01030
1005.36399,0.01056
1003.30382,0.01106
1001.24365,0.01185
999.18348,0.01262
997.12330,0.01326
995.06313,0.01390
993.00296,0.01445
990.94279,0.01490
988.88262,0.01539
986.82244,0.01578
984.76227,0.01606
982.70210,0.01638
980.64193,0.01642
978.58176,0.01607
976.52158,0.01586
974.46141,0.01597
972.40124,0.01597
970.34107,0.01566
968.28089,0.01510
966.22072,0.01453
964.16055,0.01414
962.10038,0.01374
960.04021,0.01308
957.98003,0.01238
955.91986,0.01174
953.85969,0.01115
951.79952,0.01075
949.73935,0.01027
947.67917,0.00971
945.61900,0.00918
943.55883,0.00841
941.49866,0.00757
939.43849,0.00718
937.37831,0.00716
935.31814,0.00704
933.25797,0.00657
931.19780,0.00594
929.13762,0.00556
927.07745,0.00558
925.01728,0.00561
922.95711,0.00543
920.89694,0.00524
918.83676,0.00505
916.77659,0.00478
914.71642,0.00458
912.65625,0.00439
910.59608,0.00406
908.53590,0.00390
906.47573,0.00395
904.41556,0.00384
902.35539,0.00372
900.29522,0.00391
898.23504,0.00438
896.17487,0.00479
894.11470,0.00492
892.05453,0.00496
889.99435,0.00515
887.93418,0.00547
885.87401,0.00581
883.81384,0.00624
881.75367,0.00664
879.69349,0.00681
877.63332,0.00689
875.57315,0.00712
873.51298,0.00768
871.45281,0.00823
869.39263,0.00843
867.33246,0.00874
865.27229,0.00934
863.21212,0.00964
861.15194,0.00954
859.09177,0.00959
857.03160,0.00965
854.97143,0.00947
852.91126,0.00937
850.85108,0.00919
848.79091,0.00881
846.73074,0.00881
844.67057,0.00888
842.61040,0.00855
840.55022,0.00835
838.49005,0.00829
836.42988,0.00804
834.36971,0.00769
832.30954,0.00716
830.24936,0.00649
828.18919,0.00604
826.12902,0.00598
824.06885,0.00604
822.00867,0.00606
819.94850,0.00609
817.88833,0.00592
815.82816,0.00554
813.76799,0.00530
811.70781,0.00541
809.64764,0.00548
807.58747,0.00521
805.52730,0.00490
803.46713,0.00459
801.40695,0.00430
799.34678,0.00414
797.28661,0.00381
795.22644,0.00333
793.16627,0.00318
791.10609,0.00334
789.04592,0.00324
786.98575,0.00306
784.92558,0.00318
782.86540,0.00352
780.80523,0.00384
778.74506,0.00385
776.68489,0.00372
774.62472,0.00371
772.56454,0.00334
770.50437,0.00265
768.44420,0.00227
766.38403,0.00206
764.32386,0.00202
762.26368,0.00249
760.20351,0.00316
758.14334,0.00334
756.08317,0.00315
754.02299,0.00316
751.96282,0.00330
749.90265,0.00318
747.84248,0.00289
745.78231,0.00302
743.72213,0.00330
741.66196,0.00324
739.60179,0.00299
737.54162,0.00268
735.48145,0.00251
733.42127,0.00239
731.36110,0.00205
729.30093,0.00215
727.24076,0.00278
725.18059,0.00305
723.12041,0.00335
721.06024,0.00335
719.00007,0.00351
716.93990,0.00337
714.87972,0.00316
712.81955,0.00310
710.75938,0.00287
708.69921,0.00257
706.63904,0.00264
704.57886,0.00319
702.51869,0.00388
700.45852,0.00460
698.39835,0.00537
696.33818,0.00594
694.27800,0.00615
692.21783,0.00619
690.15766,0.00626
688.09749,0.00599
686.03731,0.00494
683.97714,0.00373
681.91697,0.00354
679.85680,0.00422
677.79663,0.00460
675.73645,0.00451
673.67628,0.00460
671.61611,0.00460
669.55594,0.00288
667.49577,0.00184
665.43559,0.00560
663.37542,0.00631
661.31525,0.00568
659.25508,0.00517
657.19491,0.00509
655.13473,0.00541
653.07456,0.00597
651.01439,0.00593
648.95422,0.00502
646.89404,0.00435
644.83387,0.00384
642.77370,0.00312
640.71353,0.00225
638.65336,0.00151
636.59318,0.00137
634.53301,0.00221
632.47284,0.00430
630.41267,0.00677
628.35250,0.00745
626.29232,0.00538
624.23215,0.00376
622.17198,0.00444
620.11181,0.00471
618.05164,0.00308
615.99146,0.00209
613.93129,0.00260
611.87112,0.00181
609.81095,0.00000
607.75077,0.00052
605.69060,0.00303
603.63043,0.00314
601.57026,0.00125
599.51009,0.00000
