3996.73391,0.00035
3994.67373,0.00014
3992.61356,0.00000
3990.55339,0.00016
3988.49322,0.00050
3986.43305,0.00062
3984.37287,0.00052
3982.31270,0.00041
3980.25253,0.00029
3978.19236,0.00023
3976.13219,0.00027
3974.07201,0.00026
3972.01184,0.00026
3969.95167,0.00043
3967.89150,0.00054
3965.83133,0.00039
3963.77115,0.00029
3961.71098,0.00048
3959.65081,0.00059
3957.59064,0.00047
3955.53046,0.00052
3953.47029,0.00069
3951.41012,0.00064
3949.34995,0.00038
3947.28978,0.00016
3945.22960,0.00008
3943.16943,0.00015
3941.10926,0.00035
3939.04909,0.00056
3936.98892,0.00068
3934.92874,0.00064
3932.86857,0.00050
3930.80840,0.00036
3928.74823,0.00032
3926.68805,0.00039
3924.62788,0.00055
3922.56771,0.00070
3920.50754,0.00058
3918.44737,0.00024
3916.38719,0.00009
3914.32702,0.00024
3912.26685,0.00041
3910.20668,0.00048
3908.14651,0.00055
3906.08633,0.00065
3904.02616,0.00065
3901.96599,0.00061
3899.90582,0.00064
3897.84565,0.00082
3895.78547,0.00115
3893.72530,0.00137
3891.66513,0.00115
3889.60496,0.00069
3887.54478,0.00040
3885.48461,0.00044
3883.42444,0.00076
3881.36427,0.00103
3879.30410,0.00093
3877.24392,0.00041
3875.18375,0.00000
3873.12358,0.00017
3871.06341,0.00074
3869.00324,0.00117
3866.94306,0.00124
3864.88289,0.00110
3862.82272,0.00083
3860.76255,0.00064
3858.70237,0.00054
3856.64220,0.00042
3854.58203,0.00059
3852.52186,0.00111
3850.46169,0.00123
3848.40151,0.00091
3846.34134,0.00060
3844.28117,0.00048
3842.22100,0.00043
3840.16083,0.00038
3838.10065,0.00038
3836.04048,0.00043
3833.98031,0.00040
3831.92014,0.00023
3829.85997,0.00012
3827.79979,0.00023
3825.73962,0.00043
3823.67945,0.00074
3821.61928,0.00134
3819.55910,0.00177
3817.49893,0.00148
3815.43876,0.00086
3813.37859,0.00048
3811.31842,0.00047
3809.25824,0.00077
3807.19807,0.00125
3805.13790,0.00130
3803.07773,0.00086
3801.01756,0.00061
3798.95738,0.00065
3796.89721,0.00064
3794.83704,0.00065
3792.77687,0.00065
3790.71670,0.00063
3788.65652,0.00057
3786.59635,0.00039
3784.53618,0.00030
3782.47601,0.00047
3780.41583,0.00065
3778.35566,0.00055
3776.29549,0.00033
3774.23532,0.00037
3772.17515,0.00060
3770.11497,0.00077
3768.05480,0.00097
3765.99463,0.00123
3763.93446,0.00128
3761.87429,0.00101
3759.81411,0.00067
3757.75394,0.00052
3755.69377,0.00062
3753.63360,0.00084
3751.57342,0.00095
3749.51325,0.00094
3747.45308,0.00078
3745.39291,0.00032
3743.33274,0.00010
3741.27256,0.00064
3739.21239,0.00137
3737.15222,0.00166
3735.09205,0.00158
3733.03188,0.00169
3730.97170,0.00184
3728.91153,0.00136
3726.85136,0.00077
3724.79119,0.00110
3722.73102,0.00188
3720.67084,0.00201
3718.61067,0.00164
3716.55050,0.00130
3714.49033,0.00091
3712.43015,0.00066
3710.36998,0.00109
3708.30981,0.00154
3706.24964,0.00153
3704.18947,0.00145
3702.12929,0.00173
3700.06912,0.00209
3698.00895,0.00209
3695.94878,0.00194
3693.88861,0.00192
3691.82843,0.00191
3689.76826,0.00159
3687.70809,0.00129
3685.64792,0.00148
3683.58775,0.00199
3681.52757,0.00231
3679.46740,0.00218
3677.40723,0.00178
3675.34706,0.00157
3673.28688,0.00167
3671.22671,0.00217
3669.16654,0.00300
3667.10637,0.00349
3665.04620,0.00348
3662.98602,0.00335
3660.92585,0.00330
3658.86568,0.00352
3656.80551,0.00405
3654.74534,0.00440
3652.68516,0.00421
3650.62499,0.00390
3648.56482,0.00420
3646.50465,0.00496
3644.44447,0.00545
3642.38430,0.00555
3640.32413,0.00551
3638.26396,0.00564
3636.20379,0.00602
3634.14361,0.00657
3632.08344,0.00722
3630.02327,0.00774
3627.96310,0.00806
3625.90293,0.00820
3623.84275,0.00831
3621.78258,0.00846
3619.72241,0.00880
3617.66224,0.00944
3615.60207,0.00997
3613.54189,0.01031
3611.48172,0.01049
3609.42155,0.01047
3607.36138,0.01046
3605.30120,0.01081
3603.24103,0.01135
3601.18086,0.01177
3599.12069,0.01231
3597.06052,0.01309
3595.00034,0.01372
3592.94017,0.01386
3590.88000,0.01384
3588.81983,0.01397
3586.75966,0.01448
3584.69948,0.01521
3582.63931,0.01574
3580.57914,0.01588
3578.51897,0.01576
3576.45879,0.01576
3574.39862,0.01613
3572.33845,0.01657
3570.27828,0.01685
3568.21811,0.01737
3566.15793,0.01822
3564.09776,0.01886
3562.03759,0.01920
3559.97742,0.01938
3557.91725,0.01952
3555.85707,0.01977
3553.79690,0.02008
3551.73673,0.02024
3549.67656,0.02019
3547.61639,0.02015
3545.55621,0.02046
3543.49604,0.02111
3541.43587,0.02177
3539.37570,0.02227
3537.31552,0.02261
3535.25535,0.02292
3533.19518,0.02328
3531.13501,0.02350
3529.07484,0.02357
3527.01466,0.02369
3524.95449,0.02401
3522.89432,0.02456
3520.83415,0.02521
3518.77398,0.02581
3516.71380,0.02629
3514.65363,0.02661
3512.59346,0.02680
3510.53329,0.02696
3508.47312,0.02719
3506.41294,0.02744
3504.35277,0.02765
3502.29260,0.02790
3500.23243,0.02842
3498.17225,0.02909
3496.11208,0.02954
3494.05191,0.02973
3491.99174,0.02980
3489.93157,0.02982
3487.87139,0.02995
3485.81122,0.03016
3483.75105,0.03033
3481.69088,0.03067
3479.63071,0.03124
3477.57053,0.03168
3475.51036,0.03190
3473.45019,0.03217
3471.39002,0.03263
3469.32984,0.03312
3467.26967,0.03357
3465.20950,0.03396
3463.14933,0.03408
3461.08916,0.03382
3459.02898,0.03361
3456.96881,0.03376
3454.90864,0.03406
3452.84847,0.03446
3450.78830,0.03490
3448.72812,0.03522
3446.66795,0.03556
3444.60778,0.03579
3442.54761,0.03588
3440.48744,0.03615
3438.42726,0.03668
3436.36709,0.03720
3434.30692,0.03736
3432.24675,0.03732
3430.18657,0.03738
3428.12640,0.03736
3426.06623,0.03744
3424.00606,0.03777
3421.94589,0.03799
3419.88571,0.03786
3417.82554,0.03773
3415.76537,0.03794
3413.70520,0.03829
3411.64503,0.03848
3409.58485,0.03862
3407.52468,0.03896
3405.46451,0.03947
3403.40434,0.03976
3401.34416,0.03980
3399.28399,0.03993
3397.22382,0.03989
3395.16365,0.03965
3393.10348,0.03985
3391.04330,0.04022
3388.98313,0.04027
3386.92296,0.04044
3384.86279,0.04083
3382.80262,0.04087
3380.74244,0.04066
3378.68227,0.04061
3376.62210,0.04082
3374.56193,0.04119
3372.50176,0.04142
3370.44158,0.04128
3368.38141,0.04114
3366.32124,0.04149
3364.26107,0.04207
3362.20089,0.04238
3360.14072,0.04248
3358.08055,0.04261
3356.02038,0.04275
3353.96021,0.04282
3351.90003,0.04273
3349.83986,0.04250
3347.77969,0.04231
3345.71952,0.04214
3343.65935,0.04195
3341.59917,0.04197
3339.53900,0.04218
3337.47883,0.04234
3335.41866,0.04238
3333.35849,0.04253
3331.29831,0.04281
3329.23814,0.04286
3327.17797,0.04278
3325.11780,0.04283
3323.05762,0.04288
3320.99745,0.04283
3318.93728,0.04269
3316.87711,0.04270
3314.81694,0.04290
3312.75676,0.04295
3310.69659,0.04280
3308.63642,0.04284
3306.57625,0.04304
3304.51608,0.04307
3302.45590,0.04292
3300.39573,0.04276
3298.33556,0.04275
3296.27539,0.04296
3294.21521,0.04326
3292.15504,0.04349
3290.09487,0.04353
3288.03470,0.04351
3285.97453,0.04361
3283.91435,0.04372
3281.85418,0.04385
3279.79401,0.04391
3277.73384,0.04381
3275.67367,0.04373
3273.61349,0.04367
3271.55332,0.04343
3269.49315,0.04311
3267.43298,0.04311
3265.37281,0.04346
3263.31263,0.04387
3261.25246,0.04406
3259.19229,0.04390
3257.13212,0.04374
3255.07194,0.04381
3253.01177,0.04382
3250.95160,0.04364
3248.89143,0.04333
3246.83126,0.04302
3244.77108,0.04307
3242.71091,0.04329
3240.65074,0.04337
3238.59057,0.04343
3236.53040,0.04361
3234.47022,0.04383
3232.41005,0.04375
3230.34988,0.04335
3228.28971,0.04308
3226.22954,0.04305
3224.16936,0.04298
3222.10919,0.04292
3220.04902,0.04301
3217.98885,0.04306
3215.92867,0.04292
3213.86850,0.04288
3211.80833,0.04298
3209.74816,0.04307
3207.68799,0.04303
3205.62781,0.04284
3203.56764,0.04260
3201.50747,0.04242
3199.44730,0.04242
3197.38713,0.04260
3195.32695,0.04276
3193.26678,0.04286
3191.20661,0.04291
3189.14644,0.04276
3187.08626,0.04234
3185.02609,0.04196
3182.96592,0.04186
3180.90575,0.04188
3178.84558,0.04185
3176.78540,0.04188
3174.72523,0.04191
3172.66506,0.04172
3170.60489,0.04143
3168.54472,0.04127
3166.48454,0.04127
3164.42437,0.04127
3162.36420,0.04119
3160.30403,0.04110
3158.24386,0.04113
3156.18368,0.04129
3154.12351,0.04140
3152.06334,0.04131
3150.00317,0.04090
3147.94299,0.04038
3145.88282,0.04014
3143.82265,0.04006
3141.76248,0.03996
3139.70231,0.03991
3137.64213,0.03981
3135.58196,0.03946
3133.52179,0.03914
3131.46162,0.03916
3129.40145,0.03916
3127.34127,0.03887
3125.28110,0.03868
3123.22093,0.03868
3121.16076,0.03841
3119.10058,0.03806
3117.04041,0.03814
3114.98024,0.03833
3112.92007,0.03814
3110.85990,0.03777
3108.79972,0.03754
3106.73955,0.03752
3104.67938,0.03752
3102.61921,0.03733
3100.55904,0.03710
3098.49886,0.03704
3096.43869,0.03712
3094.37852,0.03717
3092.31835,0.03710
3090.25818,0.03701
3088.19800,0.03698
3086.13783,0.03679
3084.07766,0.03638
3082.01749,0.03610
3079.95731,0.03602
3077.89714,0.03587
3075.83697,0.03561
3073.77680,0.03546
3071.71663,0.03543
3069.65645,0.03525
3067.59628,0.03494
3065.53611,0.03468
3063.47594,0.03446
3061.41577,0.03413
3059.35559,0.03373
3057.29542,0.03359
3055.23525,0.03370
3053.17508,0.03376
3051.11491,0.03361
3049.05473,0.03320
3046.99456,0.03277
3044.93439,0.03249
3042.87422,0.03228
3040.81404,0.03215
3038.75387,0.03202
3036.69370,0.03182
3034.63353,0.03174
3032.57336,0.03178
3030.51318,0.03171
3028.45301,0.03154
3026.39284,0.03133
3024.33267,0.03098
3022.27250,0.03058
3020.21232,0.03041
3018.15215,0.03047
3016.09198,0.03052
3014.03181,0.03043
3011.97163,0.03020
3009.91146,0.02980
3007.85129,0.02936
3005.79112,0.02915
3003.73095,0.02911
3001.67077,0.02898
2999.61060,0.02877
2997.55043,0.02862
2995.49026,0.02868
2993.43009,0.02870
2991.36991,0.02840
2989.30974,0.02815
2987.24957,0.02837
2985.18940,0.02866
2983.12923,0.02854
2981.06905,0.02814
2979.00888,0.02781
2976.94871,0.02778
2974.88854,0.02787
2972.82836,0.02772
2970.76819,0.02763
2968.70802,0.02771
2966.64785,0.02750
2964.58768,0.02718
2962.52750,0.02728
2960.46733,0.02748
2958.40716,0.02738
2956.34699,0.02711
2954.28682,0.02688
2952.22664,0.02692
2950.16647,0.02707
2948.10630,0.02703
2946.04613,0.02681
2943.98596,0.02648
2941.92578,0.02617
2939.86561,0.02602
2937.80544,0.02604
2935.74527,0.02611
2933.68509,0.02607
2931.62492,0.02590
2929.56475,0.02582
2927.50458,0.02583
2925.44441,0.02572
2923.38423,0.02544
2921.32406,0.02526
2919.26389,0.02524
2917.20372,0.02510
2915.14355,0.02489
2913.08337,0.02477
2911.02320,0.02465
2908.96303,0.02439
2906.90286,0.02411
2904.84268,0.02405
2902.78251,0.02391
2900.72234,0.02352
2898.66217,0.02325
2896.60200,0.02320
2894.54182,0.02318
2892.48165,0.02304
2890.42148,0.02277
2888.36131,0.02254
2886.30114,0.02251
2884.24096,0.02252
2882.18079,0.02241
2880.12062,0.02235
2878.06045,0.02243
2876.00028,0.02233
2873.94010,0.02198
2871.87993,0.02172
2869.81976,0.02178
2867.75959,0.02186
2865.69941,0.02161
2863.63924,0.02128
2861.57907,0.02112
2859.51890,0.02095
2857.45873,0.02064
2855.39855,0.02033
2853.33838,0.02026
2851.27821,0.02023
2849.21804,0.02015
2847.15787,0.02009
2845.09769,0.01995
2843.03752,0.01976
2840.97735,0.01966
2838.91718,0.01953
2836.85700,0.01924
2834.79683,0.01898
2832.73666,0.01886
2830.67649,0.01870
2828.61632,0.01861
2826.55614,0.01865
2824.49597,0.01858
2822.43580,0.01832
2820.37563,0.01809
2818.31546,0.01795
2816.25528,0.01789
2814.19511,0.01792
2812.13494,0.01790
2810.07477,0.01780
2808.01460,0.01777
2805.95442,0.01770
2803.89425,0.01735
2801.83408,0.01694
2799.77391,0.01673
2797.71373,0.01669
2795.65356,0.01672
2793.59339,0.01669
2791.53322,0.01660
2789.47305,0.01655
2787.41287,0.01651
2785.35270,0.01637
2783.29253,0.01617
2781.23236,0.01610
2779.17219,0.01617
2777.11201,0.01618
2775.05184,0.01611
2772.99167,0.01595
2770.93150,0.01568
2768.87133,0.01553
2766.81115,0.01546
2764.75098,0.01534
2762.69081,0.01533
2760.63064,0.01545
2758.57046,0.01540
2756.51029,0.01517
2754.45012,0.01499
2752.38995,0.01479
2750.32978,0.01456
2748.26960,0.01449
2746.20943,0.01460
2744.14926,0.01459
2742.08909,0.01436
2740.02892,0.01427
2737.96874,0.01437
2735.90857,0.01424
2733.84840,0.01387
2731.78823,0.01364
2729.72805,0.01370
2727.66788,0.01380
2725.60771,0.01381
2723.54754,0.01374
2721.48737,0.01357
2719.42719,0.01339
2717.36702,0.01329
2715.30685,0.01318
2713.24668,0.01311
2711.18651,0.01309
2709.12633,0.01306
2707.06616,0.01300
2705.00599,0.01285
2702.94582,0.01265
2700.88565,0.01254
2698.82547,0.01250
2696.76530,0.01232
2694.70513,0.01205
2692.64496,0.01197
2690.58478,0.01210
2688.52461,0.01213
2686.46444,0.01203
2684.40427,0.01200
2682.34410,0.01205
2680.28392,0.01203
2678.22375,0.01190
2676.16358,0.01165
2674.10341,0.01133
2672.04324,0.01104
2669.98306,0.01089
2667.92289,0.01089
2665.86272,0.01094
2663.80255,0.01097
2661.74238,0.01091
2659.68220,0.01089
2657.62203,0.01103
2655.56186,0.01100
2653.50169,0.01073
2651.44151,0.01057
2649.38134,0.01063
2647.32117,0.01079
2645.26100,0.01087
2643.20083,0.01079
2641.14065,0.01077
2639.08048,0.01086
2637.02031,0.01073
2634.96014,0.01045
2632.89997,0.01034
2630.83979,0.01032
2628.77962,0.01022
2626.71945,0.01007
2624.65928,0.00987
2622.59910,0.00967
2620.53893,0.00957
2618.47876,0.00938
2616.41859,0.00912
2614.35842,0.00913
2612.29824,0.00931
2610.23807,0.00929
2608.17790,0.00908
2606.11773,0.00895
2604.05756,0.00904
2601.99738,0.00914
2599.93721,0.00908
2597.87704,0.00900
2595.81687,0.00880
2593.75670,0.00837
2591.69652,0.00815
2589.63635,0.00825
2587.57618,0.00841
2585.51601,0.00854
2583.45583,0.00855
2581.39566,0.00832
2579.33549,0.00792
2577.27532,0.00778
2575.21515,0.00789
2573.15497,0.00789
2571.09480,0.00786
2569.03463,0.00787
2566.97446,0.00780
2564.91429,0.00791
2562.85411,0.00811
2560.79394,0.00788
2558.73377,0.00749
2556.67360,0.00762
2554.61342,0.00809
2552.55325,0.00832
2550.49308,0.00823
2548.43291,0.00805
2546.37274,0.00799
2544.31256,0.00795
2542.25239,0.00780
2540.19222,0.00776
2538.13205,0.00795
2536.07188,0.00817
2534.01170,0.00827
2531.95153,0.00808
2529.89136,0.00775
2527.83119,0.00766
2525.77102,0.00773
2523.71084,0.00763
2521.65067,0.00748
2519.59050,0.00758
2517.53033,0.00782
2515.47015,0.00811
2513.40998,0.00822
2511.34981,0.00815
2509.28964,0.00814
2507.22947,0.00815
2505.16929,0.00821
2503.10912,0.00816
2501.04895,0.00789
2498.98878,0.00780
2496.92861,0.00790
2494.86843,0.00796
2492.80826,0.00820
2490.74809,0.00856
2488.68792,0.00855
2486.62775,0.00832
2484.56757,0.00845
2482.50740,0.00850
2480.44723,0.00833
2478.38706,0.00832
2476.32688,0.00832
2474.26671,0.00827
2472.20654,0.00833
2470.14637,0.00862
2468.08620,0.00898
2466.02602,0.00905
2463.96585,0.00892
2461.90568,0.00903
2459.84551,0.00935
2457.78534,0.00944
2455.72516,0.00937
2453.66499,0.00939
2451.60482,0.00903
2449.54465,0.00844
2447.48447,0.00842
2445.42430,0.00865
2443.36413,0.00882
2441.30396,0.00907
2439.24379,0.00911
2437.18361,0.00896
2435.12344,0.00889
2433.06327,0.00876
2431.00310,0.00846
2428.94293,0.00833
2426.88275,0.00836
2424.82258,0.00826
2422.76241,0.00804
2420.70224,0.00785
2418.64207,0.00793
2416.58189,0.00826
2414.52172,0.00843
2412.46155,0.00847
2410.40138,0.00871
2408.34120,0.00890
2406.28103,0.00870
2404.22086,0.00845
2402.16069,0.00848
2400.10052,0.00858
2398.04034,0.00833
2395.98017,0.00827
2393.92000,0.00833
2391.85983,0.00836
2389.79966,0.00836
2387.73948,0.00845
2385.67931,0.00870
2383.61914,0.00893
2381.55897,0.00898
2379.49880,0.00892
2377.43862,0.00865
2375.37845,0.00786
2373.31828,0.00737
2371.25811,0.00738
2369.19793,0.00729
2367.13776,0.00767
2365.07759,0.00832
2363.01742,0.00755
2360.95725,0.00777
2358.89707,0.00741
2356.83690,0.00741
2354.77673,0.00779
2352.71656,0.00852
2350.65639,0.01117
2348.59621,0.01271
2346.53604,0.00905
2344.47587,0.00804
2342.41570,0.00828
2340.35552,0.00806
2338.29535,0.00834
2336.23518,0.00877
2334.17501,0.00885
2332.11484,0.00851
2330.05466,0.00872
2327.99449,0.00887
2325.93432,0.00962
2323.87415,0.00968
2321.81398,0.00994
2319.75380,0.00967
2317.69363,0.00997
2315.63346,0.00993
2313.57329,0.00951
2311.51312,0.00908
2309.45294,0.00879
2307.39277,0.00888
2305.33260,0.00899
2303.27243,0.00895
2301.21225,0.00872
2299.15208,0.00853
2297.09191,0.00827
2295.03174,0.00808
2292.97157,0.00813
2290.91139,0.00825
2288.85122,0.00843
2286.79105,0.00873
2284.73088,0.00887
2282.67071,0.00868
2280.61053,0.00833
2278.55036,0.00793
2276.49019,0.00777
2274.43002,0.00813
2272.36984,0.00831
2270.30967,0.00789
2268.24950,0.00759
2266.18933,0.00770
2264.12916,0.00746
2262.06898,0.00675
2260.00881,0.00623
2257.94864,0.00633
2255.88847,0.00688
2253.82830,0.00749
2251.76812,0.00767
2249.70795,0.00714
2247.64778,0.00652
2245.58761,0.00634
2243.52744,0.00686
2241.46726,0.00758
2239.40709,0.00774
2237.34692,0.00753
2235.28675,0.00735
2233.22657,0.00743
2231.16640,0.00755
2229.10623,0.00726
2227.04606,0.00659
2224.98589,0.00606
2222.92571,0.00602
2220.86554,0.00587
2218.80537,0.00545
2216.74520,0.00545
2214.68503,0.00592
2212.62485,0.00626
2210.56468,0.00624
2208.50451,0.00605
2206.44434,0.00588
2204.38417,0.00607
2202.32399,0.00661
2200.26382,0.00700
2198.20365,0.00711
2196.14348,0.00740
2194.08330,0.00742
2192.02313,0.00670
2189.96296,0.00649
2187.90279,0.00681
2185.84262,0.00646
2183.78244,0.00585
2181.72227,0.00524
2179.66210,0.00404
2177.60193,0.00351
2175.54176,0.00453
2173.48158,0.00531
2171.42141,0.00559
2169.36124,0.00637
2167.30107,0.00637
2165.24089,0.00515
2163.18072,0.00385
2161.12055,0.00201
2159.06038,0.00037
2157.00021,0.00099
2154.94003,0.00309
2152.87986,0.00426
2150.81969,0.00379
2148.75952,0.00323
2146.69935,0.00323
2144.63917,0.00279
2142.57900,0.00214
2140.51883,0.00218
2138.45866,0.00294
2136.39849,0.00378
2134.33831,0.00391
2132.27814,0.00341
2130.21797,0.00293
2128.15780,0.00302
2126.09762,0.00390
2124.03745,0.00491
2121.97728,0.00500
2119.91711,0.00421
2117.85694,0.00372
2115.79676,0.00398
2113.73659,0.00441
2111.67642,0.00437
2109.61625,0.00406
2107.55608,0.00389
2105.49590,0.00402
2103.43573,0.00436
2101.37556,0.00439
2099.31539,0.00415
2097.25521,0.00410
2095.19504,0.00435
2093.13487,0.00439
2091.07470,0.00392
2089.01453,0.00386
2086.95435,0.00445
2084.89418,0.00479
2082.83401,0.00472
2080.77384,0.00466
2078.71367,0.00446
2076.65349,0.00411
2074.59332,0.00412
2072.53315,0.00440
2070.47298,0.00403
2068.41281,0.00321
2066.35263,0.00301
2064.29246,0.00351
2062.23229,0.00422
2060.17212,0.00455
2058.11194,0.00409
2056.05177,0.00360
2053.99160,0.00394
2051.93143,0.00448
2049.87126,0.00407
2047.81108,0.00322
2045.75091,0.00320
2043.69074,0.00382
2041.63057,0.00455
2039.57040,0.00496
2037.51022,0.00458
2035.45005,0.00402
2033.38988,0.00377
2031.32971,0.00299
2029.26954,0.00136
2027.20936,0.00036
2025.14919,0.00073
2023.08902,0.00144
2021.02885,0.00170
2018.96867,0.00191
2016.90850,0.00275
2014.84833,0.00401
2012.78816,0.00421
2010.72799,0.00269
2008.66781,0.00086
2006.60764,0.00000
2004.54747,0.00022
2002.48730,0.00101
2000.42713,0.00169
1998.36695,0.00231
1996.30678,0.00301
1994.24661,0.00361
1992.18644,0.00420
1990.12626,0.00431
1988.06609,0.00368
1986.00592,0.00345
1983.94575,0.00365
1981.88558,0.00359
1979.82540,0.00367
1977.76523,0.00399
1975.70506,0.00367
1973.64489,0.00283
1971.58472,0.00243
1969.52454,0.00284
1967.46437,0.00326
1965.40420,0.00261
1963.34403,0.00148
1961.28386,0.00090
1959.22368,0.00111
1957.16351,0.00218
1955.10334,0.00315
1953.04317,0.00297
1950.98299,0.00226
1948.92282,0.00165
1946.86265,0.00114
1944.80248,0.00093
1942.74231,0.00094
1940.68213,0.00100
1938.62196,0.00125
1936.56179,0.00187
1934.50162,0.00257
1932.44145,0.00304
1930.38127,0.00334
1928.32110,0.00331
1926.26093,0.00277
1924.20076,0.00231
1922.14059,0.00253
1920.08041,0.00298
1918.02024,0.00307
1915.96007,0.00284
1913.89990,0.00262
1911.83972,0.00249
1909.77955,0.00248
1907.71938,0.00264
1905.65921,0.00286
1903.59904,0.00298
1901.53886,0.00290
1899.47869,0.00267
1897.41852,0.00266
1895.35835,0.00276
1893.29818,0.00243
1891.23800,0.00205
1889.17783,0.00218
1887.11766,0.00240
1885.05749,0.00236
1882.99731,0.00219
1880.93714,0.00209
1878.87697,0.00226
1876.81680,0.00268
1874.75663,0.00289
1872.69645,0.00271
1870.63628,0.00255
1868.57611,0.00269
1866.51594,0.00278
1864.45577,0.00262
1862.39559,0.00260
1860.33542,0.00288
1858.27525,0.00296
1856.21508,0.00257
1854.15491,0.00202
1852.09473,0.00169
1850.03456,0.00180
1847.97439,0.00220
1845.91422,0.00255
1843.85404,0.00266
1841.79387,0.00263
1839.73370,0.00259
1837.67353,0.00257
1835.61336,0.00259
1833.55318,0.00262
1831.49301,0.00253
1829.43284,0.00246
1827.37267,0.00259
1825.31250,0.00264
1823.25232,0.00245
1821.19215,0.00228
1819.13198,0.00240
1817.07181,0.00274
1815.01163,0.00291
1812.95146,0.00275
1810.89129,0.00251
1808.83112,0.00247
1806.77095,0.00264
1804.71077,0.00286
1802.65060,0.00308
1800.59043,0.00317
1798.53026,0.00300
1796.47009,0.00282
1794.40991,0.00282
1792.34974,0.00290
1790.28957,0.00306
1788.22940,0.00339
1786.16923,0.00367
1784.10905,0.00367
1782.04888,0.00348
1779.98871,0.00332
1777.92854,0.00315
1775.86836,0.00297
1773.80819,0.00293
1771.74802,0.00306
1769.68785,0.00321
1767.62768,0.00341
1765.56750,0.00371
1763.50733,0.00399
1761.44716,0.00426
1759.38699,0.00455
1757.32682,0.00472
1755.26664,0.00471
1753.20647,0.00472
1751.14630,0.00492
1749.08613,0.00522
1747.02596,0.00546
1744.96578,0.00562
1742.90561,0.00582
1740.84544,0.00611
1738.78527,0.00632
1736.72509,0.00634
1734.66492,0.00625
1732.60475,0.00625
1730.54458,0.00634
1728.48441,0.00636
1726.42423,0.00629
1724.36406,0.00629
1722.30389,0.00644
1720.24372,0.00676
1718.18355,0.00721
1716.12337,0.00761
1714.06320,0.00768
1712.00303,0.00760
1709.94286,0.00766
1707.88268,0.00785
1705.82251,0.00806
1703.76234,0.00826
1701.70217,0.00852
1699.64200,0.00881
1697.58182,0.00908
1695.52165,0.00966
1693.46148,0.01047
1691.40131,0.01108
1689.34114,0.01145
1687.28096,0.01180
1685.22079,0.01257
1683.16062,0.01382
1681.10045,0.01472
1679.04028,0.01516
1676.98010,0.01557
1674.91993,0.01612
1672.85976,0.01666
1670.79959,0.01715
1668.73941,0.01788
1666.67924,0.01867
1664.61907,0.01926
1662.55890,0.01976
1660.49873,0.02017
1658.43855,0.02044
1656.37838,0.02062
1654.31821,0.02085
1652.25804,0.02116
1650.19787,0.02118
1648.13769,0.02104
1646.07752,0.02104
1644.01735,0.02114
1641.95718,0.02115
1639.89701,0.02101
1637.83683,0.02073
1635.77666,0.02037
1633.71649,0.02003
1631.65632,0.01966
1629.59614,0.01930
1627.53597,0.01908
1625.47580,0.01900
1623.41563,0.01884
1621.35546,0.01850
1619.29528,0.01812
1617.23511,0.01777
1615.17494,0.01748
1613.11477,0.01726
1611.05460,0.01708
1608.99442,0.01688
1606.93425,0.01668
1604.87408,0.01657
1602.81391,0.01646
1600.75373,0.01618
1598.69356,0.01573
1596.63339,0.01529
1594.57322,0.01504
1592.51305,0.01494
1590.45287,0.01477
1588.39270,0.01449
1586.33253,0.01422
1584.27236,0.01392
1582.21219,0.01357
1580.15201,0.01328
1578.09184,0.01302
1576.03167,0.01278
1573.97150,0.01268
1571.91133,0.01258
1569.85115,0.01220
1567.79098,0.01171
1565.73081,0.01138
1563.67064,0.01114
1561.61046,0.01100
1559.55029,0.01123
1557.49012,0.01153
1555.42995,0.01133
1553.36978,0.01098
1551.30960,0.01076
1549.24943,0.01055
1547.18926,0.01024
1545.12909,0.00994
1543.06892,0.00990
1541.00874,0.01001
1538.94857,0.00977
1536.88840,0.00930
1534.82823,0.00895
1532.76805,0.00866
1530.70788,0.00830
1528.64771,0.00794
1526.58754,0.00765
1524.52737,0.00749
1522.46719,0.00743
1520.40702,0.00738
1518.34685,0.00736
1516.28668,0.00722
1514.22651,0.00683
1512.16633,0.00639
1510.10616,0.00598
1508.04599,0.00551
1505.98582,0.00522
1503.92565,0.00531
1501.86547,0.00547
1499.80530,0.00557
1497.74513,0.00560
1495.68496,0.00542
1493.62478,0.00510
1491.56461,0.00474
1489.50444,0.00445
1487.44427,0.00436
1485.38410,0.00435
1483.32392,0.00432
1481.26375,0.00431
1479.20358,0.00437
1477.14341,0.00444
1475.08324,0.00449
1473.02306,0.00463
1470.96289,0.00490
1468.90272,0.00507
1466.84255,0.00515
1464.78238,0.00527
1462.72220,0.00535
1460.66203,0.00531
1458.60186,0.00534
1456.54169,0.00554
1454.48151,0.00561
1452.42134,0.00549
1450.36117,0.00539
1448.30100,0.00543
1446.24083,0.00554
1444.18065,0.00557
1442.12048,0.00547
1440.06031,0.00533
1438.00014,0.00532
1435.93997,0.00551
1433.87979,0.00572
1431.81962,0.00577
1429.75945,0.00578
1427.69928,0.00594
1425.63910,0.00618
1423.57893,0.00629
1421.51876,0.00632
1419.45859,0.00659
1417.39842,0.00705
1415.33824,0.00734
1413.27807,0.00740
1411.21790,0.00732
1409.15773,0.00719
1407.09756,0.00712
1405.03738,0.00705
1402.97721,0.00685
1400.91704,0.00660
1398.85687,0.00644
1396.79670,0.00627
1394.73652,0.00601
1392.67635,0.00573
1390.61618,0.00550
1388.55601,0.00531
1386.49583,0.00522
1384.43566,0.00524
1382.37549,0.00533
1380.31532,0.00542
1378.25515,0.00539
1376.19497,0.00520
1374.13480,0.00501
1372.07463,0.00488
1370.01446,0.00474
1367.95429,0.00461
1365.89411,0.00460
1363.83394,0.00465
1361.77377,0.00459
1359.71360,0.00442
1357.65343,0.00421
1355.59325,0.00399
1353.53308,0.00377
1351.47291,0.00356
1349.41274,0.00350
1347.35256,0.00356
1345.29239,0.00353
1343.23222,0.00337
1341.17205,0.00325
1339.11188,0.00327
1337.05170,0.00326
1334.99153,0.00316
1332.93136,0.00320
1330.87119,0.00342
1328.81102,0.00358
1326.75084,0.00356
1324.69067,0.00344
1322.63050,0.00332
1320.57033,0.00332
1318.51015,0.00342
1316.44998,0.00343
1314.38981,0.00336
1312.32964,0.00332
1310.26947,0.00333
1308.20929,0.00341
1306.14912,0.00354
1304.08895,0.00361
1302.02878,0.00361
1299.96861,0.00359
1297.90843,0.00358
1295.84826,0.00352
1293.78809,0.00344
1291.72792,0.00343
1289.66775,0.00349
1287.60757,0.00362
1285.54740,0.00381
1283.48723,0.00386
1281.42706,0.00366
1279.36688,0.00359
1277.30671,0.00380
1275.24654,0.00405
1273.18637,0.00423
1271.12620,0.00431
1269.06602,0.00428
1267.00585,0.00418
1264.94568,0.00413
1262.88551,0.00432
1260.82534,0.00467
1258.76516,0.00489
1256.70499,0.00489
1254.64482,0.00477
1252.58465,0.00466
1250.52447,0.00460
1248.46430,0.00454
1246.40413,0.00445
1244.34396,0.00438
1242.28379,0.00437
1240.22361,0.00431
1238.16344,0.00410
1236.10327,0.00394
1234.04310,0.00398
1231.98293,0.00403
1229.92275,0.00380
1227.86258,0.00339
1225.80241,0.00312
1223.74224,0.00306
1221.68207,0.00292
1219.62189,0.00258
1217.56172,0.00223
1215.50155,0.00196
1213.44138,0.00169
1211.38120,0.00140
1209.32103,0.00118
1207.26086,0.00097
1205.20069,0.00068
1203.14052,0.00044
1201.08034,0.00038
1199.02017,0.00034
1196.96000,0.00020
1194.89983,0.00010
1192.83966,0.00005
1190.77948,0.00000
1188.71931,0.00005
1186.65914,0.00024
1184.59897,0.00046
1182.53880,0.00076
1180.47862,0.00115
1178.41845,0.00153
1176.35828,0.00179
1174.29811,0.00201
1172.23793,0.00235
1170.17776,0.00277
1168.11759,0.00310
1166.05742,0.00334
1163.99725,0.00359
1161.93707,0.00390
1159.87690,0.00429
1157.81673,0.00481
1155.75656,0.00535
1153.69639,0.00585
1151.63621,0.00651
1149.57604,0.00734
1147.51587,0.00813
1145.45570,0.00891
1143.39552,0.00970
1141.33535,0.01045
1139.27518,0.01129
1137.21501,0.01228
1135.15484,0.01341
1133.09466,0.01462
1131.03449,0.01574
1128.97432,0.01683
1126.91415,0.01810
1124.85398,0.01951
1122.79380,0.02090
1120.73363,0.02235
1118.67346,0.02400
1116.61329,0.02561
1114.55312,0.02689
1112.49294,0.02801
1110.43277,0.02927
1108.37260,0.03065
1106.31243,0.03203
1104.25225,0.03346
1102.19208,0.03483
1100.13191,0.03596
1098.07174,0.03702
1096.01157,0.03809
1093.95139,0.03905
1091.89122,0.03997
1089.83105,0.04084
1087.77088,0.04165
1085.71071,0.04247
1083.65053,0.04334
1081.59036,0.04430
1079.53019,0.04525
1077.47002,0.04595
1075.40985,0.04625
1073.34967,0.04631
1071.28950,0.04648
1069.22933,0.04674
1067.16916,0.04685
1065.10898,0.04673
1063.04881,0.04652
1060.98864,0.04621
1058.92847,0.04578
1056.86830,0.04521
1054.80812,0.04427
1052.74795,0.04289
1050.68778,0.04144
1048.62761,0.04000
1046.56744,0.03846
1044.50726,0.03680
1042.44709,0.03505
1040.38692,0.03320
1038.32675,0.03136
1036.26657,0.02968
1034.20640,0.02803
1032.14623,0.02634
1030.08606,0.02473
1028.02589,0.02334
1025.96571,0.02224
1023.90554,0.02137
1021.84537,0.02059
1019.78520,0.01975
1017.72503,0.01888
1015.66485,0.01816
1013.60468,0.01790
1011.54451,0.01802
1009.48434,0.01817
1007.42417,0.01837
1005.36399,0.01877
1003.30382,0.01935
1001.24365,0.02020
999.18348,0.02136
997.12330,0.02262
995.06313,0.02377
993.00296,0.02482
990.94279,0.02576
988.88262,0.02659
986.82244,0.02736
984.76227,0.02793
982.70210,0.02816
980.64193,0.02814
978.58176,0.02781
976.52158,0.02722
974.46141,0.02661
972.40124,0.02582
970.34107,0.02453
968.28089,0.02314
966.22072,0.02192
964.16055,0.02067
962.10038,0.01938
960.04021,0.01803
957.98003,0.01657
955.91986,0.01516
953.85969,0.01393
951.79952,0.01290
949.73935,0.01181
947.67917,0.01059
945.61900,0.00971
943.55883,0.00914
941.49866,0.00835
939.43849,0.00742
937.37831,0.00684
935.31814,0.00667
933.25797,0.00642
931.19780,0.00582
929.13762,0.00520
927.07745,0.00481
925.01728,0.00440
922.95711,0.00385
920.89694,0.00340
918.83676,0.00320
916.77659,0.00310
914.71642,0.00300
912.65625,0.00291
910.59608,0.00290
908.53590,0.00294
906.47573,0.00297
904.41556,0.00303
902.35539,0.00298
900.29522,0.00283
898.23504,0.00291
896.17487,0.00317
894.11470,0.00348
892.05453,0.00392
889.99435,0.00452
887.93418,0.00510
885.87401,0.00549
883.81384,0.00583
881.75367,0.00636
879.69349,0.00707
877.63332,0.00770
875.57315,0.00813
873.51298,0.00850
871.45281,0.00891
869.39263,0.00938
867.33246,0.00989
865.27229,0.01019
863.21212,0.01010
861.15194,0.00993
859.09177,0.01009
857.03160,0.01038
854.97143,0.01051
852.91126,0.01061
850.85108,0.01059
848.79091,0.01026
846.73074,0.00967
844.67057,0.00898
842.61040,0.00859
840.55022,0.00850
838.49005,0.00849
836.42988,0.00858
834.36971,0.00833
832.30954,0.00757
830.24936,0.00686
828.18919,0.00638
826.12902,0.00598
824.06885,0.00562
822.00867,0.00528
819.94850,0.00489
817.88833,0.00441
815.82816,0.00408
813.76799,0.00395
811.70781,0.00382
809.64764,0.00383
807.58747,0.00375
805.52730,0.00330
803.46713,0.00260
801.40695,0.00210
799.34678,0.00214
797.28661,0.00237
795.22644,0.00251
793.16627,0.00269
791.10609,0.00292
789.04592,0.00305
786.98575,0.00275
784.92558,0.00217
782.86540,0.00206
780.80523,0.00246
778.74506,0.00271
776.68489,0.00252
774.62472,0.00237
772.56454,0.00262
770.50437,0.00295
768.44420,0.00309
766.38403,0.00287
764.32386,0.00243
762.26368,0.00225
760.20351,0.00213
758.14334,0.00201
756.08317,0.00216
754.02299,0.00214
751.96282,0.00208
749.90265,0.00218
747.84248,0.00189
745.78231,0.00153
743.72213,0.00146
741.66196,0.00150
739.60179,0.00179
737.54162,0.00225
735.48145,0.00259
733.42127,0.00251
731.36110,0.00186
729.30093,0.00154
727.24076,0.00196
725.18059,0.00245
723.12041,0.00290
721.06024,0.00236
719.00007,0.00249
716.93990,0.00288
714.87972,0.00310
712.81955,0.00284
710.75938,0.00215
708.69921,0.00186
706.63904,0.00217
704.57886,0.00241
702.51869,0.00219
700.45852,0.00206
698.39835,0.00249
696.33818,0.00314
694.27800,0.00355
692.21783,0.00368
690.15766,0.00347
688.09749,0.00277
686.03731,0.00197
683.97714,0.00220
681.91697,0.00376
679.85680,0.00526
677.79663,0.00590
675.73645,0.00611
673.67628,0.00661
671.61611,0.00761
669.55594,0.00425
667.49577,0.00000
665.43559,0.00805
663.37542,0.00693
661.31525,0.00452
659.25508,0.00411
657.19491,0.00463
655.13473,0.00518
653.07456,0.00565
651.01439,0.00572
648.95422,0.00464
646.89404,0.00326
644.83387,0.00260
642.77370,0.00273
640.71353,0.00258
638.65336,0.00219
636.59318,0.00231
634.53301,0.00298
632.47284,0.00349
630.41267,0.00326
628.35250,0.00246
626.29232,0.00168
624.23215,0.00139
622.17198,0.00181
620.11181,0.00210
618.05164,0.00137
615.99146,0.00071
613.93129,0.00159
611.87112,0.00299
609.81095,0.00255
607.75077,0.00086
605.69060,0.00107
603.63043,0.00196
601.57026,0.00117
599.51009,0.00000
