3996.73391,0.00043
3994.67374,0.00043
3992.61357,0.00056
3990.55339,0.00068
3988.49322,0.00052
3986.43305,0.00029
3984.37288,0.00036
3982.31271,0.00054
3980.25253,0.00053
3978.19236,0.00051
3976.13219,0.00065
3974.07202,0.00079
3972.01184,0.00089
3969.95167,0.00097
3967.89150,0.00091
3965.83133,0.00067
3963.77116,0.00052
3961.71098,0.00053
3959.65081,0.00048
3957.59064,0.00037
3955.53047,0.00040
3953.47030,0.00043
3951.41012,0.00020
3949.34995,0.00000
3947.28978,0.00020
3945.22961,0.00059
3943.16943,0.00091
3941.10926,0.00102
3939.04909,0.00087
3936.98892,0.00061
3934.92875,0.00046
3932.86857,0.00041
3930.80840,0.00038
3928.74823,0.00042
3926.68806,0.00051
3924.62789,0.00060
3922.56771,0.00074
3920.50754,0.00080
3918.44737,0.00063
3916.38720,0.00049
3914.32703,0.00059
3912.26685,0.00084
3910.20668,0.00102
3908.14651,0.00106
3906.08634,0.00112
3904.02616,0.00133
3901.96599,0.00139
3899.90582,0.00123
3897.84565,0.00120
3895.78548,0.00117
3893.72530,0.00097
3891.66513,0.00082
3889.60496,0.00082
3887.54479,0.00084
3885.48462,0.00095
3883.42444,0.00098
3881.36427,0.00087
3879.30410,0.00085
3877.24393,0.00083
3875.18376,0.00081
3873.12358,0.00102
3871.06341,0.00134
3869.00324,0.00155
3866.94307,0.00151
3864.88289,0.00131
3862.82272,0.00127
3860.76255,0.00133
3858.70238,0.00127
3856.64221,0.00113
3854.58203,0.00105
3852.52186,0.00105
3850.46169,0.00115
3848.40152,0.00130
3846.34135,0.00138
3844.28117,0.00139
3842.22100,0.00145
3840.16083,0.00161
3838.10066,0.00155
3836.04048,0.00119
3833.98031,0.00092
3831.92014,0.00084
3829.85997,0.00084
3827.79980,0.00088
3825.73962,0.00104
3823.67945,0.00119
3821.61928,0.00134
3819.55911,0.00141
3817.49894,0.00132
3815.43876,0.00121
3813.37859,0.00122
3811.31842,0.00136
3809.25825,0.00145
3807.19808,0.00123
3805.13790,0.00085
3803.07773,0.00081
3801.01756,0.00127
3798.95739,0.00158
3796.89721,0.00137
3794.83704,0.00098
3792.77687,0.00079
3790.71670,0.00090
3788.65653,0.00109
3786.59635,0.00119
3784.53618,0.00115
3782.47601,0.00095
3780.41584,0.00079
3778.35567,0.00090
3776.29549,0.00120
3774.23532,0.00142
3772.17515,0.00156
3770.11498,0.00175
3768.05481,0.00189
3765.99463,0.00179
3763.93446,0.00146
3761.87429,0.00111
3759.81412,0.00104
3757.75394,0.00124
3755.69377,0.00126
3753.63360,0.00098
3751.57343,0.00068
3749.51326,0.00042
3747.45308,0.00038
3745.39291,0.00091
3743.33274,0.00147
3741.27257,0.00117
3739.21240,0.00049
3737.15222,0.00023
3735.09205,0.00051
3733.03188,0.00103
3730.97171,0.00125
3728.91153,0.00116
3726.85136,0.00117
3724.79119,0.00127
3722.73102,0.00138
3720.67085,0.00152
3718.61067,0.00149
3716.55050,0.00124
3714.49033,0.00118
3712.43016,0.00143
3710.36999,0.00137
3708.30981,0.00104
3706.24964,0.00082
3704.18947,0.00088
3702.12930,0.00107
3700.06913,0.00107
3698.00895,0.00099
3695.94878,0.00114
3693.88861,0.00147
3691.82844,0.00158
3689.76826,0.00143
3687.70809,0.00130
3685.64792,0.00138
3683.58775,0.00150
3681.52758,0.00157
3679.46740,0.00152
3677.40723,0.00144
3675.34706,0.00163
3673.28689,0.00207
3671.22672,0.00238
3669.16654,0.00248
3667.10637,0.00241
3665.04620,0.00225
3662.98603,0.00207
3660.92586,0.00190
3658.86568,0.00177
3656.80551,0.00179
3654.74534,0.00199
3652.68517,0.00226
3650.62499,0.00278
3648.56482,0.00337
3646.50465,0.00343
3644.44448,0.00325
3642.38431,0.00322
3640.32413,0.00339
3638.26396,0.00370
3636.20379,0.00396
3634.14362,0.00398
3632.08345,0.00386
3630.02327,0.00391
3627.96310,0.00428
3625.90293,0.00471
3623.84276,0.00499
3621.78258,0.00545
3619.72241,0.00621
3617.66224,0.00681
3615.60207,0.00688
3613.54190,0.00657
3611.48172,0.00632
3609.42155,0.00644
3607.36138,0.00691
3605.30121,0.00725
3603.24104,0.00727
3601.18086,0.00745
3599.12069,0.00796
3597.06052,0.00840
3595.00035,0.00853
3592.94018,0.00862
3590.88000,0.00881
3588.81983,0.00906
3586.75966,0.00932
3584.69949,0.00960
3582.63931,0.00980
3580.57914,0.00993
3578.51897,0.00994
3576.45880,0.00991
3574.39863,0.01011
3572.33845,0.01046
3570.27828,0.01066
3568.21811,0.01092
3566.15794,0.01143
3564.09777,0.01176
3562.03759,0.01181
3559.97742,0.01194
3557.91725,0.01223
3555.85708,0.01244
3553.79690,0.01269
3551.73673,0.01314
3549.67656,0.01349
3547.61639,0.01359
3545.55622,0.01371
3543.49604,0.01391
3541.43587,0.01393
3539.37570,0.01382
3537.31553,0.01390
3535.25536,0.01424
3533.19518,0.01451
3531.13501,0.01462
3529.07484,0.01477
3527.01467,0.01511
3524.95450,0.01548
3522.89432,0.01567
3520.83415,0.01573
3518.77398,0.01596
3516.71381,0.01639
3514.65363,0.01668
3512.59346,0.01670
3510.53329,0.01660
3508.47312,0.01666
3506.41295,0.01700
3504.35277,0.01737
3502.29260,0.01753
3500.23243,0.01776
3498.17226,0.01825
3496.11209,0.01863
3494.05191,0.01866
3491.99174,0.01853
3489.93157,0.01855
3487.87140,0.01879
3485.81123,0.01905
3483.75105,0.01917
3481.69088,0.01941
3479.63071,0.01977
3477.57054,0.02003
3475.51036,0.02029
3473.45019,0.02070
3471.39002,0.02103
3469.32985,0.02110
3467.26968,0.02107
3465.20950,0.02113
3463.14933,0.02136
3461.08916,0.02164
3459.02899,0.02178
3456.96882,0.02180
3454.90864,0.02195
3452.84847,0.02233
3450.78830,0.02270
3448.72813,0.02286
3446.66795,0.02291
3444.60778,0.02306
3442.54761,0.02338
3440.48744,0.02360
3438.42727,0.02351
3436.36709,0.02352
3434.30692,0.02371
3432.24675,0.02392
3430.18658,0.02409
3428.12641,0.02420
3426.06623,0.02445
3424.00606,0.02471
3421.94589,0.02459
3419.88572,0.02436
3417.82555,0.02453
3415.76537,0.02481
3413.70520,0.02487
3411.64503,0.02483
3409.58486,0.02493
3407.52468,0.02523
3405.46451,0.02547
3403.40434,0.02547
3401.34417,0.02547
3399.28400,0.02580
3397.22382,0.02626
3395.16365,0.02657
3393.10348,0.02676
3391.04331,0.02671
3388.98314,0.02639
3386.92296,0.02625
3384.86279,0.02652
3382.80262,0.02682
3380.74245,0.02689
3378.68228,0.02686
3376.62210,0.02681
3374.56193,0.02676
3372.50176,0.02688
3370.44159,0.02712
3368.38141,0.02734
3366.32124,0.02744
3364.26107,0.02738
3362.20090,0.02727
3360.14073,0.02735
3358.08055,0.02768
3356.02038,0.02791
3353.96021,0.02794
3351.90004,0.02799
3349.83987,0.02810
3347.77969,0.02816
3345.71952,0.02826
3343.65935,0.02847
3341.59918,0.02869
3339.53900,0.02870
3337.47883,0.02870
3335.41866,0.02891
3333.35849,0.02897
3331.29832,0.02871
3329.23814,0.02851
3327.17797,0.02861
3325.11780,0.02886
3323.05763,0.02901
3320.99746,0.02905
3318.93728,0.02925
3316.87711,0.02957
3314.81694,0.02966
3312.75677,0.02952
3310.69660,0.02950
3308.63642,0.02958
3306.57625,0.02951
3304.51608,0.02944
3302.45591,0.02948
3300.39573,0.02951
3298.33556,0.02948
3296.27539,0.02949
3294.21522,0.02959
3292.15505,0.02978
3290.09487,0.02991
3288.03470,0.02993
3285.97453,0.02987
3283.91436,0.02979
3281.85419,0.02991
3279.79401,0.03022
3277.73384,0.03042
3275.67367,0.03050
3273.61350,0.03063
3271.55333,0.03066
3269.49315,0.03045
3267.43298,0.03031
3265.37281,0.03040
3263.31264,0.03059
3261.25246,0.03073
3259.19229,0.03081
3257.13212,0.03078
3255.07195,0.03069
3253.01178,0.03058
3250.95160,0.03057
3248.89143,0.03074
3246.83126,0.03102
3244.77109,0.03128
3242.71092,0.03136
3240.65074,0.03113
3238.59057,0.03077
3236.53040,0.03069
3234.47023,0.03088
3232.41005,0.03095
3230.34988,0.03087
3228.28971,0.03088
3226.22954,0.03094
3224.16937,0.03076
3222.10919,0.03058
3220.04902,0.03068
3217.98885,0.03085
3215.92868,0.03082
3213.86851,0.03078
3211.80833,0.03090
3209.74816,0.03098
3207.68799,0.03092
3205.62782,0.03087
3203.56765,0.03080
3201.50747,0.03068
3199.44730,0.03065
3197.38713,0.03079
3195.32696,0.03082
3193.26678,0.03065
3191.20661,0.03056
3189.14644,0.03050
3187.08627,0.03043
3185.02610,0.03041
3182.96592,0.03039
3180.90575,0.03033
3178.84558,0.03032
3176.78541,0.03037
3174.72524,0.03039
3172.66506,0.03043
3170.60489,0.03050
3168.54472,0.03052
3166.48455,0.03049
3164.42437,0.03037
3162.36420,0.03029
3160.30403,0.03034
3158.24386,0.03039
3156.18369,0.03034
3154.12351,0.03027
3152.06334,0.03015
3150.00317,0.03002
3147.94300,0.03009
3145.88283,0.03015
3143.82265,0.02989
3141.76248,0.02959
3139.70231,0.02953
3137.64214,0.02953
3135.58197,0.02939
3133.52179,0.02930
3131.46162,0.02947
3129.40145,0.02971
3127.34128,0.02976
3125.28110,0.02967
3123.22093,0.02948
3121.16076,0.02935
3119.10059,0.02936
3117.04042,0.02928
3114.98024,0.02907
3112.92007,0.02885
3110.85990,0.02867
3108.79973,0.02866
3106.73956,0.02870
3104.67938,0.02863
3102.61921,0.02856
3100.55904,0.02852
3098.49887,0.02846
3096.43870,0.02837
3094.37852,0.02820
3092.31835,0.02799
3090.25818,0.02785
3088.19801,0.02782
3086.13783,0.02783
3084.07766,0.02777
3082.01749,0.02761
3079.95732,0.02743
3077.89715,0.02738
3075.83697,0.02747
3073.77680,0.02749
3071.71663,0.02726
3069.65646,0.02687
3067.59629,0.02667
3065.53611,0.02666
3063.47594,0.02662
3061.41577,0.02648
3059.35560,0.02632
3057.29542,0.02622
3055.23525,0.02619
3053.17508,0.02616
3051.11491,0.02604
3049.05474,0.02586
3046.99456,0.02572
3044.93439,0.02572
3042.87422,0.02574
3040.81405,0.02568
3038.75388,0.02549
3036.69370,0.02519
3034.63353,0.02485
3032.57336,0.02457
3030.51319,0.02448
3028.45302,0.02452
3026.39284,0.02449
3024.33267,0.02446
3022.27250,0.02458
3020.21233,0.02469
3018.15215,0.02463
3016.09198,0.02433
3014.03181,0.02401
3011.97164,0.02388
3009.91147,0.02387
3007.85129,0.02372
3005.79112,0.02329
3003.73095,0.02289
3001.67078,0.02289
2999.61061,0.02311
2997.55043,0.02312
2995.49026,0.02299
2993.43009,0.02284
2991.36992,0.02271
2989.30975,0.02263
2987.24957,0.02251
2985.18940,0.02228
2983.12923,0.02213
2981.06906,0.02219
2979.00888,0.02227
2976.94871,0.02233
2974.88854,0.02231
2972.82837,0.02216
2970.76820,0.02197
2968.70802,0.02186
2966.64785,0.02178
2964.58768,0.02172
2962.52751,0.02157
2960.46734,0.02127
2958.40716,0.02103
2956.34699,0.02101
2954.28682,0.02112
2952.22665,0.02128
2950.16647,0.02133
2948.10630,0.02117
2946.04613,0.02107
2943.98596,0.02106
2941.92579,0.02093
2939.86561,0.02073
2937.80544,0.02064
2935.74527,0.02054
2933.68510,0.02034
2931.62493,0.02016
2929.56475,0.02001
2927.50458,0.01996
2925.44441,0.02004
2923.38424,0.02010
2921.32407,0.02004
2919.26389,0.02006
2917.20372,0.02007
2915.14355,0.01985
2913.08338,0.01960
2911.02320,0.01953
2908.96303,0.01955
2906.90286,0.01947
2904.84269,0.01936
2902.78252,0.01925
2900.72234,0.01912
2898.66217,0.01907
2896.60200,0.01911
2894.54183,0.01906
2892.48166,0.01891
2890.42148,0.01877
2888.36131,0.01868
2886.30114,0.01869
2884.24097,0.01864
2882.18080,0.01834
2880.12062,0.01802
2878.06045,0.01794
2876.00028,0.01795
2873.94011,0.01794
2871.87993,0.01789
2869.81976,0.01776
2867.75959,0.01763
2865.69942,0.01759
2863.63925,0.01766
2861.57907,0.01769
2859.51890,0.01753
2857.45873,0.01723
2855.39856,0.01706
2853.33839,0.01701
2851.27821,0.01693
2849.21804,0.01684
2847.15787,0.01687
2845.09770,0.01692
2843.03752,0.01676
2840.97735,0.01654
2838.91718,0.01648
2836.85701,0.01645
2834.79684,0.01642
2832.73666,0.01636
2830.67649,0.01610
2828.61632,0.01578
2826.55615,0.01566
2824.49598,0.01562
2822.43580,0.01551
2820.37563,0.01540
2818.31546,0.01542
2816.25529,0.01548
2814.19512,0.01540
2812.13494,0.01528
2810.07477,0.01528
2808.01460,0.01521
2805.95443,0.01504
2803.89425,0.01492
2801.83408,0.01490
2799.77391,0.01489
2797.71374,0.01490
2795.65357,0.01488
2793.59339,0.01479
2791.53322,0.01478
2789.47305,0.01464
2787.41288,0.01440
2785.35271,0.01436
2783.29253,0.01441
2781.23236,0.01432
2779.17219,0.01417
2777.11202,0.01409
2775.05184,0.01402
2772.99167,0.01393
2770.93150,0.01392
2768.87133,0.01399
2766.81116,0.01395
2764.75098,0.01372
2762.69081,0.01346
2760.63064,0.01339
2758.57047,0.01346
2756.51030,0.01335
2754.45012,0.01311
2752.38995,0.01306
2750.32978,0.01309
2748.26961,0.01297
2746.20944,0.01285
2744.14926,0.01283
2742.08909,0.01283
2740.02892,0.01278
2737.96875,0.01263
2735.90857,0.01249
2733.84840,0.01236
2731.78823,0.01223
2729.72806,0.01223
2727.66789,0.01239
2725.60771,0.01245
2723.54754,0.01225
2721.48737,0.01197
2719.42720,0.01187
2717.36703,0.01184
2715.30685,0.01167
2713.24668,0.01147
2711.18651,0.01147
2709.12634,0.01151
2707.06617,0.01145
2705.00599,0.01140
2702.94582,0.01134
2700.88565,0.01126
2698.82548,0.01121
2696.76530,0.01116
2694.70513,0.01111
2692.64496,0.01113
2690.58479,0.01106
2688.52462,0.01087
2686.46444,0.01071
2684.40427,0.01056
2682.34410,0.01054
2680.28393,0.01073
2678.22376,0.01087
2676.16358,0.01069
2674.10341,0.01045
2672.04324,0.01041
2669.98307,0.01045
2667.92289,0.01043
2665.86272,0.01034
2663.80255,0.01024
2661.74238,0.01021
2659.68221,0.01023
2657.62203,0.01013
2655.56186,0.00994
2653.50169,0.00978
2651.44152,0.00973
2649.38135,0.00984
2647.32117,0.00997
2645.26100,0.00990
2643.20083,0.00974
2641.14066,0.00968
2639.08049,0.00959
2637.02031,0.00937
2634.96014,0.00926
2632.89997,0.00930
2630.83980,0.00930
2628.77962,0.00921
2626.71945,0.00907
2624.65928,0.00899
2622.59911,0.00894
2620.53894,0.00889
2618.47876,0.00880
2616.41859,0.00868
2614.35842,0.00862
2612.29825,0.00850
2610.23808,0.00830
2608.17790,0.00822
2606.11773,0.00828
2604.05756,0.00829
2601.99739,0.00829
2599.93722,0.00830
2597.87704,0.00820
2595.81687,0.00803
2593.75670,0.00796
2591.69653,0.00816
2589.63635,0.00834
2587.57618,0.00819
2585.51601,0.00799
2583.45584,0.00803
2581.39567,0.00791
2579.33549,0.00766
2577.27532,0.00765
2575.21515,0.00769
2573.15498,0.00764
2571.09481,0.00771
2569.03463,0.00789
2566.97446,0.00793
2564.91429,0.00781
2562.85412,0.00772
2560.79394,0.00786
2558.73377,0.00811
2556.67360,0.00826
2554.61343,0.00814
2552.55326,0.00776
2550.49308,0.00751
2548.43291,0.00745
2546.37274,0.00745
2544.31257,0.00745
2542.25240,0.00753
2540.19222,0.00767
2538.13205,0.00775
2536.07188,0.00768
2534.01171,0.00764
2531.95154,0.00773
2529.89136,0.00777
2527.83119,0.00767
2525.77102,0.00755
2523.71085,0.00761
2521.65067,0.00787
2519.59050,0.00807
2517.53033,0.00801
2515.47016,0.00788
2513.40999,0.00780
2511.34981,0.00762
2509.28964,0.00747
2507.22947,0.00745
2505.16930,0.00757
2503.10913,0.00776
2501.04895,0.00782
2498.98878,0.00783
2496.92861,0.00809
2494.86844,0.00836
2492.80827,0.00836
2490.74809,0.00820
2488.68792,0.00795
2486.62775,0.00782
2484.56758,0.00782
2482.50740,0.00773
2480.44723,0.00769
2478.38706,0.00785
2476.32689,0.00804
2474.26672,0.00812
2472.20654,0.00808
2470.14637,0.00809
2468.08620,0.00835
2466.02603,0.00881
2463.96586,0.00895
2461.90568,0.00858
2459.84551,0.00830
2457.78534,0.00839
2455.72517,0.00850
2453.66499,0.00857
2451.60482,0.00874
2449.54465,0.00872
2447.48448,0.00847
2445.42431,0.00851
2443.36413,0.00877
2441.30396,0.00878
2439.24379,0.00859
2437.18362,0.00856
2435.12345,0.00860
2433.06327,0.00849
2431.00310,0.00837
2428.94293,0.00835
2426.88276,0.00857
2424.82259,0.00890
2422.76241,0.00882
2420.70224,0.00843
2418.64207,0.00828
2416.58190,0.00836
2414.52172,0.00843
2412.46155,0.00848
2410.40138,0.00865
2408.34121,0.00877
2406.28104,0.00858
2404.22086,0.00827
2402.16069,0.00825
2400.10052,0.00834
2398.04035,0.00818
2395.98018,0.00810
2393.92000,0.00826
2391.85983,0.00845
2389.79966,0.00851
2387.73949,0.00843
2385.67931,0.00829
2383.61914,0.00827
2381.55897,0.00836
2379.49880,0.00830
2377.43863,0.00784
2375.37845,0.00755
2373.31828,0.00764
2371.25811,0.00801
2369.19794,0.00892
2367.13777,0.00984
2365.07759,0.01049
2363.01742,0.01137
2360.95725,0.01036
2358.89708,0.00991
2356.83691,0.00983
2354.77673,0.00968
2352.71656,0.00917
2350.65639,0.00662
2348.59622,0.00529
2346.53604,0.00879
2344.47587,0.00948
2342.41570,0.00877
2340.35553,0.00857
2338.29536,0.00831
2336.23518,0.00843
2334.17501,0.00856
2332.11484,0.00856
2330.05467,0.00843
2327.99450,0.00894
2325.93432,0.00883
2323.87415,0.00892
2321.81398,0.00893
2319.75381,0.00901
2317.69364,0.00804
2315.63346,0.00771
2313.57329,0.00825
2311.51312,0.00862
2309.45295,0.00850
2307.39277,0.00814
2305.33260,0.00793
2303.27243,0.00791
2301.21226,0.00812
2299.15209,0.00814
2297.09191,0.00812
2295.03174,0.00833
2292.97157,0.00861
2290.91140,0.00883
2288.85123,0.00894
2286.79105,0.00875
2284.73088,0.00820
2282.67071,0.00764
2280.61054,0.00748
2278.55036,0.00773
2276.49019,0.00808
2274.43002,0.00817
2272.36985,0.00795
2270.30968,0.00789
2268.24950,0.00821
2266.18933,0.00830
2264.12916,0.00797
2262.06899,0.00768
2260.00882,0.00785
2257.94864,0.00813
2255.88847,0.00803
2253.82830,0.00758
2251.76813,0.00747
2249.70796,0.00776
2247.64778,0.00784
2245.58761,0.00780
2243.52744,0.00772
2241.46727,0.00742
2239.40709,0.00744
2237.34692,0.00774
2235.28675,0.00784
2233.22658,0.00794
2231.16641,0.00794
2229.10623,0.00755
2227.04606,0.00669
2224.98589,0.00626
2222.92572,0.00680
2220.86555,0.00726
2218.80537,0.00693
2216.74520,0.00622
2214.68503,0.00604
2212.62486,0.00654
2210.56469,0.00697
2208.50451,0.00686
2206.44434,0.00643
2204.38417,0.00648
2202.32400,0.00691
2200.26382,0.00684
2198.20365,0.00658
2196.14348,0.00673
2194.08331,0.00706
2192.02314,0.00760
2189.96296,0.00832
2187.90279,0.00818
2185.84262,0.00694
2183.78245,0.00594
2181.72228,0.00577
2179.66210,0.00598
2177.60193,0.00618
2175.54176,0.00605
2173.48159,0.00592
2171.42141,0.00641
2169.36124,0.00715
2167.30107,0.00728
2165.24090,0.00677
2163.18073,0.00568
2161.12055,0.00373
2159.06038,0.00262
2157.00021,0.00345
2154.94004,0.00456
2152.87987,0.00481
2150.81969,0.00417
2148.75952,0.00365
2146.69935,0.00378
2144.63918,0.00424
2142.57901,0.00476
2140.51883,0.00461
2138.45866,0.00406
2136.39849,0.00427
2134.33832,0.00467
2132.27814,0.00423
2130.21797,0.00369
2128.15780,0.00365
2126.09763,0.00399
2124.03746,0.00448
2121.97728,0.00473
2119.91711,0.00477
2117.85694,0.00486
2115.79677,0.00498
2113.73660,0.00513
2111.67642,0.00517
2109.61625,0.00505
2107.55608,0.00509
2105.49591,0.00519
2103.43573,0.00511
2101.37556,0.00487
2099.31539,0.00475
2097.25522,0.00509
2095.19505,0.00540
2093.13487,0.00537
2091.07470,0.00528
2089.01453,0.00514
2086.95436,0.00513
2084.89419,0.00520
2082.83401,0.00532
2080.77384,0.00567
2078.71367,0.00575
2076.65350,0.00508
2074.59333,0.00433
2072.53315,0.00419
2070.47298,0.00423
2068.41281,0.00406
2066.35264,0.00396
2064.29246,0.00373
2062.23229,0.00355
2060.17212,0.00428
2058.11195,0.00534
2056.05178,0.00561
2053.99160,0.00543
2051.93143,0.00514
2049.87126,0.00456
2047.81109,0.00453
2045.75092,0.00523
2043.69074,0.00568
2041.63057,0.00602
2039.57040,0.00628
2037.51023,0.00556
2035.45006,0.00429
2033.38988,0.00349
2031.32971,0.00332
2029.26954,0.00390
2027.20937,0.00447
2025.14919,0.00407
2023.08902,0.00346
2021.02885,0.00386
2018.96868,0.00458
2016.90851,0.00426
2014.84833,0.00353
2012.78816,0.00357
2010.72799,0.00415
2008.66782,0.00415
2006.60765,0.00333
2004.54747,0.00314
2002.48730,0.00361
2000.42713,0.00343
1998.36696,0.00344
1996.30678,0.00442
1994.24661,0.00523
1992.18644,0.00538
1990.12627,0.00538
1988.06610,0.00500
1986.00592,0.00401
1983.94575,0.00353
1981.88558,0.00450
1979.82541,0.00547
1977.76524,0.00485
1975.70506,0.00359
1973.64489,0.00298
1971.58472,0.00326
1969.52455,0.00379
1967.46438,0.00376
1965.40420,0.00367
1963.34403,0.00366
1961.28386,0.00329
1959.22369,0.00309
1957.16351,0.00335
1955.10334,0.00328
1953.04317,0.00266
1950.98300,0.00220
1948.92283,0.00230
1946.86265,0.00286
1944.80248,0.00347
1942.74231,0.00368
1940.68214,0.00361
1938.62197,0.00370
1936.56179,0.00373
1934.50162,0.00340
1932.44145,0.00333
1930.38128,0.00373
1928.32111,0.00386
1926.26093,0.00360
1924.20076,0.00336
1922.14059,0.00326
1920.08042,0.00327
1918.02024,0.00334
1915.96007,0.00332
1913.89990,0.00322
1911.83973,0.00328
1909.77956,0.00356
1907.71938,0.00394
1905.65921,0.00421
1903.59904,0.00433
1901.53887,0.00454
1899.47870,0.00464
1897.41852,0.00438
1895.35835,0.00396
1893.29818,0.00363
1891.23801,0.00349
1889.17783,0.00357
1887.11766,0.00382
1885.05749,0.00416
1882.99732,0.00443
1880.93715,0.00448
1878.87697,0.00432
1876.81680,0.00417
1874.75663,0.00416
1872.69646,0.00416
1870.63629,0.00403
1868.57611,0.00396
1866.51594,0.00413
1864.45577,0.00433
1862.39560,0.00440
1860.33543,0.00427
1858.27525,0.00405
1856.21508,0.00396
1854.15491,0.00392
1852.09474,0.00385
1850.03456,0.00381
1847.97439,0.00389
1845.91422,0.00386
1843.85405,0.00367
1841.79388,0.00361
1839.73370,0.00377
1837.67353,0.00395
1835.61336,0.00400
1833.55319,0.00394
1831.49302,0.00383
1829.43284,0.00382
1827.37267,0.00389
1825.31250,0.00389
1823.25233,0.00381
1821.19216,0.00377
1819.13198,0.00379
1817.07181,0.00386
1815.01164,0.00398
1812.95147,0.00411
1810.89129,0.00418
1808.83112,0.00415
1806.77095,0.00416
1804.71078,0.00429
1802.65061,0.00436
1800.59043,0.00419
1798.53026,0.00398
1796.47009,0.00408
1794.40992,0.00438
1792.34975,0.00448
1790.28957,0.00428
1788.22940,0.00412
1786.16923,0.00408
1784.10906,0.00408
1782.04888,0.00413
1779.98871,0.00426
1777.92854,0.00436
1775.86837,0.00442
1773.80820,0.00448
1771.74802,0.00446
1769.68785,0.00429
1767.62768,0.00429
1765.56751,0.00463
1763.50734,0.00491
1761.44716,0.00483
1759.38699,0.00460
1757.32682,0.00460
1755.26665,0.00476
1753.20648,0.00493
1751.14630,0.00500
1749.08613,0.00502
1747.02596,0.00510
1744.96579,0.00525
1742.90561,0.00546
1740.84544,0.00566
1738.78527,0.00567
1736.72510,0.00547
1734.66493,0.00537
1732.60475,0.00556
1730.54458,0.00580
1728.48441,0.00591
1726.42424,0.00600
1724.36407,0.00618
1722.30389,0.00639
1720.24372,0.00651
1718.18355,0.00648
1716.12338,0.00635
1714.06320,0.00631
1712.00303,0.00646
1709.94286,0.00671
1707.88269,0.00699
1705.82252,0.00725
1703.76234,0.00748
1701.70217,0.00769
1699.64200,0.00782
1697.58183,0.00797
1695.52166,0.00838
1693.46148,0.00889
1691.40131,0.00931
1689.34114,0.00977
1687.28097,0.01040
1685.22080,0.01114
1683.16062,0.01166
1681.10045,0.01181
1679.04028,0.01196
1676.98011,0.01223
1674.91993,0.01250
1672.85976,0.01279
1670.79959,0.01330
1668.73942,0.01389
1666.67925,0.01436
1664.61907,0.01476
1662.55890,0.01507
1660.49873,0.01522
1658.43856,0.01538
1656.37839,0.01567
1654.31821,0.01608
1652.25804,0.01644
1650.19787,0.01660
1648.13770,0.01671
1646.07753,0.01666
1644.01735,0.01635
1641.95718,0.01605
1639.89701,0.01591
1637.83684,0.01575
1635.77666,0.01533
1633.71649,0.01491
1631.65632,0.01479
1629.59615,0.01474
1627.53598,0.01454
1625.47580,0.01432
1623.41563,0.01417
1621.35546,0.01405
1619.29529,0.01398
1617.23512,0.01398
1615.17494,0.01383
1613.11477,0.01358
1611.05460,0.01340
1608.99443,0.01325
1606.93425,0.01310
1604.87408,0.01297
1602.81391,0.01280
1600.75374,0.01254
1598.69357,0.01231
1596.63339,0.01213
1594.57322,0.01192
1592.51305,0.01165
1590.45288,0.01132
1588.39271,0.01110
1586.33253,0.01101
1584.27236,0.01093
1582.21219,0.01080
1580.15202,0.01071
1578.09185,0.01065
1576.03167,0.01048
1573.97150,0.01018
1571.91133,0.00993
1569.85116,0.00975
1567.79098,0.00961
1565.73081,0.00958
1563.67064,0.00963
1561.61047,0.00969
1559.55030,0.00973
1557.49012,0.00958
1555.42995,0.00927
1553.36978,0.00901
1551.30961,0.00882
1549.24944,0.00865
1547.18926,0.00858
1545.12909,0.00868
1543.06892,0.00896
1541.00875,0.00913
1538.94858,0.00886
1536.88840,0.00848
1534.82823,0.00824
1532.76806,0.00803
1530.70789,0.00787
1528.64771,0.00774
1526.58754,0.00762
1524.52737,0.00754
1522.46720,0.00738
1520.40703,0.00713
1518.34685,0.00702
1516.28668,0.00703
1514.22651,0.00692
1512.16634,0.00671
1510.10617,0.00648
1508.04599,0.00630
1505.98582,0.00622
1503.92565,0.00616
1501.86548,0.00606
1499.80530,0.00603
1497.74513,0.00608
1495.68496,0.00604
1493.62479,0.00598
1491.56462,0.00587
1489.50444,0.00555
1487.44427,0.00511
1485.38410,0.00491
1483.32393,0.00498
1481.26376,0.00518
1479.20358,0.00525
1477.14341,0.00511
1475.08324,0.00491
1473.02307,0.00487
1470.96290,0.00506
1468.90272,0.00524
1466.84255,0.00537
1464.78238,0.00550
1462.72221,0.00558
1460.66203,0.00555
1458.60186,0.00548
1456.54169,0.00546
1454.48152,0.00553
1452.42135,0.00567
1450.36117,0.00577
1448.30100,0.00577
1446.24083,0.00570
1444.18066,0.00563
1442.12049,0.00559
1440.06031,0.00561
1438.00014,0.00561
1435.93997,0.00553
1433.87980,0.00547
1431.81963,0.00551
1429.75945,0.00566
1427.69928,0.00585
1425.63911,0.00597
1423.57894,0.00591
1421.51876,0.00584
1419.45859,0.00588
1417.39842,0.00598
1415.33825,0.00604
1413.27808,0.00604
1411.21790,0.00601
1409.15773,0.00596
1407.09756,0.00590
1405.03739,0.00587
1402.97722,0.00588
1400.91704,0.00584
1398.85687,0.00569
1396.79670,0.00547
1394.73653,0.00532
1392.67635,0.00524
1390.61618,0.00520
1388.55601,0.00516
1386.49584,0.00514
1384.43567,0.00517
1382.37549,0.00520
1380.31532,0.00516
1378.25515,0.00510
1376.19498,0.00503
1374.13481,0.00491
1372.07463,0.00481
1370.01446,0.00480
1367.95429,0.00484
1365.89412,0.00481
1363.83395,0.00467
1361.77377,0.00459
1359.71360,0.00462
1357.65343,0.00465
1355.59326,0.00461
1353.53308,0.00456
1351.47291,0.00453
1349.41274,0.00446
1347.35257,0.00439
1345.29240,0.00437
1343.23222,0.00437
1341.17205,0.00431
1339.11188,0.00423
1337.05171,0.00421
1334.99154,0.00425
1332.93136,0.00429
1330.87119,0.00429
1328.81102,0.00430
1326.75085,0.00435
1324.69067,0.00441
1322.63050,0.00448
1320.57033,0.00455
1318.51016,0.00455
1316.44999,0.00450
1314.38981,0.00446
1312.32964,0.00448
1310.26947,0.00454
1308.20930,0.00459
1306.14913,0.00461
1304.08895,0.00467
1302.02878,0.00479
1299.96861,0.00489
1297.90844,0.00489
1295.84827,0.00491
1293.78809,0.00507
1291.72792,0.00524
1289.66775,0.00532
1287.60758,0.00535
1285.54740,0.00537
1283.48723,0.00527
1281.42706,0.00513
1279.36689,0.00512
1277.30672,0.00524
1275.24654,0.00541
1273.18637,0.00556
1271.12620,0.00563
1269.06603,0.00553
1267.00586,0.00530
1264.94568,0.00513
1262.88551,0.00519
1260.82534,0.00532
1258.76517,0.00535
1256.70500,0.00534
1254.64482,0.00538
1252.58465,0.00544
1250.52448,0.00545
1248.46431,0.00545
1246.40413,0.00539
1244.34396,0.00524
1242.28379,0.00507
1240.22362,0.00500
1238.16345,0.00496
1236.10327,0.00496
1234.04310,0.00499
1231.98293,0.00494
1229.92276,0.00482
1227.86259,0.00467
1225.80241,0.00449
1223.74224,0.00430
1221.68207,0.00415
1219.62190,0.00397
1217.56172,0.00378
1215.50155,0.00358
1213.44138,0.00342
1211.38121,0.00343
1209.32104,0.00347
1207.26086,0.00333
1205.20069,0.00312
1203.14052,0.00303
1201.08035,0.00300
1199.02018,0.00300
1196.96000,0.00289
1194.89983,0.00276
1192.83966,0.00274
1190.77949,0.00282
1188.71932,0.00295
1186.65914,0.00299
1184.59897,0.00288
1182.53880,0.00277
1180.47863,0.00273
1178.41845,0.00287
1176.35828,0.00311
1174.29811,0.00330
1172.23794,0.00351
1170.17777,0.00378
1168.11759,0.00401
1166.05742,0.00419
1163.99725,0.00444
1161.93708,0.00483
1159.87691,0.00533
1157.81673,0.00584
1155.75656,0.00625
1153.69639,0.00662
1151.63622,0.00709
1149.57605,0.00771
1147.51587,0.00839
1145.45570,0.00915
1143.39553,0.00997
1141.33536,0.01073
1139.27518,0.01150
1137.21501,0.01239
1135.15484,0.01331
1133.09467,0.01420
1131.03450,0.01512
1128.97432,0.01622
1126.91415,0.01742
1124.85398,0.01856
1122.79381,0.01970
1120.73364,0.02085
1118.67346,0.02196
1116.61329,0.02303
1114.55312,0.02419
1112.49295,0.02541
1110.43277,0.02658
1108.37260,0.02771
1106.31243,0.02875
1104.25226,0.02968
1102.19209,0.03070
1100.13191,0.03180
1098.07174,0.03285
1096.01157,0.03381
1093.95140,0.03453
1091.89123,0.03506
1089.83105,0.03569
1087.77088,0.03652
1085.71071,0.03740
1083.65054,0.03819
1081.59037,0.03892
1079.53019,0.03969
1077.47002,0.04047
1075.40985,0.04111
1073.34968,0.04155
1071.28950,0.04189
1069.22933,0.04219
1067.16916,0.04228
1065.10899,0.04218
1063.04882,0.04211
1060.98864,0.04189
1058.92847,0.04138
1056.86830,0.04073
1054.80813,0.03991
1052.74796,0.03879
1050.68778,0.03753
1048.62761,0.03621
1046.56744,0.03472
1044.50727,0.03318
1042.44710,0.03166
1040.38692,0.03013
1038.32675,0.02858
1036.26658,0.02704
1034.20641,0.02556
1032.14623,0.02415
1030.08606,0.02280
1028.02589,0.02162
1025.96572,0.02053
1023.90555,0.01946
1021.84537,0.01863
1019.78520,0.01801
1017.72503,0.01743
1015.66486,0.01702
1013.60469,0.01692
1011.54451,0.01703
1009.48434,0.01717
1007.42417,0.01741
1005.36400,0.01798
1003.30382,0.01885
1001.24365,0.01972
999.18348,0.02045
997.12331,0.02128
995.06314,0.02246
993.00296,0.02367
990.94279,0.02471
988.88262,0.02566
986.82245,0.02647
984.76228,0.02716
982.70210,0.02782
980.64193,0.02827
978.58176,0.02829
976.52159,0.02814
974.46142,0.02800
972.40124,0.02777
970.34107,0.02722
968.28090,0.02628
966.22073,0.02527
964.16055,0.02435
962.10038,0.02345
960.04021,0.02254
957.98004,0.02151
955.91987,0.02043
953.85969,0.01952
951.79952,0.01869
949.73935,0.01780
947.67918,0.01687
945.61901,0.01591
943.55883,0.01507
941.49866,0.01448
939.43849,0.01391
937.37832,0.01335
935.31814,0.01293
933.25797,0.01234
931.19780,0.01170
929.13763,0.01128
927.07746,0.01102
925.01728,0.01093
922.95711,0.01099
920.89694,0.01096
918.83677,0.01065
916.77660,0.01009
914.71642,0.00962
912.65625,0.00942
910.59608,0.00943
908.53591,0.00952
906.47574,0.00963
904.41556,0.00983
902.35539,0.01004
900.29522,0.01014
898.23505,0.01032
896.17487,0.01063
894.11470,0.01094
892.05453,0.01116
889.99436,0.01148
887.93419,0.01203
885.87401,0.01251
883.81384,0.01278
881.75367,0.01328
879.69350,0.01405
877.63333,0.01466
875.57315,0.01522
873.51298,0.01593
871.45281,0.01650
869.39264,0.01687
867.33247,0.01717
865.27229,0.01738
863.21212,0.01752
861.15195,0.01751
859.09178,0.01757
857.03160,0.01782
854.97143,0.01796
852.91126,0.01796
850.85109,0.01788
848.79092,0.01744
846.73074,0.01693
844.67057,0.01662
842.61040,0.01600
840.55023,0.01521
838.49006,0.01463
836.42988,0.01420
834.36971,0.01377
832.30954,0.01296
830.24937,0.01198
828.18919,0.01131
826.12902,0.01085
824.06885,0.01056
822.00868,0.01037
819.94851,0.00992
817.88833,0.00936
815.82816,0.00885
813.76799,0.00836
811.70782,0.00799
809.64765,0.00793
807.58747,0.00798
805.52730,0.00793
803.46713,0.00772
801.40696,0.00739
799.34679,0.00731
797.28661,0.00743
795.22644,0.00743
793.16627,0.00730
791.10610,0.00720
789.04592,0.00739
786.98575,0.00766
784.92558,0.00754
782.86541,0.00724
780.80524,0.00728
778.74506,0.00752
776.68489,0.00762
774.62472,0.00759
772.56455,0.00757
770.50438,0.00765
768.44420,0.00766
766.38403,0.00741
764.32386,0.00711
762.26369,0.00704
760.20352,0.00734
758.14334,0.00785
756.08317,0.00819
754.02300,0.00823
751.96283,0.00822
749.90265,0.00812
747.84248,0.00786
745.78231,0.00782
743.72214,0.00797
741.66197,0.00786
739.60179,0.00788
737.54162,0.00815
735.48145,0.00809
733.42128,0.00790
731.36111,0.00786
729.30093,0.00766
727.24076,0.00737
725.18059,0.00730
723.12042,0.00717
721.06024,0.00743
719.00007,0.00702
716.93990,0.00669
714.87973,0.00679
712.81956,0.00688
710.75938,0.00681
708.69921,0.00666
706.63904,0.00675
704.57887,0.00712
702.51870,0.00741
700.45852,0.00740
698.39835,0.00721
696.33818,0.00688
694.27801,0.00645
692.21784,0.00631
690.15766,0.00639
688.09749,0.00614
686.03732,0.00578
683.97715,0.00600
681.91697,0.00665
679.85680,0.00733
677.79663,0.00820
675.73646,0.00868
673.67629,0.00700
671.61611,0.00361
669.55594,0.00623
667.49577,0.01097
665.43560,0.00418
663.37543,0.00485
661.31525,0.00623
659.25508,0.00635
657.19491,0.00653
655.13474,0.00668
653.07457,0.00659
651.01439,0.00657
648.95422,0.00627
646.89405,0.00502
644.83388,0.00419
642.77370,0.00456
640.71353,0.00556
638.65336,0.00586
636.59319,0.00542
634.53302,0.00528
632.47284,0.00517
630.41267,0.00461
628.35250,0.00416
626.29233,0.00376
624.23216,0.00359
622.17198,0.00384
620.11181,0.00302
618.05164,0.00234
615.99147,0.00331
613.93129,0.00352
611.87112,0.00169
609.81095,0.00000
607.75078,-0.00055
605.69061,-0.00002
603.63043,0.00002
601.57026,-0.00010
599.51009,0.00000
