3996.73391,0.00104
3994.67374,0.00103
3992.61357,0.00103
3990.55339,0.00104
3988.49322,0.00092
3986.43305,0.00070
3984.37288,0.00064
3982.31271,0.00067
3980.25253,0.00062
3978.19236,0.00064
3976.13219,0.00083
3974.07202,0.00104
3972.01184,0.00108
3969.95167,0.00083
3967.89150,0.00053
3965.83133,0.00050
3963.77116,0.00065
3961.71098,0.00068
3959.65081,0.00056
3957.59064,0.00048
3955.53047,0.00055
3953.47030,0.00052
3951.41012,0.00021
3949.34995,0.00000
3947.28978,0.00024
3945.22961,0.00063
3943.16943,0.00086
3941.10926,0.00093
3939.04909,0.00077
3936.98892,0.00061
3934.92875,0.00074
3932.86857,0.00090
3930.80840,0.00080
3928.74823,0.00068
3926.68806,0.00069
3924.62789,0.00076
3922.56771,0.00085
3920.50754,0.00081
3918.44737,0.00065
3916.38720,0.00065
3914.32703,0.00091
3912.26685,0.00118
3910.20668,0.00131
3908.14651,0.00131
3906.08634,0.00132
3904.02616,0.00148
3901.96599,0.00160
3899.90582,0.00151
3897.84565,0.00137
3895.78548,0.00131
3893.72530,0.00115
3891.66513,0.00087
3889.60496,0.00065
3887.54479,0.00053
3885.48462,0.00052
3883.42444,0.00065
3881.36427,0.00081
3879.30410,0.00081
3877.24393,0.00059
3875.18376,0.00041
3873.12358,0.00054
3871.06341,0.00078
3869.00324,0.00082
3866.94307,0.00083
3864.88289,0.00092
3862.82272,0.00087
3860.76255,0.00067
3858.70238,0.00064
3856.64221,0.00091
3854.58203,0.00119
3852.52186,0.00109
3850.46169,0.00088
3848.40152,0.00092
3846.34135,0.00102
3844.28117,0.00098
3842.22100,0.00088
3840.16083,0.00090
3838.10066,0.00091
3836.04048,0.00092
3833.98031,0.00098
3831.92014,0.00089
3829.85997,0.00070
3827.79980,0.00071
3825.73962,0.00100
3823.67945,0.00138
3821.61928,0.00153
3819.55911,0.00126
3817.49894,0.00098
3815.43876,0.00092
3813.37859,0.00084
3811.31842,0.00067
3809.25825,0.00063
3807.19808,0.00064
3805.13790,0.00053
3803.07773,0.00062
3801.01756,0.00106
3798.95739,0.00139
3796.89721,0.00130
3794.83704,0.00103
3792.77687,0.00082
3790.71670,0.00063
3788.65653,0.00056
3786.59635,0.00068
3784.53618,0.00074
3782.47601,0.00060
3780.41584,0.00047
3778.35567,0.00048
3776.29549,0.00059
3774.23532,0.00082
3772.17515,0.00121
3770.11498,0.00155
3768.05481,0.00161
3765.99463,0.00151
3763.93446,0.00132
3761.87429,0.00106
3759.81412,0.00097
3757.75394,0.00112
3755.69377,0.00109
3753.63360,0.00072
3751.57343,0.00044
3749.51326,0.00057
3747.45308,0.00098
3745.39291,0.00146
3743.33274,0.00153
3741.27257,0.00093
3739.21240,0.00028
3737.15222,0.00007
3735.09205,0.00026
3733.03188,0.00068
3730.97171,0.00096
3728.91153,0.00094
3726.85136,0.00087
3724.79119,0.00087
3722.73102,0.00093
3720.67085,0.00111
3718.61067,0.00121
3716.55050,0.00113
3714.49033,0.00106
3712.43016,0.00110
3710.36999,0.00113
3708.30981,0.00106
3706.24964,0.00096
3704.18947,0.00089
3702.12930,0.00090
3700.06913,0.00096
3698.00895,0.00099
3695.94878,0.00108
3693.88861,0.00126
3691.82844,0.00146
3689.76826,0.00145
3687.70809,0.00132
3685.64792,0.00138
3683.58775,0.00156
3681.52758,0.00166
3679.46740,0.00150
3677.40723,0.00113
3675.34706,0.00107
3673.28689,0.00160
3671.22672,0.00217
3669.16654,0.00250
3667.10637,0.00262
3665.04620,0.00257
3662.98603,0.00238
3660.92586,0.00215
3658.86568,0.00198
3656.80551,0.00205
3654.74534,0.00236
3652.68517,0.00260
3650.62499,0.00275
3648.56482,0.00314
3646.50465,0.00367
3644.44448,0.00395
3642.38431,0.00410
3640.32413,0.00424
3638.26396,0.00441
3636.20379,0.00463
3634.14362,0.00489
3632.08345,0.00521
3630.02327,0.00557
3627.96310,0.00582
3625.90293,0.00588
3623.84276,0.00594
3621.78258,0.00616
3619.72241,0.00664
3617.66224,0.00733
3615.60207,0.00788
3613.54190,0.00800
3611.48172,0.00781
3609.42155,0.00790
3607.36138,0.00846
3605.30121,0.00891
3603.24104,0.00909
3601.18086,0.00940
3599.12069,0.00985
3597.06052,0.01007
3595.00035,0.01016
3592.94018,0.01041
3590.88000,0.01078
3588.81983,0.01114
3586.75966,0.01168
3584.69949,0.01231
3582.63931,0.01264
3580.57914,0.01262
3578.51897,0.01260
3576.45880,0.01298
3574.39863,0.01369
3572.33845,0.01418
3570.27828,0.01416
3568.21811,0.01398
3566.15794,0.01417
3564.09777,0.01470
3562.03759,0.01518
3559.97742,0.01562
3557.91725,0.01605
3555.85708,0.01636
3553.79690,0.01665
3551.73673,0.01702
3549.67656,0.01735
3547.61639,0.01763
3545.55622,0.01791
3543.49604,0.01796
3541.43587,0.01775
3539.37570,0.01762
3537.31553,0.01784
3535.25536,0.01835
3533.19518,0.01890
3531.13501,0.01929
3529.07484,0.01957
3527.01467,0.01993
3524.95450,0.02038
3522.89432,0.02066
3520.83415,0.02067
3518.77398,0.02077
3516.71381,0.02117
3514.65363,0.02159
3512.59346,0.02180
3510.53329,0.02187
3508.47312,0.02205
3506.41295,0.02242
3504.35277,0.02283
3502.29260,0.02310
3500.23243,0.02344
3498.17226,0.02399
3496.11209,0.02444
3494.05191,0.02453
3491.99174,0.02454
3489.93157,0.02475
3487.87140,0.02512
3485.81123,0.02542
3483.75105,0.02567
3481.69088,0.02592
3479.63071,0.02602
3477.57054,0.02603
3475.51036,0.02630
3473.45019,0.02679
3471.39002,0.02717
3469.32985,0.02740
3467.26968,0.02759
3465.20950,0.02766
3463.14933,0.02770
3461.08916,0.02796
3459.02899,0.02835
3456.96882,0.02861
3454.90864,0.02887
3452.84847,0.02940
3450.78830,0.02988
3448.72813,0.02989
3446.66795,0.02976
3444.60778,0.02986
3442.54761,0.03011
3440.48744,0.03034
3438.42727,0.03054
3436.36709,0.03087
3434.30692,0.03122
3432.24675,0.03119
3430.18658,0.03087
3428.12641,0.03086
3426.06623,0.03137
3424.00606,0.03184
3421.94589,0.03188
3419.88572,0.03197
3417.82555,0.03233
3415.76537,0.03260
3413.70520,0.03271
3411.64503,0.03281
3409.58486,0.03295
3407.52468,0.03325
3405.46451,0.03362
3403.40434,0.03383
3401.34417,0.03388
3399.28400,0.03395
3397.22382,0.03416
3395.16365,0.03443
3393.10348,0.03469
3391.04331,0.03483
3388.98314,0.03480
3386.92296,0.03475
3384.86279,0.03487
3382.80262,0.03510
3380.74245,0.03526
3378.68228,0.03534
3376.62210,0.03537
3374.56193,0.03547
3372.50176,0.03567
3370.44159,0.03591
3368.38141,0.03616
3366.32124,0.03622
3364.26107,0.03596
3362.20090,0.03578
3360.14073,0.03601
3358.08055,0.03637
3356.02038,0.03661
3353.96021,0.03664
3351.90004,0.03648
3349.83987,0.03630
3347.77969,0.03632
3345.71952,0.03669
3343.65935,0.03730
3341.59918,0.03770
3339.53900,0.03770
3337.47883,0.03759
3335.41866,0.03749
3333.35849,0.03728
3331.29832,0.03711
3329.23814,0.03717
3327.17797,0.03739
3325.11780,0.03770
3323.05763,0.03791
3320.99746,0.03794
3318.93728,0.03800
3316.87711,0.03813
3314.81694,0.03828
3312.75677,0.03851
3310.69660,0.03882
3308.63642,0.03886
3306.57625,0.03862
3304.51608,0.03859
3302.45591,0.03885
3300.39573,0.03899
3298.33556,0.03894
3296.27539,0.03887
3294.21522,0.03891
3292.15505,0.03910
3290.09487,0.03918
3288.03470,0.03903
3285.97453,0.03884
3283.91436,0.03884
3281.85419,0.03917
3279.79401,0.03954
3277.73384,0.03961
3275.67367,0.03950
3273.61350,0.03962
3271.55333,0.03981
3269.49315,0.03963
3267.43298,0.03935
3265.37281,0.03940
3263.31264,0.03959
3261.25246,0.03958
3259.19229,0.03935
3257.13212,0.03925
3255.07195,0.03937
3253.01178,0.03953
3250.95160,0.03961
3248.89143,0.03968
3246.83126,0.03970
3244.77109,0.03969
3242.71092,0.03981
3240.65074,0.03988
3238.59057,0.03973
3236.53040,0.03960
3234.47023,0.03961
3232.41005,0.03960
3230.34988,0.03950
3228.28971,0.03946
3226.22954,0.03951
3224.16937,0.03937
3222.10919,0.03924
3220.04902,0.03944
3217.98885,0.03963
3215.92868,0.03956
3213.86851,0.03945
3211.80833,0.03946
3209.74816,0.03950
3207.68799,0.03945
3205.62782,0.03939
3203.56765,0.03939
3201.50747,0.03937
3199.44730,0.03939
3197.38713,0.03945
3195.32696,0.03928
3193.26678,0.03889
3191.20661,0.03862
3189.14644,0.03850
3187.08627,0.03836
3185.02610,0.03835
3182.96592,0.03863
3180.90575,0.03883
3178.84558,0.03868
3176.78541,0.03848
3174.72524,0.03833
3172.66506,0.03823
3170.60489,0.03832
3168.54472,0.03845
3166.48455,0.03844
3164.42437,0.03827
3162.36420,0.03810
3160.30403,0.03814
3158.24386,0.03821
3156.18369,0.03809
3154.12351,0.03798
3152.06334,0.03789
3150.00317,0.03773
3147.94300,0.03760
3145.88283,0.03742
3143.82265,0.03709
3141.76248,0.03676
3139.70231,0.03658
3137.64214,0.03655
3135.58197,0.03656
3133.52179,0.03648
3131.46162,0.03641
3129.40145,0.03645
3127.34128,0.03648
3125.28110,0.03642
3123.22093,0.03627
3121.16076,0.03610
3119.10059,0.03604
3117.04042,0.03601
3114.98024,0.03588
3112.92007,0.03565
3110.85990,0.03550
3108.79973,0.03551
3106.73956,0.03551
3104.67938,0.03528
3102.61921,0.03492
3100.55904,0.03474
3098.49887,0.03480
3096.43870,0.03476
3094.37852,0.03450
3092.31835,0.03429
3090.25818,0.03430
3088.19801,0.03440
3086.13783,0.03437
3084.07766,0.03421
3082.01749,0.03410
3079.95732,0.03399
3077.89715,0.03372
3075.83697,0.03344
3073.77680,0.03332
3071.71663,0.03323
3069.65646,0.03295
3067.59629,0.03261
3065.53611,0.03245
3063.47594,0.03241
3061.41577,0.03237
3059.35560,0.03239
3057.29542,0.03245
3055.23525,0.03236
3053.17508,0.03207
3051.11491,0.03169
3049.05474,0.03139
3046.99456,0.03117
3044.93439,0.03092
3042.87422,0.03066
3040.81405,0.03050
3038.75388,0.03048
3036.69370,0.03046
3034.63353,0.03027
3032.57336,0.03003
3030.51319,0.02997
3028.45302,0.02984
3026.39284,0.02954
3024.33267,0.02946
3022.27250,0.02957
3020.21233,0.02957
3018.15215,0.02944
3016.09198,0.02915
3014.03181,0.02882
3011.97164,0.02862
3009.91147,0.02857
3007.85129,0.02851
3005.79112,0.02830
3003.73095,0.02807
3001.67078,0.02792
2999.61061,0.02781
2997.55043,0.02762
2995.49026,0.02748
2993.43009,0.02750
2991.36992,0.02748
2989.30975,0.02726
2987.24957,0.02702
2985.18940,0.02697
2983.12923,0.02712
2981.06906,0.02727
2979.00888,0.02733
2976.94871,0.02737
2974.88854,0.02724
2972.82837,0.02693
2970.76820,0.02679
2968.70802,0.02688
2966.64785,0.02677
2964.58768,0.02651
2962.52751,0.02636
2960.46734,0.02639
2958.40716,0.02654
2956.34699,0.02659
2954.28682,0.02643
2952.22665,0.02625
2950.16647,0.02621
2948.10630,0.02624
2946.04613,0.02633
2943.98596,0.02641
2941.92579,0.02632
2939.86561,0.02618
2937.80544,0.02604
2935.74527,0.02591
2933.68510,0.02589
2931.62493,0.02584
2929.56475,0.02560
2927.50458,0.02543
2925.44441,0.02541
2923.38424,0.02522
2921.32407,0.02500
2919.26389,0.02504
2917.20372,0.02512
2915.14355,0.02492
2913.08338,0.02460
2911.02320,0.02445
2908.96303,0.02422
2906.90286,0.02389
2904.84269,0.02376
2902.78252,0.02365
2900.72234,0.02340
2898.66217,0.02324
2896.60200,0.02328
2894.54183,0.02333
2892.48166,0.02323
2890.42148,0.02306
2888.36131,0.02298
2886.30114,0.02301
2884.24097,0.02290
2882.18080,0.02246
2880.12062,0.02207
2878.06045,0.02213
2876.00028,0.02235
2873.94011,0.02238
2871.87993,0.02220
2869.81976,0.02188
2867.75959,0.02166
2865.69942,0.02165
2863.63925,0.02161
2861.57907,0.02143
2859.51890,0.02123
2857.45873,0.02098
2855.39856,0.02075
2853.33839,0.02064
2851.27821,0.02045
2849.21804,0.02021
2847.15787,0.02003
2845.09770,0.01983
2843.03752,0.01953
2840.97735,0.01925
2838.91718,0.01912
2836.85701,0.01903
2834.79684,0.01891
2832.73666,0.01882
2830.67649,0.01877
2828.61632,0.01863
2826.55615,0.01849
2824.49598,0.01843
2822.43580,0.01825
2820.37563,0.01792
2818.31546,0.01774
2816.25529,0.01773
2814.19512,0.01755
2812.13494,0.01727
2810.07477,0.01718
2808.01460,0.01720
2805.95443,0.01710
2803.89425,0.01690
2801.83408,0.01683
2799.77391,0.01687
2797.71374,0.01686
2795.65357,0.01688
2793.59339,0.01694
2791.53322,0.01685
2789.47305,0.01656
2787.41288,0.01621
2785.35271,0.01598
2783.29253,0.01590
2781.23236,0.01594
2779.17219,0.01598
2777.11202,0.01595
2775.05184,0.01581
2772.99167,0.01561
2770.93150,0.01548
2768.87133,0.01544
2766.81116,0.01538
2764.75098,0.01521
2762.69081,0.01491
2760.63064,0.01476
2758.57047,0.01479
2756.51030,0.01469
2754.45012,0.01451
2752.38995,0.01447
2750.32978,0.01440
2748.26961,0.01418
2746.20944,0.01409
2744.14926,0.01413
2742.08909,0.01403
2740.02892,0.01387
2737.96875,0.01383
2735.90857,0.01380
2733.84840,0.01368
2731.78823,0.01352
2729.72806,0.01336
2727.66789,0.01340
2725.60771,0.01354
2723.54754,0.01340
2721.48737,0.01310
2719.42720,0.01302
2717.36703,0.01304
2715.30685,0.01294
2713.24668,0.01271
2711.18651,0.01248
2709.12634,0.01230
2707.06617,0.01216
2705.00599,0.01207
2702.94582,0.01201
2700.88565,0.01197
2698.82548,0.01205
2696.76530,0.01215
2694.70513,0.01212
2692.64496,0.01198
2690.58479,0.01179
2688.52462,0.01164
2686.46444,0.01153
2684.40427,0.01137
2682.34410,0.01129
2680.28393,0.01133
2678.22376,0.01131
2676.16358,0.01115
2674.10341,0.01097
2672.04324,0.01086
2669.98307,0.01080
2667.92289,0.01078
2665.86272,0.01080
2663.80255,0.01078
2661.74238,0.01072
2659.68221,0.01063
2657.62203,0.01049
2655.56186,0.01033
2653.50169,0.01017
2651.44152,0.01009
2649.38135,0.01021
2647.32117,0.01035
2645.26100,0.01019
2643.20083,0.00984
2641.14066,0.00965
2639.08049,0.00959
2637.02031,0.00952
2634.96014,0.00946
2632.89997,0.00943
2630.83980,0.00944
2628.77962,0.00941
2626.71945,0.00923
2624.65928,0.00912
2622.59911,0.00910
2620.53894,0.00895
2618.47876,0.00880
2616.41859,0.00882
2614.35842,0.00889
2612.29825,0.00887
2610.23808,0.00879
2608.17790,0.00863
2606.11773,0.00849
2604.05756,0.00845
2601.99739,0.00846
2599.93722,0.00834
2597.87704,0.00807
2595.81687,0.00779
2593.75670,0.00772
2591.69653,0.00798
2589.63635,0.00819
2587.57618,0.00802
2585.51601,0.00781
2583.45584,0.00778
2581.39567,0.00766
2579.33549,0.00740
2577.27532,0.00741
2575.21515,0.00765
2573.15498,0.00773
2571.09481,0.00775
2569.03463,0.00782
2566.97446,0.00769
2564.91429,0.00742
2562.85412,0.00742
2560.79394,0.00778
2558.73377,0.00808
2556.67360,0.00801
2554.61343,0.00770
2552.55326,0.00742
2550.49308,0.00726
2548.43291,0.00719
2546.37274,0.00710
2544.31257,0.00704
2542.25240,0.00704
2540.19222,0.00702
2538.13205,0.00719
2536.07188,0.00741
2534.01171,0.00730
2531.95154,0.00722
2529.89136,0.00752
2527.83119,0.00786
2525.77102,0.00773
2523.71085,0.00740
2521.65067,0.00746
2519.59050,0.00770
2517.53033,0.00774
2515.47016,0.00757
2513.40999,0.00733
2511.34981,0.00726
2509.28964,0.00750
2507.22947,0.00770
2505.16930,0.00770
2503.10913,0.00780
2501.04895,0.00780
2498.98878,0.00769
2496.92861,0.00773
2494.86844,0.00773
2492.80827,0.00778
2490.74809,0.00786
2488.68792,0.00768
2486.62775,0.00754
2484.56758,0.00769
2482.50740,0.00782
2480.44723,0.00779
2478.38706,0.00795
2476.32689,0.00831
2474.26672,0.00829
2472.20654,0.00794
2470.14637,0.00766
2468.08620,0.00770
2466.02603,0.00816
2463.96586,0.00862
2461.90568,0.00850
2459.84551,0.00819
2457.78534,0.00819
2455.72517,0.00818
2453.66499,0.00806
2451.60482,0.00813
2449.54465,0.00828
2447.48448,0.00823
2445.42431,0.00813
2443.36413,0.00822
2441.30396,0.00834
2439.24379,0.00841
2437.18362,0.00842
2435.12345,0.00835
2433.06327,0.00826
2431.00310,0.00808
2428.94293,0.00787
2426.88276,0.00788
2424.82259,0.00799
2422.76241,0.00782
2420.70224,0.00774
2418.64207,0.00804
2416.58190,0.00821
2414.52172,0.00820
2412.46155,0.00832
2410.40138,0.00853
2408.34121,0.00850
2406.28104,0.00812
2404.22086,0.00773
2402.16069,0.00768
2400.10052,0.00771
2398.04035,0.00750
2395.98018,0.00741
2393.92000,0.00759
2391.85983,0.00779
2389.79966,0.00780
2387.73949,0.00768
2385.67931,0.00766
2383.61914,0.00775
2381.55897,0.00777
2379.49880,0.00764
2377.43863,0.00741
2375.37845,0.00680
2373.31828,0.00614
2371.25811,0.00617
2369.19794,0.00655
2367.13777,0.00689
2365.07759,0.00747
2363.01742,0.00752
2360.95725,0.00694
2358.89708,0.00578
2356.83691,0.00523
2354.77673,0.00549
2352.71656,0.00649
2350.65639,0.00825
2348.59622,0.00884
2346.53604,0.00710
2344.47587,0.00656
2342.41570,0.00738
2340.35553,0.00825
2338.29536,0.00863
2336.23518,0.00831
2334.17501,0.00773
2332.11484,0.00717
2330.05467,0.00694
2327.99450,0.00705
2325.93432,0.00772
2323.87415,0.00826
2321.81398,0.00852
2319.75381,0.00825
2317.69364,0.00802
2315.63346,0.00783
2313.57329,0.00774
2311.51312,0.00764
2309.45295,0.00751
2307.39277,0.00756
2305.33260,0.00766
2303.27243,0.00764
2301.21226,0.00755
2299.15209,0.00752
2297.09191,0.00750
2295.03174,0.00754
2292.97157,0.00767
2290.91140,0.00769
2288.85123,0.00750
2286.79105,0.00728
2284.73088,0.00724
2282.67071,0.00745
2280.61054,0.00770
2278.55036,0.00768
2276.49019,0.00747
2274.43002,0.00732
2272.36985,0.00717
2270.30968,0.00705
2268.24950,0.00717
2266.18933,0.00748
2264.12916,0.00765
2262.06899,0.00748
2260.00882,0.00710
2257.94864,0.00683
2255.88847,0.00681
2253.82830,0.00720
2251.76813,0.00786
2249.70796,0.00803
2247.64778,0.00744
2245.58761,0.00682
2243.52744,0.00628
2241.46727,0.00580
2239.40709,0.00570
2237.34692,0.00583
2235.28675,0.00593
2233.22658,0.00611
2231.16641,0.00627
2229.10623,0.00603
2227.04606,0.00556
2224.98589,0.00530
2222.92572,0.00553
2220.86555,0.00576
2218.80537,0.00549
2216.74520,0.00531
2214.68503,0.00551
2212.62486,0.00556
2210.56469,0.00551
2208.50451,0.00563
2206.44434,0.00580
2204.38417,0.00607
2202.32400,0.00628
2200.26382,0.00618
2198.20365,0.00617
2196.14348,0.00622
2194.08331,0.00546
2192.02314,0.00453
2189.96296,0.00476
2187.90279,0.00532
2185.84262,0.00535
2183.78245,0.00512
2181.72228,0.00474
2179.66210,0.00466
2177.60193,0.00476
2175.54176,0.00423
2173.48159,0.00364
2171.42141,0.00421
2169.36124,0.00562
2167.30107,0.00652
2165.24090,0.00671
2163.18073,0.00611
2161.12055,0.00383
2159.06038,0.00201
2157.00021,0.00235
2154.94004,0.00306
2152.87987,0.00349
2150.81969,0.00334
2148.75952,0.00268
2146.69935,0.00270
2144.63918,0.00339
2142.57901,0.00353
2140.51883,0.00280
2138.45866,0.00225
2136.39849,0.00224
2134.33832,0.00232
2132.27814,0.00220
2130.21797,0.00211
2128.15780,0.00226
2126.09763,0.00247
2124.03746,0.00295
2121.97728,0.00367
2119.91711,0.00391
2117.85694,0.00375
2115.79677,0.00388
2113.73660,0.00414
2111.67642,0.00391
2109.61625,0.00342
2107.55608,0.00339
2105.49591,0.00389
2103.43573,0.00440
2101.37556,0.00431
2099.31539,0.00365
2097.25522,0.00337
2095.19505,0.00368
2093.13487,0.00413
2091.07470,0.00439
2089.01453,0.00406
2086.95436,0.00376
2084.89419,0.00400
2082.83401,0.00416
2080.77384,0.00407
2078.71367,0.00404
2076.65350,0.00384
2074.59333,0.00343
2072.53315,0.00336
2070.47298,0.00365
2068.41281,0.00392
2066.35264,0.00403
2064.29246,0.00348
2062.23229,0.00259
2060.17212,0.00254
2058.11195,0.00315
2056.05178,0.00367
2053.99160,0.00405
2051.93143,0.00395
2049.87126,0.00324
2047.81109,0.00250
2045.75092,0.00213
2043.69074,0.00241
2041.63057,0.00321
2039.57040,0.00366
2037.51023,0.00307
2035.45006,0.00190
2033.38988,0.00113
2031.32971,0.00109
2029.26954,0.00174
2027.20937,0.00260
2025.14919,0.00269
2023.08902,0.00211
2021.02885,0.00205
2018.96868,0.00239
2016.90851,0.00245
2014.84833,0.00253
2012.78816,0.00264
2010.72799,0.00269
2008.66782,0.00236
2006.60765,0.00167
2004.54747,0.00139
2002.48730,0.00146
2000.42713,0.00165
1998.36696,0.00244
1996.30678,0.00366
1994.24661,0.00450
1992.18644,0.00468
1990.12627,0.00467
1988.06610,0.00462
1986.00592,0.00407
1983.94575,0.00347
1981.88558,0.00363
1979.82541,0.00392
1977.76524,0.00314
1975.70506,0.00166
1973.64489,0.00087
1971.58472,0.00113
1969.52455,0.00169
1967.46438,0.00203
1965.40420,0.00199
1963.34403,0.00131
1961.28386,0.00068
1959.22369,0.00087
1957.16351,0.00132
1955.10334,0.00126
1953.04317,0.00080
1950.98300,0.00051
1948.92283,0.00093
1946.86265,0.00178
1944.80248,0.00205
1942.74231,0.00165
1940.68214,0.00145
1938.62197,0.00179
1936.56179,0.00224
1934.50162,0.00233
1932.44145,0.00211
1930.38128,0.00188
1928.32111,0.00157
1926.26093,0.00110
1924.20076,0.00104
1922.14059,0.00165
1920.08042,0.00230
1918.02024,0.00250
1915.96007,0.00221
1913.89990,0.00186
1911.83973,0.00190
1909.77956,0.00221
1907.71938,0.00234
1905.65921,0.00229
1903.59904,0.00244
1901.53887,0.00284
1899.47870,0.00303
1897.41852,0.00272
1895.35835,0.00209
1893.29818,0.00150
1891.23801,0.00134
1889.17783,0.00160
1887.11766,0.00189
1885.05749,0.00214
1882.99732,0.00243
1880.93715,0.00257
1878.87697,0.00246
1876.81680,0.00227
1874.75663,0.00215
1872.69646,0.00200
1870.63629,0.00180
1868.57611,0.00176
1866.51594,0.00192
1864.45577,0.00209
1862.39560,0.00210
1860.33543,0.00192
1858.27525,0.00181
1856.21508,0.00189
1854.15491,0.00193
1852.09474,0.00188
1850.03456,0.00193
1847.97439,0.00197
1845.91422,0.00179
1843.85405,0.00153
1841.79388,0.00142
1839.73370,0.00140
1837.67353,0.00136
1835.61336,0.00141
1833.55319,0.00160
1831.49302,0.00183
1829.43284,0.00195
1827.37267,0.00194
1825.31250,0.00190
1823.25233,0.00183
1821.19216,0.00168
1819.13198,0.00147
1817.07181,0.00136
1815.01164,0.00153
1812.95147,0.00188
1810.89129,0.00211
1808.83112,0.00213
1806.77095,0.00216
1804.71078,0.00224
1802.65061,0.00224
1800.59043,0.00212
1798.53026,0.00193
1796.47009,0.00181
1794.40992,0.00188
1792.34975,0.00199
1790.28957,0.00192
1788.22940,0.00180
1786.16923,0.00182
1784.10906,0.00197
1782.04888,0.00216
1779.98871,0.00222
1777.92854,0.00220
1775.86837,0.00230
1773.80820,0.00251
1771.74802,0.00267
1769.68785,0.00263
1767.62768,0.00252
1765.56751,0.00257
1763.50734,0.00272
1761.44716,0.00282
1759.38699,0.00292
1757.32682,0.00317
1755.26665,0.00350
1753.20648,0.00374
1751.14630,0.00384
1749.08613,0.00385
1747.02596,0.00400
1744.96579,0.00435
1742.90561,0.00466
1740.84544,0.00475
1738.78527,0.00474
1736.72510,0.00471
1734.66493,0.00477
1732.60475,0.00494
1730.54458,0.00507
1728.48441,0.00503
1726.42424,0.00495
1724.36407,0.00497
1722.30389,0.00508
1720.24372,0.00519
1718.18355,0.00528
1716.12338,0.00538
1714.06320,0.00555
1712.00303,0.00574
1709.94286,0.00594
1707.88269,0.00619
1705.82252,0.00650
1703.76234,0.00685
1701.70217,0.00723
1699.64200,0.00779
1697.58183,0.00864
1695.52166,0.00963
1693.46148,0.01039
1691.40131,0.01094
1689.34114,0.01153
1687.28097,0.01229
1685.22080,0.01342
1683.16062,0.01477
1681.10045,0.01567
1679.04028,0.01625
1676.98011,0.01692
1674.91993,0.01776
1672.85976,0.01858
1670.79959,0.01941
1668.73942,0.02041
1666.67925,0.02132
1664.61907,0.02215
1662.55890,0.02305
1660.49873,0.02381
1658.43856,0.02425
1656.37839,0.02454
1654.31821,0.02498
1652.25804,0.02552
1650.19787,0.02570
1648.13770,0.02561
1646.07753,0.02547
1644.01735,0.02525
1641.95718,0.02496
1639.89701,0.02465
1637.83684,0.02430
1635.77666,0.02382
1633.71649,0.02335
1631.65632,0.02295
1629.59615,0.02242
1627.53598,0.02170
1625.47580,0.02109
1623.41563,0.02072
1621.35546,0.02038
1619.29529,0.01997
1617.23512,0.01954
1615.17494,0.01912
1613.11477,0.01867
1611.05460,0.01823
1608.99443,0.01783
1606.93425,0.01753
1604.87408,0.01736
1602.81391,0.01719
1600.75374,0.01689
1598.69357,0.01652
1596.63339,0.01617
1594.57322,0.01576
1592.51305,0.01534
1590.45288,0.01501
1588.39271,0.01475
1586.33253,0.01447
1584.27236,0.01412
1582.21219,0.01372
1580.15202,0.01340
1578.09185,0.01320
1576.03167,0.01296
1573.97150,0.01262
1571.91133,0.01237
1569.85116,0.01219
1567.79098,0.01196
1565.73081,0.01176
1563.67064,0.01168
1561.61047,0.01165
1559.55030,0.01163
1557.49012,0.01157
1555.42995,0.01142
1553.36978,0.01123
1551.30961,0.01107
1549.24944,0.01095
1547.18926,0.01098
1545.12909,0.01125
1543.06892,0.01151
1541.00875,0.01143
1538.94858,0.01098
1536.88840,0.01042
1534.82823,0.00989
1532.76806,0.00941
1530.70789,0.00904
1528.64771,0.00880
1526.58754,0.00869
1524.52737,0.00872
1522.46720,0.00874
1520.40703,0.00852
1518.34685,0.00817
1516.28668,0.00779
1514.22651,0.00741
1512.16634,0.00716
1510.10617,0.00698
1508.04599,0.00664
1505.98582,0.00616
1503.92565,0.00586
1501.86548,0.00574
1499.80530,0.00571
1497.74513,0.00567
1495.68496,0.00556
1493.62479,0.00548
1491.56462,0.00535
1489.50444,0.00499
1487.44427,0.00454
1485.38410,0.00432
1483.32393,0.00437
1481.26376,0.00452
1479.20358,0.00459
1477.14341,0.00461
1475.08324,0.00475
1473.02307,0.00499
1470.96290,0.00521
1468.90272,0.00541
1466.84255,0.00571
1464.78238,0.00609
1462.72221,0.00631
1460.66203,0.00631
1458.60186,0.00625
1456.54169,0.00621
1454.48152,0.00615
1452.42135,0.00614
1450.36117,0.00625
1448.30100,0.00648
1446.24083,0.00672
1444.18066,0.00680
1442.12049,0.00673
1440.06031,0.00667
1438.00014,0.00668
1435.93997,0.00655
1433.87980,0.00624
1431.81963,0.00607
1429.75945,0.00624
1427.69928,0.00662
1425.63911,0.00694
1423.57894,0.00707
1421.51876,0.00711
1419.45859,0.00717
1417.39842,0.00721
1415.33825,0.00715
1413.27808,0.00705
1411.21790,0.00692
1409.15773,0.00679
1407.09756,0.00671
1405.03739,0.00662
1402.97722,0.00645
1400.91704,0.00626
1398.85687,0.00605
1396.79670,0.00582
1394.73653,0.00568
1392.67635,0.00564
1390.61618,0.00559
1388.55601,0.00546
1386.49584,0.00533
1384.43567,0.00527
1382.37549,0.00528
1380.31532,0.00532
1378.25515,0.00540
1376.19498,0.00544
1374.13481,0.00534
1372.07463,0.00514
1370.01446,0.00497
1367.95429,0.00487
1365.89412,0.00483
1363.83395,0.00476
1361.77377,0.00460
1359.71360,0.00440
1357.65343,0.00425
1355.59326,0.00417
1353.53308,0.00410
1351.47291,0.00398
1349.41274,0.00381
1347.35257,0.00366
1345.29240,0.00357
1343.23222,0.00349
1341.17205,0.00337
1339.11188,0.00326
1337.05171,0.00319
1334.99154,0.00317
1332.93136,0.00317
1330.87119,0.00320
1328.81102,0.00332
1326.75085,0.00350
1324.69067,0.00367
1322.63050,0.00380
1320.57033,0.00387
1318.51016,0.00391
1316.44999,0.00397
1314.38981,0.00406
1312.32964,0.00415
1310.26947,0.00419
1308.20930,0.00416
1306.14913,0.00413
1304.08895,0.00425
1302.02878,0.00456
1299.96861,0.00494
1297.90844,0.00525
1295.84827,0.00557
1293.78809,0.00596
1291.72792,0.00625
1289.66775,0.00630
1287.60758,0.00616
1285.54740,0.00594
1283.48723,0.00573
1281.42706,0.00561
1279.36689,0.00563
1277.30672,0.00575
1275.24654,0.00584
1273.18637,0.00585
1271.12620,0.00589
1269.06603,0.00590
1267.00586,0.00572
1264.94568,0.00548
1262.88551,0.00543
1260.82534,0.00556
1258.76517,0.00565
1256.70500,0.00561
1254.64482,0.00557
1252.58465,0.00562
1250.52448,0.00569
1248.46431,0.00569
1246.40413,0.00565
1244.34396,0.00552
1242.28379,0.00531
1240.22362,0.00516
1238.16345,0.00511
1236.10327,0.00509
1234.04310,0.00502
1231.98293,0.00484
1229.92276,0.00464
1227.86259,0.00439
1225.80241,0.00402
1223.74224,0.00364
1221.68207,0.00339
1219.62190,0.00318
1217.56172,0.00287
1215.50155,0.00254
1213.44138,0.00226
1211.38121,0.00210
1209.32104,0.00193
1207.26086,0.00161
1205.20069,0.00134
1203.14052,0.00123
1201.08035,0.00112
1199.02018,0.00102
1196.96000,0.00094
1194.89983,0.00083
1192.83966,0.00079
1190.77949,0.00065
1188.71932,0.00050
1186.65914,0.00051
1184.59897,0.00053
1182.53880,0.00050
1180.47863,0.00057
1178.41845,0.00073
1176.35828,0.00094
1174.29811,0.00128
1172.23794,0.00171
1170.17777,0.00217
1168.11759,0.00260
1166.05742,0.00290
1163.99725,0.00320
1161.93708,0.00360
1159.87691,0.00415
1157.81673,0.00479
1155.75656,0.00539
1153.69639,0.00601
1151.63622,0.00675
1149.57605,0.00759
1147.51587,0.00838
1145.45570,0.00913
1143.39553,0.01002
1141.33536,0.01107
1139.27518,0.01211
1137.21501,0.01310
1135.15484,0.01415
1133.09467,0.01526
1131.03450,0.01645
1128.97432,0.01782
1126.91415,0.01929
1124.85398,0.02074
1122.79381,0.02220
1120.73364,0.02365
1118.67346,0.02507
1116.61329,0.02657
1114.55312,0.02810
1112.49295,0.02958
1110.43277,0.03107
1108.37260,0.03263
1106.31243,0.03420
1104.25226,0.03569
1102.19209,0.03707
1100.13191,0.03835
1098.07174,0.03957
1096.01157,0.04080
1093.95140,0.04195
1091.89123,0.04296
1089.83105,0.04394
1087.77088,0.04493
1085.71071,0.04593
1083.65054,0.04697
1081.59037,0.04796
1079.53019,0.04892
1077.47002,0.04993
1075.40985,0.05082
1073.34968,0.05136
1071.28950,0.05174
1069.22933,0.05212
1067.16916,0.05238
1065.10899,0.05244
1063.04882,0.05224
1060.98864,0.05183
1058.92847,0.05133
1056.86830,0.05078
1054.80813,0.04994
1052.74796,0.04870
1050.68778,0.04727
1048.62761,0.04587
1046.56744,0.04446
1044.50727,0.04292
1042.44710,0.04124
1040.38692,0.03952
1038.32675,0.03774
1036.26658,0.03581
1034.20641,0.03380
1032.14623,0.03197
1030.08606,0.03038
1028.02589,0.02882
1025.96572,0.02726
1023.90555,0.02585
1021.84537,0.02465
1019.78520,0.02359
1017.72503,0.02275
1015.66486,0.02220
1013.60469,0.02187
1011.54451,0.02171
1009.48434,0.02166
1007.42417,0.02177
1005.36400,0.02219
1003.30382,0.02291
1001.24365,0.02373
999.18348,0.02461
997.12331,0.02564
995.06314,0.02689
993.00296,0.02821
990.94279,0.02948
988.88262,0.03065
986.82245,0.03152
984.76228,0.03216
982.70210,0.03272
980.64193,0.03302
978.58176,0.03303
976.52159,0.03291
974.46142,0.03252
972.40124,0.03182
970.34107,0.03098
968.28090,0.02997
966.22073,0.02874
964.16055,0.02736
962.10038,0.02598
960.04021,0.02462
957.98004,0.02334
955.91987,0.02207
953.85969,0.02066
951.79952,0.01911
949.73935,0.01769
947.67918,0.01658
945.61901,0.01565
943.55883,0.01468
941.49866,0.01362
939.43849,0.01274
937.37832,0.01215
935.31814,0.01155
933.25797,0.01079
931.19780,0.01016
929.13763,0.00966
927.07746,0.00923
925.01728,0.00902
922.95711,0.00888
920.89694,0.00856
918.83677,0.00807
916.77660,0.00751
914.71642,0.00707
912.65625,0.00673
910.59608,0.00640
908.53591,0.00624
906.47574,0.00631
904.41556,0.00649
902.35539,0.00674
900.29522,0.00702
898.23505,0.00732
896.17487,0.00763
894.11470,0.00800
892.05453,0.00851
889.99436,0.00908
887.93419,0.00953
885.87401,0.00973
883.81384,0.01006
881.75367,0.01093
879.69350,0.01195
877.63333,0.01258
875.57315,0.01295
873.51298,0.01354
871.45281,0.01432
869.39264,0.01489
867.33247,0.01509
865.27229,0.01517
863.21212,0.01548
861.15195,0.01592
859.09178,0.01626
857.03160,0.01653
854.97143,0.01655
852.91126,0.01620
850.85109,0.01574
848.79092,0.01532
846.73074,0.01507
844.67057,0.01489
842.61040,0.01417
840.55023,0.01297
838.49006,0.01198
836.42988,0.01136
834.36971,0.01070
832.30954,0.00961
830.24937,0.00842
828.18919,0.00760
826.12902,0.00687
824.06885,0.00604
822.00868,0.00538
819.94851,0.00498
817.88833,0.00472
815.82816,0.00437
813.76799,0.00380
811.70782,0.00318
809.64765,0.00284
807.58747,0.00289
805.52730,0.00286
803.46713,0.00258
801.40696,0.00240
799.34679,0.00233
797.28661,0.00209
795.22644,0.00177
793.16627,0.00158
791.10610,0.00145
789.04592,0.00176
786.98575,0.00236
784.92558,0.00235
782.86541,0.00201
780.80524,0.00212
778.74506,0.00250
776.68489,0.00276
774.62472,0.00294
772.56455,0.00300
770.50438,0.00293
768.44420,0.00271
766.38403,0.00240
764.32386,0.00226
762.26369,0.00241
760.20352,0.00284
758.14334,0.00319
756.08317,0.00300
754.02300,0.00268
751.96283,0.00269
749.90265,0.00275
747.84248,0.00261
745.78231,0.00264
743.72214,0.00310
741.66197,0.00344
739.60179,0.00332
737.54162,0.00296
735.48145,0.00256
733.42128,0.00236
731.36111,0.00239
729.30093,0.00245
727.24076,0.00242
725.18059,0.00216
723.12042,0.00190
721.06024,0.00175
719.00007,0.00211
716.93990,0.00239
714.87973,0.00229
712.81956,0.00210
710.75938,0.00225
708.69921,0.00292
706.63904,0.00349
704.57887,0.00330
702.51870,0.00282
700.45852,0.00268
698.39835,0.00268
696.33818,0.00258
694.27801,0.00245
692.21784,0.00221
690.15766,0.00175
688.09749,0.00127
686.03732,0.00112
683.97715,0.00131
681.91697,0.00181
679.85680,0.00263
677.79663,0.00340
675.73646,0.00367
673.67629,0.00365
671.61611,0.00346
669.55594,0.00165
667.49577,0.00063
665.43560,0.00338
663.37543,0.00248
661.31525,0.00155
659.25508,0.00228
657.19491,0.00343
655.13474,0.00383
653.07457,0.00349
651.01439,0.00295
648.95422,0.00253
646.89405,0.00240
644.83388,0.00252
642.77370,0.00296
640.71353,0.00302
638.65336,0.00203
636.59319,0.00113
634.53302,0.00167
632.47284,0.00295
630.41267,0.00343
628.35250,0.00295
626.29233,0.00258
624.23216,0.00308
622.17198,0.00272
620.11181,0.00042
618.05164,0.00000
615.99147,0.00304
613.93129,0.00480
611.87112,0.00342
609.81095,0.00135
607.75078,0.00052
605.69061,0.00095
603.63043,0.00149
601.57026,0.00130
599.51009,0.00000
