3996.73391,0.00011
3994.67374,0.00027
3992.61357,0.00031
3990.55339,0.00036
3988.49322,0.00022
3986.43305,0.00000
3984.37288,0.00007
3982.31271,0.00030
3980.25253,0.00038
3978.19236,0.00035
3976.13219,0.00043
3974.07202,0.00060
3972.01184,0.00079
3969.95167,0.00089
3967.89150,0.00069
3965.83133,0.00041
3963.77116,0.00039
3961.71098,0.00051
3959.65081,0.00048
3957.59064,0.00030
3955.53047,0.00015
3953.47030,0.00006
3951.41012,0.00000
3949.34995,0.00014
3947.28978,0.00050
3945.22961,0.00079
3943.16943,0.00082
3941.10926,0.00068
3939.04909,0.00046
3936.98892,0.00028
3934.92875,0.00033
3932.86857,0.00049
3930.80840,0.00047
3928.74823,0.00027
3926.68806,0.00022
3924.62789,0.00052
3922.56771,0.00088
3920.50754,0.00087
3918.44737,0.00065
3916.38720,0.00069
3914.32703,0.00092
3912.26685,0.00108
3910.20668,0.00109
3908.14651,0.00088
3906.08634,0.00068
3904.02616,0.00092
3901.96599,0.00135
3899.90582,0.00138
3897.84565,0.00109
3895.78548,0.00083
3893.72530,0.00073
3891.66513,0.00083
3889.60496,0.00104
3887.54479,0.00112
3885.48462,0.00103
3883.42444,0.00084
3881.36427,0.00069
3879.30410,0.00058
3877.24393,0.00029
3875.18376,0.00000
3873.12358,0.00018
3871.06341,0.00087
3869.00324,0.00155
3866.94307,0.00159
3864.88289,0.00118
3862.82272,0.00082
3860.76255,0.00063
3858.70238,0.00060
3856.64221,0.00078
3854.58203,0.00134
3852.52186,0.00177
3850.46169,0.00138
3848.40152,0.00083
3846.34135,0.00074
3844.28117,0.00093
3842.22100,0.00102
3840.16083,0.00093
3838.10066,0.00077
3836.04048,0.00070
3833.98031,0.00072
3831.92014,0.00071
3829.85997,0.00058
3827.79980,0.00044
3825.73962,0.00054
3823.67945,0.00098
3821.61928,0.00156
3819.55911,0.00177
3817.49894,0.00146
3815.43876,0.00114
3813.37859,0.00089
3811.31842,0.00065
3809.25825,0.00055
3807.19808,0.00046
3805.13790,0.00031
3803.07773,0.00063
3801.01756,0.00152
3798.95739,0.00202
3796.89721,0.00170
3794.83704,0.00098
3792.77687,0.00035
3790.71670,0.00003
3788.65653,0.00008
3786.59635,0.00038
3784.53618,0.00061
3782.47601,0.00060
3780.41584,0.00057
3778.35567,0.00061
3776.29549,0.00056
3774.23532,0.00045
3772.17515,0.00053
3770.11498,0.00090
3768.05481,0.00119
3765.99463,0.00121
3763.93446,0.00110
3761.87429,0.00092
3759.81412,0.00089
3757.75394,0.00108
3755.69377,0.00123
3753.63360,0.00140
3751.57343,0.00176
3749.51326,0.00183
3747.45308,0.00157
3745.39291,0.00153
3743.33274,0.00149
3741.27257,0.00104
3739.21240,0.00066
3737.15222,0.00073
3735.09205,0.00100
3733.03188,0.00109
3730.97171,0.00096
3728.91153,0.00077
3726.85136,0.00075
3724.79119,0.00090
3722.73102,0.00090
3720.67085,0.00084
3718.61067,0.00082
3716.55050,0.00078
3714.49033,0.00069
3712.43016,0.00070
3710.36999,0.00085
3708.30981,0.00070
3706.24964,0.00042
3704.18947,0.00032
3702.12930,0.00046
3700.06913,0.00058
3698.00895,0.00044
3695.94878,0.00033
3693.88861,0.00046
3691.82844,0.00067
3689.76826,0.00071
3687.70809,0.00076
3685.64792,0.00084
3683.58775,0.00083
3681.52758,0.00079
3679.46740,0.00089
3677.40723,0.00097
3675.34706,0.00108
3673.28689,0.00138
3671.22672,0.00169
3669.16654,0.00183
3667.10637,0.00177
3665.04620,0.00169
3662.98603,0.00161
3660.92586,0.00145
3658.86568,0.00141
3656.80551,0.00158
3654.74534,0.00161
3652.68517,0.00153
3650.62499,0.00213
3648.56482,0.00317
3646.50465,0.00324
3644.44448,0.00270
3642.38431,0.00255
3640.32413,0.00274
3638.26396,0.00292
3636.20379,0.00302
3634.14362,0.00305
3632.08345,0.00307
3630.02327,0.00345
3627.96310,0.00442
3625.90293,0.00508
3623.84276,0.00509
3621.78258,0.00499
3619.72241,0.00531
3617.66224,0.00588
3615.60207,0.00615
3613.54190,0.00605
3611.48172,0.00571
3609.42155,0.00585
3607.36138,0.00682
3605.30121,0.00751
3603.24104,0.00739
3601.18086,0.00724
3599.12069,0.00771
3597.06052,0.00826
3595.00035,0.00832
3592.94018,0.00809
3590.88000,0.00807
3588.81983,0.00837
3586.75966,0.00892
3584.69949,0.00934
3582.63931,0.00956
3580.57914,0.00979
3578.51897,0.01007
3576.45880,0.01038
3574.39863,0.01059
3572.33845,0.01057
3570.27828,0.01058
3568.21811,0.01101
3566.15794,0.01160
3564.09777,0.01198
3562.03759,0.01229
3559.97742,0.01262
3557.91725,0.01266
3555.85708,0.01236
3553.79690,0.01225
3551.73673,0.01263
3549.67656,0.01312
3547.61639,0.01347
3545.55622,0.01382
3543.49604,0.01408
3541.43587,0.01401
3539.37570,0.01389
3537.31553,0.01406
3535.25536,0.01432
3533.19518,0.01446
3531.13501,0.01464
3529.07484,0.01499
3527.01467,0.01547
3524.95450,0.01603
3522.89432,0.01650
3520.83415,0.01671
3518.77398,0.01676
3516.71381,0.01688
3514.65363,0.01700
3512.59346,0.01696
3510.53329,0.01690
3508.47312,0.01712
3506.41295,0.01758
3504.35277,0.01803
3502.29260,0.01843
3500.23243,0.01893
3498.17226,0.01944
3496.11209,0.01966
3494.05191,0.01954
3491.99174,0.01940
3489.93157,0.01941
3487.87140,0.01971
3485.81123,0.02027
3483.75105,0.02066
3481.69088,0.02079
3479.63071,0.02089
3477.57054,0.02095
3475.51036,0.02103
3473.45019,0.02123
3471.39002,0.02146
3469.32985,0.02164
3467.26968,0.02179
3465.20950,0.02202
3463.14933,0.02236
3461.08916,0.02264
3459.02899,0.02279
3456.96882,0.02296
3454.90864,0.02312
3452.84847,0.02326
3450.78830,0.02343
3448.72813,0.02353
3446.66795,0.02358
3444.60778,0.02367
3442.54761,0.02396
3440.48744,0.02429
3438.42727,0.02435
3436.36709,0.02441
3434.30692,0.02474
3432.24675,0.02502
3430.18658,0.02499
3428.12641,0.02484
3426.06623,0.02491
3424.00606,0.02517
3421.94589,0.02537
3419.88572,0.02568
3417.82555,0.02624
3415.76537,0.02665
3413.70520,0.02668
3411.64503,0.02647
3409.58486,0.02632
3407.52468,0.02650
3405.46451,0.02695
3403.40434,0.02730
3401.34417,0.02736
3399.28400,0.02734
3397.22382,0.02763
3395.16365,0.02801
3393.10348,0.02823
3391.04331,0.02823
3388.98314,0.02806
3386.92296,0.02804
3384.86279,0.02829
3382.80262,0.02855
3380.74245,0.02867
3378.68228,0.02871
3376.62210,0.02868
3374.56193,0.02867
3372.50176,0.02893
3370.44159,0.02927
3368.38141,0.02922
3366.32124,0.02893
3364.26107,0.02872
3362.20090,0.02876
3360.14073,0.02909
3358.08055,0.02943
3356.02038,0.02946
3353.96021,0.02949
3351.90004,0.02975
3349.83987,0.02991
3347.77969,0.02987
3345.71952,0.02993
3343.65935,0.03016
3341.59918,0.03035
3339.53900,0.03041
3337.47883,0.03045
3335.41866,0.03048
3333.35849,0.03043
3331.29832,0.03037
3329.23814,0.03038
3327.17797,0.03046
3325.11780,0.03065
3323.05763,0.03071
3320.99746,0.03067
3318.93728,0.03084
3316.87711,0.03108
3314.81694,0.03112
3312.75677,0.03117
3310.69660,0.03144
3308.63642,0.03167
3306.57625,0.03155
3304.51608,0.03136
3302.45591,0.03147
3300.39573,0.03164
3298.33556,0.03156
3296.27539,0.03139
3294.21522,0.03150
3292.15505,0.03184
3290.09487,0.03197
3288.03470,0.03188
3285.97453,0.03179
3283.91436,0.03182
3281.85419,0.03206
3279.79401,0.03239
3277.73384,0.03252
3275.67367,0.03241
3273.61350,0.03237
3271.55333,0.03237
3269.49315,0.03226
3267.43298,0.03215
3265.37281,0.03215
3263.31264,0.03222
3261.25246,0.03237
3259.19229,0.03259
3257.13212,0.03274
3255.07195,0.03262
3253.01178,0.03244
3250.95160,0.03253
3248.89143,0.03280
3246.83126,0.03285
3244.77109,0.03272
3242.71092,0.03272
3240.65074,0.03271
3238.59057,0.03262
3236.53040,0.03270
3234.47023,0.03275
3232.41005,0.03256
3230.34988,0.03234
3228.28971,0.03231
3226.22954,0.03241
3224.16937,0.03246
3222.10919,0.03235
3220.04902,0.03224
3217.98885,0.03224
3215.92868,0.03231
3213.86851,0.03247
3211.80833,0.03272
3209.74816,0.03271
3207.68799,0.03245
3205.62782,0.03232
3203.56765,0.03227
3201.50747,0.03220
3199.44730,0.03222
3197.38713,0.03228
3195.32696,0.03223
3193.26678,0.03212
3191.20661,0.03216
3189.14644,0.03224
3187.08627,0.03218
3185.02610,0.03202
3182.96592,0.03183
3180.90575,0.03155
3178.84558,0.03133
3176.78541,0.03144
3174.72524,0.03165
3172.66506,0.03165
3170.60489,0.03162
3168.54472,0.03163
3166.48455,0.03153
3164.42437,0.03128
3162.36420,0.03114
3160.30403,0.03126
3158.24386,0.03142
3156.18369,0.03152
3154.12351,0.03148
3152.06334,0.03121
3150.00317,0.03099
3147.94300,0.03110
3145.88283,0.03123
3143.82265,0.03113
3141.76248,0.03094
3139.70231,0.03079
3137.64214,0.03068
3135.58197,0.03059
3133.52179,0.03048
3131.46162,0.03037
3129.40145,0.03029
3127.34128,0.03030
3125.28110,0.03036
3123.22093,0.03024
3121.16076,0.03008
3119.10059,0.03009
3117.04042,0.03002
3114.98024,0.02975
3112.92007,0.02951
3110.85990,0.02938
3108.79973,0.02930
3106.73956,0.02925
3104.67938,0.02915
3102.61921,0.02896
3100.55904,0.02883
3098.49887,0.02878
3096.43870,0.02875
3094.37852,0.02872
3092.31835,0.02864
3090.25818,0.02858
3088.19801,0.02864
3086.13783,0.02861
3084.07766,0.02835
3082.01749,0.02810
3079.95732,0.02802
3077.89715,0.02802
3075.83697,0.02802
3073.77680,0.02796
3071.71663,0.02772
3069.65646,0.02740
3067.59629,0.02717
3065.53611,0.02707
3063.47594,0.02698
3061.41577,0.02686
3059.35560,0.02674
3057.29542,0.02658
3055.23525,0.02646
3053.17508,0.02643
3051.11491,0.02637
3049.05474,0.02627
3046.99456,0.02621
3044.93439,0.02617
3042.87422,0.02602
3040.81405,0.02574
3038.75388,0.02541
3036.69370,0.02514
3034.63353,0.02499
3032.57336,0.02488
3030.51319,0.02483
3028.45302,0.02474
3026.39284,0.02457
3024.33267,0.02451
3022.27250,0.02463
3020.21233,0.02476
3018.15215,0.02477
3016.09198,0.02464
3014.03181,0.02445
3011.97164,0.02425
3009.91147,0.02409
3007.85129,0.02396
3005.79112,0.02366
3003.73095,0.02328
3001.67078,0.02310
2999.61061,0.02319
2997.55043,0.02329
2995.49026,0.02313
2993.43009,0.02293
2991.36992,0.02295
2989.30975,0.02289
2987.24957,0.02253
2985.18940,0.02230
2983.12923,0.02248
2981.06906,0.02271
2979.00888,0.02287
2976.94871,0.02304
2974.88854,0.02300
2972.82837,0.02270
2970.76820,0.02246
2968.70802,0.02240
2966.64785,0.02242
2964.58768,0.02237
2962.52751,0.02213
2960.46734,0.02174
2958.40716,0.02161
2956.34699,0.02184
2954.28682,0.02197
2952.22665,0.02191
2950.16647,0.02185
2948.10630,0.02178
2946.04613,0.02176
2943.98596,0.02184
2941.92579,0.02181
2939.86561,0.02161
2937.80544,0.02142
2935.74527,0.02131
2933.68510,0.02128
2931.62493,0.02129
2929.56475,0.02120
2927.50458,0.02105
2925.44441,0.02099
2923.38424,0.02095
2921.32407,0.02094
2919.26389,0.02099
2917.20372,0.02097
2915.14355,0.02085
2913.08338,0.02073
2911.02320,0.02054
2908.96303,0.02017
2906.90286,0.01983
2904.84269,0.01977
2902.78252,0.01980
2900.72234,0.01966
2898.66217,0.01951
2896.60200,0.01954
2894.54183,0.01956
2892.48166,0.01938
2890.42148,0.01913
2888.36131,0.01901
2886.30114,0.01905
2884.24097,0.01903
2882.18080,0.01873
2880.12062,0.01841
2878.06045,0.01848
2876.00028,0.01881
2873.94011,0.01902
2871.87993,0.01893
2869.81976,0.01866
2867.75959,0.01843
2865.69942,0.01832
2863.63925,0.01816
2861.57907,0.01789
2859.51890,0.01772
2857.45873,0.01769
2855.39856,0.01761
2853.33839,0.01747
2851.27821,0.01734
2849.21804,0.01721
2847.15787,0.01716
2845.09770,0.01716
2843.03752,0.01699
2840.97735,0.01669
2838.91718,0.01649
2836.85701,0.01646
2834.79684,0.01651
2832.73666,0.01651
2830.67649,0.01632
2828.61632,0.01593
2826.55615,0.01559
2824.49598,0.01555
2822.43580,0.01560
2820.37563,0.01548
2818.31546,0.01532
2816.25529,0.01530
2814.19512,0.01527
2812.13494,0.01522
2810.07477,0.01531
2808.01460,0.01531
2805.95443,0.01507
2803.89425,0.01489
2801.83408,0.01492
2799.77391,0.01495
2797.71374,0.01490
2795.65357,0.01483
2793.59339,0.01479
2791.53322,0.01475
2789.47305,0.01454
2787.41288,0.01423
2785.35271,0.01401
2783.29253,0.01388
2781.23236,0.01391
2779.17219,0.01407
2777.11202,0.01410
2775.05184,0.01391
2772.99167,0.01371
2770.93150,0.01362
2768.87133,0.01359
2766.81116,0.01350
2764.75098,0.01328
2762.69081,0.01308
2760.63064,0.01316
2758.57047,0.01334
2756.51030,0.01335
2754.45012,0.01321
2752.38995,0.01305
2750.32978,0.01284
2748.26961,0.01265
2746.20944,0.01250
2744.14926,0.01240
2742.08909,0.01243
2740.02892,0.01250
2737.96875,0.01244
2735.90857,0.01228
2733.84840,0.01215
2731.78823,0.01208
2729.72806,0.01207
2727.66789,0.01214
2725.60771,0.01216
2723.54754,0.01190
2721.48737,0.01158
2719.42720,0.01150
2717.36703,0.01156
2715.30685,0.01160
2713.24668,0.01157
2711.18651,0.01146
2709.12634,0.01132
2707.06617,0.01118
2705.00599,0.01111
2702.94582,0.01115
2700.88565,0.01114
2698.82548,0.01104
2696.76530,0.01082
2694.70513,0.01060
2692.64496,0.01052
2690.58479,0.01050
2688.52462,0.01045
2686.46444,0.01039
2684.40427,0.01032
2682.34410,0.01028
2680.28393,0.01029
2678.22376,0.01033
2676.16358,0.01038
2674.10341,0.01038
2672.04324,0.01025
2669.98307,0.01017
2667.92289,0.01019
2665.86272,0.01012
2663.80255,0.00997
2661.74238,0.00995
2659.68221,0.01004
2657.62203,0.01003
2655.56186,0.00987
2653.50169,0.00962
2651.44152,0.00939
2649.38135,0.00936
2647.32117,0.00942
2645.26100,0.00939
2643.20083,0.00926
2641.14066,0.00909
2639.08049,0.00900
2637.02031,0.00897
2634.96014,0.00896
2632.89997,0.00891
2630.83980,0.00885
2628.77962,0.00882
2626.71945,0.00875
2624.65928,0.00868
2622.59911,0.00853
2620.53894,0.00818
2618.47876,0.00801
2616.41859,0.00818
2614.35842,0.00833
2612.29825,0.00824
2610.23808,0.00802
2608.17790,0.00783
2606.11773,0.00780
2604.05756,0.00787
2601.99739,0.00793
2599.93722,0.00792
2597.87704,0.00790
2595.81687,0.00791
2593.75670,0.00788
2591.69653,0.00791
2589.63635,0.00798
2587.57618,0.00793
2585.51601,0.00781
2583.45584,0.00768
2581.39567,0.00734
2579.33549,0.00699
2577.27532,0.00700
2575.21515,0.00717
2573.15498,0.00727
2571.09481,0.00746
2569.03463,0.00767
2566.97446,0.00749
2564.91429,0.00701
2562.85412,0.00682
2560.79394,0.00708
2558.73377,0.00740
2556.67360,0.00753
2554.61343,0.00748
2552.55326,0.00733
2550.49308,0.00715
2548.43291,0.00690
2546.37274,0.00665
2544.31257,0.00668
2542.25240,0.00703
2540.19222,0.00735
2538.13205,0.00754
2536.07188,0.00746
2534.01171,0.00717
2531.95154,0.00713
2529.89136,0.00718
2527.83119,0.00691
2525.77102,0.00651
2523.71085,0.00645
2521.65067,0.00670
2519.59050,0.00693
2517.53033,0.00713
2515.47016,0.00726
2513.40999,0.00717
2511.34981,0.00711
2509.28964,0.00724
2507.22947,0.00723
2505.16930,0.00708
2503.10913,0.00706
2501.04895,0.00707
2498.98878,0.00718
2496.92861,0.00753
2494.86844,0.00770
2492.80827,0.00763
2490.74809,0.00763
2488.68792,0.00769
2486.62775,0.00768
2484.56758,0.00769
2482.50740,0.00765
2480.44723,0.00753
2478.38706,0.00752
2476.32689,0.00761
2474.26672,0.00765
2472.20654,0.00761
2470.14637,0.00755
2468.08620,0.00770
2466.02603,0.00813
2463.96586,0.00843
2461.90568,0.00826
2459.84551,0.00796
2457.78534,0.00789
2455.72517,0.00792
2453.66499,0.00796
2451.60482,0.00808
2449.54465,0.00817
2447.48448,0.00802
2445.42431,0.00789
2443.36413,0.00809
2441.30396,0.00822
2439.24379,0.00809
2437.18362,0.00800
2435.12345,0.00811
2433.06327,0.00816
2431.00310,0.00790
2428.94293,0.00745
2426.88276,0.00726
2424.82259,0.00749
2422.76241,0.00772
2420.70224,0.00778
2418.64207,0.00779
2416.58190,0.00774
2414.52172,0.00772
2412.46155,0.00768
2410.40138,0.00768
2408.34121,0.00779
2406.28104,0.00771
2404.22086,0.00740
2402.16069,0.00731
2400.10052,0.00746
2398.04035,0.00747
2395.98018,0.00746
2393.92000,0.00753
2391.85983,0.00756
2389.79966,0.00750
2387.73949,0.00752
2385.67931,0.00777
2383.61914,0.00799
2381.55897,0.00776
2379.49880,0.00722
2377.43863,0.00695
2375.37845,0.00686
2373.31828,0.00728
2371.25811,0.00812
2369.19794,0.00824
2367.13777,0.00810
2365.07759,0.00879
2363.01742,0.00935
2360.95725,0.01089
2358.89708,0.01051
2356.83691,0.00860
2354.77673,0.00694
2352.71656,0.00730
2350.65639,0.01051
2348.59622,0.01200
2346.53604,0.00799
2344.47587,0.00716
2342.41570,0.00853
2340.35553,0.00946
2338.29536,0.00957
2336.23518,0.00881
2334.17501,0.00829
2332.11484,0.00806
2330.05467,0.00811
2327.99450,0.00828
2325.93432,0.00942
2323.87415,0.00956
2321.81398,0.00926
2319.75381,0.00846
2317.69364,0.00834
2315.63346,0.00804
2313.57329,0.00775
2311.51312,0.00768
2309.45295,0.00763
2307.39277,0.00776
2305.33260,0.00796
2303.27243,0.00801
2301.21226,0.00766
2299.15209,0.00727
2297.09191,0.00696
2295.03174,0.00687
2292.97157,0.00722
2290.91140,0.00772
2288.85123,0.00794
2286.79105,0.00768
2284.73088,0.00721
2282.67071,0.00704
2280.61054,0.00732
2278.55036,0.00763
2276.49019,0.00757
2274.43002,0.00733
2272.36985,0.00694
2270.30968,0.00652
2268.24950,0.00646
2266.18933,0.00681
2264.12916,0.00712
2262.06899,0.00720
2260.00882,0.00739
2257.94864,0.00775
2255.88847,0.00739
2253.82830,0.00628
2251.76813,0.00567
2249.70796,0.00603
2247.64778,0.00646
2245.58761,0.00638
2243.52744,0.00586
2241.46727,0.00555
2239.40709,0.00613
2237.34692,0.00681
2235.28675,0.00701
2233.22658,0.00711
2231.16641,0.00693
2229.10623,0.00604
2227.04606,0.00472
2224.98589,0.00419
2222.92572,0.00474
2220.86555,0.00491
2218.80537,0.00447
2216.74520,0.00435
2214.68503,0.00473
2212.62486,0.00526
2210.56469,0.00560
2208.50451,0.00579
2206.44434,0.00576
2204.38417,0.00528
2202.32400,0.00471
2200.26382,0.00470
2198.20365,0.00541
2196.14348,0.00625
2194.08331,0.00643
2192.02314,0.00592
2189.96296,0.00585
2187.90279,0.00617
2185.84262,0.00553
2183.78245,0.00412
2181.72228,0.00330
2179.66210,0.00368
2177.60193,0.00438
2175.54176,0.00446
2173.48159,0.00449
2171.42141,0.00493
2169.36124,0.00535
2167.30107,0.00513
2165.24090,0.00430
2163.18073,0.00361
2161.12055,0.00257
2159.06038,0.00125
2157.00021,0.00120
2154.94004,0.00198
2152.87987,0.00239
2150.81969,0.00210
2148.75952,0.00191
2146.69935,0.00221
2144.63918,0.00255
2142.57901,0.00285
2140.51883,0.00260
2138.45866,0.00186
2136.39849,0.00173
2134.33832,0.00217
2132.27814,0.00241
2130.21797,0.00246
2128.15780,0.00238
2126.09763,0.00215
2124.03746,0.00237
2121.97728,0.00320
2119.91711,0.00372
2117.85694,0.00357
2115.79677,0.00331
2113.73660,0.00336
2111.67642,0.00353
2109.61625,0.00339
2107.55608,0.00326
2105.49591,0.00352
2103.43573,0.00376
2101.37556,0.00375
2099.31539,0.00354
2097.25522,0.00344
2095.19505,0.00368
2093.13487,0.00392
2091.07470,0.00395
2089.01453,0.00399
2086.95436,0.00424
2084.89419,0.00444
2082.83401,0.00444
2080.77384,0.00451
2078.71367,0.00442
2076.65350,0.00366
2074.59333,0.00282
2072.53315,0.00287
2070.47298,0.00342
2068.41281,0.00367
2066.35264,0.00351
2064.29246,0.00280
2062.23229,0.00206
2060.17212,0.00223
2058.11195,0.00304
2056.05178,0.00352
2053.99160,0.00341
2051.93143,0.00288
2049.87126,0.00244
2047.81109,0.00273
2045.75092,0.00325
2043.69074,0.00339
2041.63057,0.00348
2039.57040,0.00348
2037.51023,0.00301
2035.45006,0.00216
2033.38988,0.00148
2031.32971,0.00173
2029.26954,0.00253
2027.20937,0.00306
2025.14919,0.00304
2023.08902,0.00284
2021.02885,0.00330
2018.96868,0.00378
2016.90851,0.00325
2014.84833,0.00261
2012.78816,0.00229
2010.72799,0.00201
2008.66782,0.00186
2006.60765,0.00178
2004.54747,0.00178
2002.48730,0.00139
2000.42713,0.00063
1998.36696,0.00081
1996.30678,0.00224
1994.24661,0.00335
1992.18644,0.00326
1990.12627,0.00306
1988.06610,0.00330
1986.00592,0.00311
1983.94575,0.00266
1981.88558,0.00283
1979.82541,0.00310
1977.76524,0.00225
1975.70506,0.00069
1973.64489,0.00003
1971.58472,0.00061
1969.52455,0.00125
1967.46438,0.00124
1965.40420,0.00084
1963.34403,0.00044
1961.28386,0.00066
1959.22369,0.00156
1957.16351,0.00223
1955.10334,0.00237
1953.04317,0.00244
1950.98300,0.00250
1948.92283,0.00230
1946.86265,0.00208
1944.80248,0.00184
1942.74231,0.00135
1940.68214,0.00106
1938.62197,0.00145
1936.56179,0.00203
1934.50162,0.00210
1932.44145,0.00189
1930.38128,0.00199
1928.32111,0.00212
1926.26093,0.00193
1924.20076,0.00183
1922.14059,0.00199
1920.08042,0.00208
1918.02024,0.00194
1915.96007,0.00160
1913.89990,0.00149
1911.83973,0.00199
1909.77956,0.00272
1907.71938,0.00316
1905.65921,0.00329
1903.59904,0.00336
1901.53887,0.00348
1899.47870,0.00342
1897.41852,0.00310
1895.35835,0.00267
1893.29818,0.00227
1891.23801,0.00207
1889.17783,0.00208
1887.11766,0.00219
1885.05749,0.00237
1882.99732,0.00253
1880.93715,0.00247
1878.87697,0.00227
1876.81680,0.00222
1874.75663,0.00233
1872.69646,0.00241
1870.63629,0.00241
1868.57611,0.00246
1866.51594,0.00255
1864.45577,0.00264
1862.39560,0.00271
1860.33543,0.00267
1858.27525,0.00248
1856.21508,0.00217
1854.15491,0.00186
1852.09474,0.00180
1850.03456,0.00208
1847.97439,0.00244
1845.91422,0.00257
1843.85405,0.00251
1841.79388,0.00242
1839.73370,0.00234
1837.67353,0.00236
1835.61336,0.00237
1833.55319,0.00232
1831.49302,0.00231
1829.43284,0.00232
1827.37267,0.00233
1825.31250,0.00239
1823.25233,0.00226
1821.19216,0.00195
1819.13198,0.00174
1817.07181,0.00179
1815.01164,0.00202
1812.95147,0.00223
1810.89129,0.00238
1808.83112,0.00251
1806.77095,0.00262
1804.71078,0.00265
1802.65061,0.00266
1800.59043,0.00264
1798.53026,0.00248
1796.47009,0.00236
1794.40992,0.00245
1792.34975,0.00253
1790.28957,0.00243
1788.22940,0.00228
1786.16923,0.00221
1784.10906,0.00230
1782.04888,0.00249
1779.98871,0.00259
1777.92854,0.00259
1775.86837,0.00283
1773.80820,0.00344
1771.74802,0.00379
1769.68785,0.00330
1767.62768,0.00263
1765.56751,0.00248
1763.50734,0.00270
1761.44716,0.00285
1759.38699,0.00291
1757.32682,0.00304
1755.26665,0.00327
1753.20648,0.00353
1751.14630,0.00380
1749.08613,0.00399
1747.02596,0.00412
1744.96579,0.00428
1742.90561,0.00442
1740.84544,0.00450
1738.78527,0.00451
1736.72510,0.00448
1734.66493,0.00454
1732.60475,0.00470
1730.54458,0.00474
1728.48441,0.00465
1726.42424,0.00459
1724.36407,0.00462
1722.30389,0.00470
1720.24372,0.00488
1718.18355,0.00526
1716.12338,0.00547
1714.06320,0.00525
1712.00303,0.00501
1709.94286,0.00508
1707.88269,0.00544
1705.82252,0.00583
1703.76234,0.00608
1701.70217,0.00633
1699.64200,0.00681
1697.58183,0.00746
1695.52166,0.00815
1693.46148,0.00862
1691.40131,0.00891
1689.34114,0.00939
1687.28097,0.01019
1685.22080,0.01125
1683.16062,0.01208
1681.10045,0.01236
1679.04028,0.01253
1676.98011,0.01289
1674.91993,0.01343
1672.85976,0.01411
1670.79959,0.01495
1668.73942,0.01581
1666.67925,0.01640
1664.61907,0.01698
1662.55890,0.01755
1660.49873,0.01780
1658.43856,0.01792
1656.37839,0.01824
1654.31821,0.01894
1652.25804,0.01965
1650.19787,0.01986
1648.13770,0.01994
1646.07753,0.01980
1644.01735,0.01918
1641.95718,0.01865
1639.89701,0.01852
1637.83684,0.01851
1635.77666,0.01818
1633.71649,0.01753
1631.65632,0.01698
1629.59615,0.01665
1627.53598,0.01643
1625.47580,0.01626
1623.41563,0.01607
1621.35546,0.01573
1619.29529,0.01542
1617.23512,0.01528
1615.17494,0.01503
1613.11477,0.01464
1611.05460,0.01429
1608.99443,0.01394
1606.93425,0.01363
1604.87408,0.01343
1602.81391,0.01323
1600.75374,0.01296
1598.69357,0.01277
1596.63339,0.01263
1594.57322,0.01239
1592.51305,0.01205
1590.45288,0.01174
1588.39271,0.01154
1586.33253,0.01132
1584.27236,0.01099
1582.21219,0.01063
1580.15202,0.01042
1578.09185,0.01047
1576.03167,0.01062
1573.97150,0.01050
1571.91133,0.01026
1569.85116,0.01010
1567.79098,0.00983
1565.73081,0.00948
1563.67064,0.00928
1561.61047,0.00940
1559.55030,0.00996
1557.49012,0.01025
1555.42995,0.00974
1553.36978,0.00907
1551.30961,0.00875
1549.24944,0.00870
1547.18926,0.00878
1545.12909,0.00912
1543.06892,0.00973
1541.00875,0.01013
1538.94858,0.00967
1536.88840,0.00884
1534.82823,0.00830
1532.76806,0.00796
1530.70789,0.00763
1528.64771,0.00735
1526.58754,0.00725
1524.52737,0.00746
1522.46720,0.00771
1520.40703,0.00754
1518.34685,0.00714
1516.28668,0.00675
1514.22651,0.00629
1512.16634,0.00595
1510.10617,0.00598
1508.04599,0.00619
1505.98582,0.00599
1503.92565,0.00540
1501.86548,0.00501
1499.80530,0.00504
1497.74513,0.00522
1495.68496,0.00512
1493.62479,0.00485
1491.56462,0.00470
1489.50444,0.00446
1487.44427,0.00395
1485.38410,0.00356
1483.32393,0.00354
1481.26376,0.00369
1479.20358,0.00377
1477.14341,0.00384
1475.08324,0.00409
1473.02307,0.00439
1470.96290,0.00440
1468.90272,0.00426
1466.84255,0.00434
1464.78238,0.00465
1462.72221,0.00490
1460.66203,0.00503
1458.60186,0.00525
1456.54169,0.00536
1454.48152,0.00511
1452.42135,0.00487
1450.36117,0.00491
1448.30100,0.00507
1446.24083,0.00511
1444.18066,0.00504
1442.12049,0.00500
1440.06031,0.00499
1438.00014,0.00496
1435.93997,0.00488
1433.87980,0.00479
1431.81963,0.00477
1429.75945,0.00487
1427.69928,0.00507
1425.63911,0.00529
1423.57894,0.00539
1421.51876,0.00541
1419.45859,0.00554
1417.39842,0.00559
1415.33825,0.00540
1413.27808,0.00526
1411.21790,0.00527
1409.15773,0.00525
1407.09756,0.00513
1405.03739,0.00498
1402.97722,0.00484
1400.91704,0.00476
1398.85687,0.00470
1396.79670,0.00463
1394.73653,0.00452
1392.67635,0.00437
1390.61618,0.00424
1388.55601,0.00416
1386.49584,0.00405
1384.43567,0.00394
1382.37549,0.00390
1380.31532,0.00391
1378.25515,0.00397
1376.19498,0.00405
1374.13481,0.00398
1372.07463,0.00375
1370.01446,0.00361
1367.95429,0.00358
1365.89412,0.00354
1363.83395,0.00357
1361.77377,0.00366
1359.71360,0.00360
1357.65343,0.00341
1355.59326,0.00328
1353.53308,0.00321
1351.47291,0.00311
1349.41274,0.00295
1347.35257,0.00280
1345.29240,0.00274
1343.23222,0.00274
1341.17205,0.00272
1339.11188,0.00264
1337.05171,0.00255
1334.99154,0.00249
1332.93136,0.00246
1330.87119,0.00242
1328.81102,0.00243
1326.75085,0.00250
1324.69067,0.00259
1322.63050,0.00271
1320.57033,0.00286
1318.51016,0.00299
1316.44999,0.00311
1314.38981,0.00321
1312.32964,0.00325
1310.26947,0.00323
1308.20930,0.00318
1306.14913,0.00311
1304.08895,0.00311
1302.02878,0.00322
1299.96861,0.00339
1297.90844,0.00354
1295.84827,0.00370
1293.78809,0.00397
1291.72792,0.00424
1289.66775,0.00437
1287.60758,0.00436
1285.54740,0.00426
1283.48723,0.00410
1281.42706,0.00397
1279.36689,0.00394
1277.30672,0.00396
1275.24654,0.00399
1273.18637,0.00402
1271.12620,0.00408
1269.06603,0.00405
1267.00586,0.00386
1264.94568,0.00371
1262.88551,0.00376
1260.82534,0.00389
1258.76517,0.00393
1256.70500,0.00390
1254.64482,0.00392
1252.58465,0.00399
1250.52448,0.00399
1248.46431,0.00391
1246.40413,0.00384
1244.34396,0.00371
1242.28379,0.00352
1240.22362,0.00342
1238.16345,0.00335
1236.10327,0.00330
1234.04310,0.00330
1231.98293,0.00323
1229.92276,0.00306
1227.86259,0.00288
1225.80241,0.00270
1223.74224,0.00246
1221.68207,0.00222
1219.62190,0.00202
1217.56172,0.00182
1215.50155,0.00160
1213.44138,0.00142
1211.38121,0.00131
1209.32104,0.00109
1207.26086,0.00074
1205.20069,0.00052
1203.14052,0.00047
1201.08035,0.00046
1199.02018,0.00043
1196.96000,0.00031
1194.89983,0.00012
1192.83966,0.00004
1190.77949,0.00012
1188.71932,0.00038
1186.65914,0.00063
1184.59897,0.00065
1182.53880,0.00052
1180.47863,0.00048
1178.41845,0.00065
1176.35828,0.00096
1174.29811,0.00129
1172.23794,0.00159
1170.17777,0.00189
1168.11759,0.00223
1166.05742,0.00257
1163.99725,0.00289
1161.93708,0.00331
1159.87691,0.00389
1157.81673,0.00448
1155.75656,0.00498
1153.69639,0.00541
1151.63622,0.00596
1149.57605,0.00671
1147.51587,0.00743
1145.45570,0.00814
1143.39553,0.00908
1141.33536,0.01013
1139.27518,0.01104
1137.21501,0.01185
1135.15484,0.01282
1133.09467,0.01388
1131.03450,0.01494
1128.97432,0.01609
1126.91415,0.01730
1124.85398,0.01852
1122.79381,0.01971
1120.73364,0.02086
1118.67346,0.02209
1116.61329,0.02335
1114.55312,0.02453
1112.49295,0.02573
1110.43277,0.02705
1108.37260,0.02837
1106.31243,0.02952
1104.25226,0.03053
1102.19209,0.03150
1100.13191,0.03239
1098.07174,0.03325
1096.01157,0.03417
1093.95140,0.03509
1091.89123,0.03595
1089.83105,0.03682
1087.77088,0.03772
1085.71071,0.03856
1083.65054,0.03932
1081.59037,0.03997
1079.53019,0.04063
1077.47002,0.04131
1075.40985,0.04192
1073.34968,0.04242
1071.28950,0.04278
1069.22933,0.04303
1067.16916,0.04318
1065.10899,0.04311
1063.04882,0.04288
1060.98864,0.04260
1058.92847,0.04209
1056.86830,0.04126
1054.80813,0.04013
1052.74796,0.03888
1050.68778,0.03773
1048.62761,0.03655
1046.56744,0.03512
1044.50727,0.03350
1042.44710,0.03183
1040.38692,0.03021
1038.32675,0.02876
1036.26658,0.02743
1034.20641,0.02599
1032.14623,0.02452
1030.08606,0.02323
1028.02589,0.02199
1025.96572,0.02072
1023.90555,0.01964
1021.84537,0.01877
1019.78520,0.01795
1017.72503,0.01734
1015.66486,0.01714
1013.60469,0.01717
1011.54451,0.01727
1009.48434,0.01733
1007.42417,0.01733
1005.36400,0.01756
1003.30382,0.01820
1001.24365,0.01901
999.18348,0.01975
997.12331,0.02059
995.06314,0.02167
993.00296,0.02277
990.94279,0.02379
988.88262,0.02476
986.82245,0.02554
984.76228,0.02624
982.70210,0.02686
980.64193,0.02716
978.58176,0.02714
976.52159,0.02698
974.46142,0.02662
972.40124,0.02611
970.34107,0.02554
968.28090,0.02483
966.22073,0.02387
964.16055,0.02262
962.10038,0.02132
960.04021,0.02024
957.98004,0.01918
955.91987,0.01808
953.85969,0.01703
951.79952,0.01598
949.73935,0.01500
947.67918,0.01419
945.61901,0.01343
943.55883,0.01267
941.49866,0.01195
939.43849,0.01137
937.37832,0.01089
935.31814,0.01027
933.25797,0.00952
931.19780,0.00904
929.13763,0.00880
927.07746,0.00859
925.01728,0.00840
922.95711,0.00811
920.89694,0.00776
918.83677,0.00759
916.77660,0.00735
914.71642,0.00687
912.65625,0.00646
910.59608,0.00626
908.53591,0.00625
906.47574,0.00641
904.41556,0.00656
902.35539,0.00671
900.29522,0.00687
898.23505,0.00710
896.17487,0.00749
894.11470,0.00790
892.05453,0.00821
889.99436,0.00855
887.93419,0.00893
885.87401,0.00921
883.81384,0.00955
881.75367,0.01004
879.69350,0.01051
877.63333,0.01103
875.57315,0.01176
873.51298,0.01249
871.45281,0.01303
869.39264,0.01338
867.33247,0.01358
865.27229,0.01378
863.21212,0.01402
861.15195,0.01409
859.09178,0.01398
857.03160,0.01393
854.97143,0.01401
852.91126,0.01419
850.85109,0.01412
848.79092,0.01362
846.73074,0.01325
844.67057,0.01301
842.61040,0.01233
840.55023,0.01153
838.49006,0.01081
836.42988,0.01011
834.36971,0.00953
832.30954,0.00888
830.24937,0.00814
828.18919,0.00748
826.12902,0.00688
824.06885,0.00624
822.00868,0.00560
819.94851,0.00508
817.88833,0.00478
815.82816,0.00456
813.76799,0.00418
811.70782,0.00389
809.64765,0.00388
807.58747,0.00383
805.52730,0.00357
803.46713,0.00332
801.40696,0.00315
799.34679,0.00283
797.28661,0.00248
795.22644,0.00241
793.16627,0.00240
791.10610,0.00222
789.04592,0.00236
786.98575,0.00278
784.92558,0.00282
782.86541,0.00250
780.80524,0.00228
778.74506,0.00239
776.68489,0.00275
774.62472,0.00302
772.56455,0.00298
770.50438,0.00291
768.44420,0.00292
766.38403,0.00304
764.32386,0.00328
762.26369,0.00327
760.20352,0.00300
758.14334,0.00294
756.08317,0.00313
754.02300,0.00330
751.96283,0.00333
749.90265,0.00322
747.84248,0.00310
745.78231,0.00298
743.72214,0.00296
741.66197,0.00312
739.60179,0.00314
737.54162,0.00301
735.48145,0.00304
733.42128,0.00295
731.36111,0.00255
729.30093,0.00232
727.24076,0.00235
725.18059,0.00227
723.12042,0.00244
721.06024,0.00239
719.00007,0.00280
716.93990,0.00250
714.87973,0.00171
712.81956,0.00150
710.75938,0.00177
708.69921,0.00202
706.63904,0.00218
704.57887,0.00233
702.51870,0.00252
700.45852,0.00267
698.39835,0.00264
696.33818,0.00253
694.27801,0.00253
692.21784,0.00262
690.15766,0.00276
688.09749,0.00316
686.03732,0.00383
683.97715,0.00448
681.91697,0.00498
679.85680,0.00518
677.79663,0.00512
675.73646,0.00514
673.67629,0.00618
671.61611,0.00824
669.55594,0.00491
667.49577,0.00014
665.43560,0.00671
663.37543,0.00444
661.31525,0.00229
659.25508,0.00327
657.19491,0.00463
655.13474,0.00472
653.07457,0.00404
651.01439,0.00365
648.95422,0.00338
646.89405,0.00330
644.83388,0.00329
642.77370,0.00374
640.71353,0.00427
638.65336,0.00391
636.59319,0.00282
634.53302,0.00243
632.47284,0.00275
630.41267,0.00243
628.35250,0.00148
626.29233,0.00098
624.23216,0.00155
622.17198,0.00233
620.11181,0.00135
618.05164,0.00089
615.99147,0.00354
613.93129,0.00545
611.87112,0.00375
609.81095,0.00144
607.75078,0.00061
605.69061,0.00022
603.63043,0.00005
601.57026,0.00000
599.51009,0.00000
