3996.73391,0.00065
3994.67374,0.00049
3992.61357,0.00043
3990.55339,0.00047
3988.49322,0.00034
3986.43305,0.00015
3984.37288,0.00017
3982.31271,0.00041
3980.25253,0.00064
3978.19236,0.00081
3976.13219,0.00102
3974.07202,0.00115
3972.01184,0.00124
3969.95167,0.00130
3967.89150,0.00111
3965.83133,0.00072
3963.77116,0.00055
3961.71098,0.00063
3959.65081,0.00064
3957.59064,0.00046
3955.53047,0.00027
3953.47030,0.00014
3951.41012,0.00001
3949.34995,0.00000
3947.28978,0.00025
3945.22961,0.00064
3943.16943,0.00095
3941.10926,0.00090
3939.04909,0.00050
3936.98892,0.00031
3934.92875,0.00053
3932.86857,0.00075
3930.80840,0.00066
3928.74823,0.00059
3926.68806,0.00064
3924.62789,0.00066
3922.56771,0.00056
3920.50754,0.00037
3918.44737,0.00029
3916.38720,0.00046
3914.32703,0.00076
3912.26685,0.00099
3910.20668,0.00108
3908.14651,0.00106
3906.08634,0.00110
3904.02616,0.00125
3901.96599,0.00128
3899.90582,0.00106
3897.84565,0.00094
3895.78548,0.00095
3893.72530,0.00078
3891.66513,0.00041
3889.60496,0.00019
3887.54479,0.00029
3885.48462,0.00059
3883.42444,0.00073
3881.36427,0.00063
3879.30410,0.00053
3877.24393,0.00037
3875.18376,0.00023
3873.12358,0.00037
3871.06341,0.00065
3869.00324,0.00082
3866.94307,0.00092
3864.88289,0.00088
3862.82272,0.00069
3860.76255,0.00048
3858.70238,0.00049
3856.64221,0.00090
3854.58203,0.00159
3852.52186,0.00180
3850.46169,0.00122
3848.40152,0.00072
3846.34135,0.00066
3844.28117,0.00082
3842.22100,0.00092
3840.16083,0.00078
3838.10066,0.00046
3836.04048,0.00038
3833.98031,0.00058
3831.92014,0.00074
3829.85997,0.00078
3827.79980,0.00083
3825.73962,0.00092
3823.67945,0.00101
3821.61928,0.00113
3819.55911,0.00116
3817.49894,0.00095
3815.43876,0.00063
3813.37859,0.00045
3811.31842,0.00041
3809.25825,0.00042
3807.19808,0.00027
3805.13790,0.00001
3803.07773,0.00024
3801.01756,0.00111
3798.95739,0.00163
3796.89721,0.00133
3794.83704,0.00077
3792.77687,0.00043
3790.71670,0.00034
3788.65653,0.00040
3786.59635,0.00045
3784.53618,0.00031
3782.47601,0.00019
3780.41584,0.00036
3778.35567,0.00074
3776.29549,0.00097
3774.23532,0.00103
3772.17515,0.00111
3770.11498,0.00121
3768.05481,0.00116
3765.99463,0.00097
3763.93446,0.00071
3761.87429,0.00042
3759.81412,0.00035
3757.75394,0.00056
3755.69377,0.00061
3753.63360,0.00030
3751.57343,0.00005
3749.51326,0.00025
3747.45308,0.00082
3745.39291,0.00149
3743.33274,0.00175
3741.27257,0.00129
3739.21240,0.00066
3737.15222,0.00041
3735.09205,0.00048
3733.03188,0.00069
3730.97171,0.00082
3728.91153,0.00082
3726.85136,0.00095
3724.79119,0.00121
3722.73102,0.00142
3720.67085,0.00158
3718.61067,0.00148
3716.55050,0.00106
3714.49033,0.00085
3712.43016,0.00105
3710.36999,0.00113
3708.30981,0.00095
3706.24964,0.00075
3704.18947,0.00073
3702.12930,0.00095
3700.06913,0.00122
3698.00895,0.00137
3695.94878,0.00143
3693.88861,0.00140
3691.82844,0.00122
3689.76826,0.00086
3687.70809,0.00061
3685.64792,0.00078
3683.58775,0.00116
3681.52758,0.00139
3679.46740,0.00124
3677.40723,0.00095
3675.34706,0.00118
3673.28689,0.00191
3671.22672,0.00234
3669.16654,0.00230
3667.10637,0.00211
3665.04620,0.00193
3662.98603,0.00179
3660.92586,0.00181
3658.86568,0.00208
3656.80551,0.00236
3654.74534,0.00234
3652.68517,0.00231
3650.62499,0.00290
3648.56482,0.00387
3646.50465,0.00407
3644.44448,0.00370
3642.38431,0.00358
3640.32413,0.00379
3638.26396,0.00411
3636.20379,0.00446
3634.14362,0.00486
3632.08345,0.00519
3630.02327,0.00545
3627.96310,0.00569
3625.90293,0.00571
3623.84276,0.00559
3621.78258,0.00564
3619.72241,0.00599
3617.66224,0.00643
3615.60207,0.00677
3613.54190,0.00691
3611.48172,0.00679
3609.42155,0.00673
3607.36138,0.00723
3605.30121,0.00788
3603.24104,0.00816
3601.18086,0.00837
3599.12069,0.00872
3597.06052,0.00901
3595.00035,0.00917
3592.94018,0.00942
3590.88000,0.00965
3588.81983,0.00974
3586.75966,0.00986
3584.69949,0.01008
3582.63931,0.01030
3580.57914,0.01048
3578.51897,0.01063
3576.45880,0.01083
3574.39863,0.01111
3572.33845,0.01135
3570.27828,0.01145
3568.21811,0.01159
3566.15794,0.01208
3564.09777,0.01274
3562.03759,0.01315
3559.97742,0.01333
3557.91725,0.01342
3555.85708,0.01348
3553.79690,0.01370
3551.73673,0.01406
3549.67656,0.01429
3547.61639,0.01437
3545.55622,0.01446
3543.49604,0.01461
3541.43587,0.01478
3539.37570,0.01499
3537.31553,0.01526
3535.25536,0.01548
3533.19518,0.01556
3531.13501,0.01562
3529.07484,0.01577
3527.01467,0.01590
3524.95450,0.01614
3522.89432,0.01666
3520.83415,0.01717
3518.77398,0.01750
3516.71381,0.01783
3514.65363,0.01801
3512.59346,0.01779
3510.53329,0.01753
3508.47312,0.01778
3506.41295,0.01849
3504.35277,0.01900
3502.29260,0.01908
3500.23243,0.01932
3498.17226,0.01987
3496.11209,0.02020
3494.05191,0.02012
3491.99174,0.01993
3489.93157,0.01986
3487.87140,0.01999
3485.81123,0.02028
3483.75105,0.02053
3481.69088,0.02081
3479.63071,0.02125
3477.57054,0.02163
3475.51036,0.02183
3473.45019,0.02200
3471.39002,0.02203
3469.32985,0.02194
3467.26968,0.02201
3465.20950,0.02234
3463.14933,0.02279
3461.08916,0.02319
3459.02899,0.02335
3456.96882,0.02334
3454.90864,0.02332
3452.84847,0.02349
3450.78830,0.02379
3448.72813,0.02388
3446.66795,0.02379
3444.60778,0.02385
3442.54761,0.02413
3440.48744,0.02446
3438.42727,0.02474
3436.36709,0.02503
3434.30692,0.02535
3432.24675,0.02554
3430.18658,0.02548
3428.12641,0.02539
3426.06623,0.02552
3424.00606,0.02562
3421.94589,0.02555
3419.88572,0.02565
3417.82555,0.02602
3415.76537,0.02634
3413.70520,0.02644
3411.64503,0.02632
3409.58486,0.02620
3407.52468,0.02635
3405.46451,0.02673
3403.40434,0.02702
3401.34417,0.02724
3399.28400,0.02752
3397.22382,0.02783
3395.16365,0.02810
3393.10348,0.02822
3391.04331,0.02801
3388.98314,0.02778
3386.92296,0.02789
3384.86279,0.02819
3382.80262,0.02830
3380.74245,0.02823
3378.68228,0.02822
3376.62210,0.02828
3374.56193,0.02835
3372.50176,0.02839
3370.44159,0.02848
3368.38141,0.02868
3366.32124,0.02879
3364.26107,0.02873
3362.20090,0.02869
3360.14073,0.02876
3358.08055,0.02882
3356.02038,0.02884
3353.96021,0.02888
3351.90004,0.02891
3349.83987,0.02892
3347.77969,0.02902
3345.71952,0.02927
3343.65935,0.02949
3341.59918,0.02951
3339.53900,0.02956
3337.47883,0.02971
3335.41866,0.02974
3333.35849,0.02960
3331.29832,0.02947
3329.23814,0.02949
3327.17797,0.02963
3325.11780,0.02982
3323.05763,0.02984
3320.99746,0.02973
3318.93728,0.02983
3316.87711,0.03013
3314.81694,0.03029
3312.75677,0.03028
3310.69660,0.03034
3308.63642,0.03049
3306.57625,0.03048
3304.51608,0.03044
3302.45591,0.03056
3300.39573,0.03069
3298.33556,0.03064
3296.27539,0.03048
3294.21522,0.03059
3292.15505,0.03099
3290.09487,0.03112
3288.03470,0.03082
3285.97453,0.03051
3283.91436,0.03051
3281.85419,0.03081
3279.79401,0.03119
3277.73384,0.03132
3275.67367,0.03124
3273.61350,0.03131
3271.55333,0.03146
3269.49315,0.03138
3267.43298,0.03117
3265.37281,0.03119
3263.31264,0.03144
3261.25246,0.03158
3259.19229,0.03153
3257.13212,0.03143
3255.07195,0.03124
3253.01178,0.03112
3250.95160,0.03130
3248.89143,0.03159
3246.83126,0.03167
3244.77109,0.03168
3242.71092,0.03181
3240.65074,0.03187
3238.59057,0.03167
3236.53040,0.03146
3234.47023,0.03140
3232.41005,0.03143
3230.34988,0.03156
3228.28971,0.03167
3226.22954,0.03166
3224.16937,0.03152
3222.10919,0.03148
3220.04902,0.03166
3217.98885,0.03176
3215.92868,0.03162
3213.86851,0.03147
3211.80833,0.03150
3209.74816,0.03147
3207.68799,0.03134
3205.62782,0.03140
3203.56765,0.03158
3201.50747,0.03171
3199.44730,0.03175
3197.38713,0.03165
3195.32696,0.03144
3193.26678,0.03125
3191.20661,0.03111
3189.14644,0.03099
3187.08627,0.03096
3185.02610,0.03113
3182.96592,0.03143
3180.90575,0.03143
3178.84558,0.03104
3176.78541,0.03077
3174.72524,0.03070
3172.66506,0.03059
3170.60489,0.03066
3168.54472,0.03093
3166.48455,0.03107
3164.42437,0.03104
3162.36420,0.03099
3160.30403,0.03106
3158.24386,0.03108
3156.18369,0.03091
3154.12351,0.03077
3152.06334,0.03074
3150.00317,0.03076
3147.94300,0.03080
3145.88283,0.03078
3143.82265,0.03064
3141.76248,0.03043
3139.70231,0.03024
3137.64214,0.03009
3135.58197,0.03005
3133.52179,0.03012
3131.46162,0.03021
3129.40145,0.03031
3127.34128,0.03029
3125.28110,0.03004
3123.22093,0.02976
3121.16076,0.02977
3119.10059,0.02997
3117.04042,0.03006
3114.98024,0.02982
3112.92007,0.02932
3110.85990,0.02901
3108.79973,0.02919
3106.73956,0.02947
3104.67938,0.02947
3102.61921,0.02925
3100.55904,0.02910
3098.49887,0.02908
3096.43870,0.02903
3094.37852,0.02888
3092.31835,0.02872
3090.25818,0.02868
3088.19801,0.02870
3086.13783,0.02862
3084.07766,0.02838
3082.01749,0.02819
3079.95732,0.02818
3077.89715,0.02816
3075.83697,0.02811
3073.77680,0.02807
3071.71663,0.02790
3069.65646,0.02766
3067.59629,0.02748
3065.53611,0.02740
3063.47594,0.02738
3061.41577,0.02726
3059.35560,0.02702
3057.29542,0.02690
3055.23525,0.02702
3053.17508,0.02716
3051.11491,0.02709
3049.05474,0.02683
3046.99456,0.02653
3044.93439,0.02620
3042.87422,0.02587
3040.81405,0.02569
3038.75388,0.02562
3036.69370,0.02562
3034.63353,0.02558
3032.57336,0.02539
3030.51319,0.02513
3028.45302,0.02495
3026.39284,0.02489
3024.33267,0.02490
3022.27250,0.02490
3020.21233,0.02490
3018.15215,0.02490
3016.09198,0.02483
3014.03181,0.02475
3011.97164,0.02474
3009.91147,0.02476
3007.85129,0.02466
3005.79112,0.02436
3003.73095,0.02395
3001.67078,0.02372
2999.61061,0.02374
2997.55043,0.02376
2995.49026,0.02365
2993.43009,0.02344
2991.36992,0.02323
2989.30975,0.02317
2987.24957,0.02303
2985.18940,0.02278
2983.12923,0.02273
2981.06906,0.02294
2979.00888,0.02321
2976.94871,0.02331
2974.88854,0.02312
2972.82837,0.02276
2970.76820,0.02247
2968.70802,0.02242
2966.64785,0.02248
2964.58768,0.02246
2962.52751,0.02228
2960.46734,0.02191
2958.40716,0.02156
2956.34699,0.02152
2954.28682,0.02162
2952.22665,0.02165
2950.16647,0.02167
2948.10630,0.02160
2946.04613,0.02152
2943.98596,0.02154
2941.92579,0.02154
2939.86561,0.02141
2937.80544,0.02126
2935.74527,0.02115
2933.68510,0.02106
2931.62493,0.02094
2929.56475,0.02083
2927.50458,0.02075
2925.44441,0.02070
2923.38424,0.02071
2921.32407,0.02072
2919.26389,0.02069
2917.20372,0.02049
2915.14355,0.02011
2913.08338,0.01985
2911.02320,0.01985
2908.96303,0.01984
2906.90286,0.01968
2904.84269,0.01952
2902.78252,0.01943
2900.72234,0.01934
2898.66217,0.01924
2896.60200,0.01916
2894.54183,0.01902
2892.48166,0.01882
2890.42148,0.01867
2888.36131,0.01865
2886.30114,0.01865
2884.24097,0.01853
2882.18080,0.01822
2880.12062,0.01787
2878.06045,0.01777
2876.00028,0.01796
2873.94011,0.01814
2871.87993,0.01807
2869.81976,0.01779
2867.75959,0.01750
2865.69942,0.01742
2863.63925,0.01751
2861.57907,0.01742
2859.51890,0.01717
2857.45873,0.01697
2855.39856,0.01679
2853.33839,0.01668
2851.27821,0.01666
2849.21804,0.01651
2847.15787,0.01633
2845.09770,0.01627
2843.03752,0.01610
2840.97735,0.01588
2838.91718,0.01583
2836.85701,0.01579
2834.79684,0.01566
2832.73666,0.01548
2830.67649,0.01523
2828.61632,0.01505
2826.55615,0.01504
2824.49598,0.01505
2822.43580,0.01493
2820.37563,0.01476
2818.31546,0.01465
2816.25529,0.01460
2814.19512,0.01443
2812.13494,0.01428
2810.07477,0.01433
2808.01460,0.01444
2805.95443,0.01441
2803.89425,0.01427
2801.83408,0.01412
2799.77391,0.01401
2797.71374,0.01400
2795.65357,0.01402
2793.59339,0.01393
2791.53322,0.01376
2789.47305,0.01353
2787.41288,0.01330
2785.35271,0.01323
2783.29253,0.01327
2781.23236,0.01329
2779.17219,0.01327
2777.11202,0.01318
2775.05184,0.01298
2772.99167,0.01272
2770.93150,0.01251
2768.87133,0.01250
2766.81116,0.01259
2764.75098,0.01252
2762.69081,0.01227
2760.63064,0.01205
2758.57047,0.01200
2756.51030,0.01198
2754.45012,0.01190
2752.38995,0.01186
2750.32978,0.01188
2748.26961,0.01182
2746.20944,0.01175
2744.14926,0.01174
2742.08909,0.01171
2740.02892,0.01153
2737.96875,0.01129
2735.90857,0.01114
2733.84840,0.01109
2731.78823,0.01096
2729.72806,0.01078
2727.66789,0.01082
2725.60771,0.01097
2723.54754,0.01085
2721.48737,0.01057
2719.42720,0.01041
2717.36703,0.01034
2715.30685,0.01029
2713.24668,0.01031
2711.18651,0.01037
2709.12634,0.01034
2707.06617,0.01012
2705.00599,0.00992
2702.94582,0.00989
2700.88565,0.00986
2698.82548,0.00976
2696.76530,0.00968
2694.70513,0.00966
2692.64496,0.00969
2690.58479,0.00963
2688.52462,0.00949
2686.46444,0.00937
2684.40427,0.00919
2682.34410,0.00910
2680.28393,0.00923
2678.22376,0.00938
2676.16358,0.00933
2674.10341,0.00921
2672.04324,0.00914
2669.98307,0.00907
2667.92289,0.00898
2665.86272,0.00894
2663.80255,0.00889
2661.74238,0.00883
2659.68221,0.00884
2657.62203,0.00882
2655.56186,0.00872
2653.50169,0.00856
2651.44152,0.00843
2649.38135,0.00843
2647.32117,0.00845
2645.26100,0.00835
2643.20083,0.00815
2641.14066,0.00805
2639.08049,0.00812
2637.02031,0.00822
2634.96014,0.00827
2632.89997,0.00828
2630.83980,0.00818
2628.77962,0.00792
2626.71945,0.00764
2624.65928,0.00759
2622.59911,0.00763
2620.53894,0.00751
2618.47876,0.00733
2616.41859,0.00731
2614.35842,0.00740
2612.29825,0.00732
2610.23808,0.00717
2608.17790,0.00721
2606.11773,0.00734
2604.05756,0.00727
2601.99739,0.00705
2599.93722,0.00692
2597.87704,0.00682
2595.81687,0.00665
2593.75670,0.00656
2591.69653,0.00680
2589.63635,0.00706
2587.57618,0.00696
2585.51601,0.00673
2583.45584,0.00666
2581.39567,0.00657
2579.33549,0.00646
2577.27532,0.00660
2575.21515,0.00681
2573.15498,0.00680
2571.09481,0.00671
2569.03463,0.00663
2566.97446,0.00641
2564.91429,0.00620
2562.85412,0.00623
2560.79394,0.00646
2558.73377,0.00667
2556.67360,0.00667
2554.61343,0.00658
2552.55326,0.00655
2550.49308,0.00648
2548.43291,0.00624
2546.37274,0.00600
2544.31257,0.00593
2542.25240,0.00602
2540.19222,0.00620
2538.13205,0.00648
2536.07188,0.00661
2534.01171,0.00658
2531.95154,0.00657
2529.89136,0.00640
2527.83119,0.00608
2525.77102,0.00594
2523.71085,0.00622
2521.65067,0.00663
2519.59050,0.00672
2517.53033,0.00677
2515.47016,0.00682
2513.40999,0.00660
2511.34981,0.00643
2509.28964,0.00655
2507.22947,0.00654
2505.16930,0.00637
2503.10913,0.00647
2501.04895,0.00659
2498.98878,0.00650
2496.92861,0.00644
2494.86844,0.00645
2492.80827,0.00639
2490.74809,0.00626
2488.68792,0.00618
2486.62775,0.00635
2484.56758,0.00669
2482.50740,0.00681
2480.44723,0.00667
2478.38706,0.00677
2476.32689,0.00716
2474.26672,0.00744
2472.20654,0.00741
2470.14637,0.00711
2468.08620,0.00688
2466.02603,0.00708
2463.96586,0.00724
2461.90568,0.00706
2459.84551,0.00702
2457.78534,0.00722
2455.72517,0.00734
2453.66499,0.00734
2451.60482,0.00726
2449.54465,0.00717
2447.48448,0.00699
2445.42431,0.00680
2443.36413,0.00685
2441.30396,0.00702
2439.24379,0.00717
2437.18362,0.00735
2435.12345,0.00742
2433.06327,0.00726
2431.00310,0.00707
2428.94293,0.00686
2426.88276,0.00671
2424.82259,0.00671
2422.76241,0.00662
2420.70224,0.00660
2418.64207,0.00683
2416.58190,0.00702
2414.52172,0.00704
2412.46155,0.00712
2410.40138,0.00722
2408.34121,0.00709
2406.28104,0.00679
2404.22086,0.00669
2402.16069,0.00680
2400.10052,0.00675
2398.04035,0.00645
2395.98018,0.00632
2393.92000,0.00659
2391.85983,0.00697
2389.79966,0.00704
2387.73949,0.00680
2385.67931,0.00664
2383.61914,0.00675
2381.55897,0.00681
2379.49880,0.00663
2377.43863,0.00644
2375.37845,0.00654
2373.31828,0.00680
2371.25811,0.00680
2369.19794,0.00654
2367.13777,0.00665
2365.07759,0.00774
2363.01742,0.00873
2360.95725,0.00775
2358.89708,0.00684
2356.83691,0.00672
2354.77673,0.00680
2352.71656,0.00690
2350.65639,0.00633
2348.59622,0.00585
2346.53604,0.00678
2344.47587,0.00698
2342.41570,0.00675
2340.35553,0.00663
2338.29536,0.00671
2336.23518,0.00689
2334.17501,0.00679
2332.11484,0.00651
2330.05467,0.00634
2327.99450,0.00695
2325.93432,0.00787
2323.87415,0.00867
2321.81398,0.00881
2319.75381,0.00846
2317.69364,0.00746
2315.63346,0.00673
2313.57329,0.00673
2311.51312,0.00708
2309.45295,0.00722
2307.39277,0.00704
2305.33260,0.00688
2303.27243,0.00696
2301.21226,0.00706
2299.15209,0.00687
2297.09191,0.00672
2295.03174,0.00681
2292.97157,0.00697
2290.91140,0.00714
2288.85123,0.00720
2286.79105,0.00708
2284.73088,0.00702
2282.67071,0.00716
2280.61054,0.00735
2278.55036,0.00734
2276.49019,0.00719
2274.43002,0.00699
2272.36985,0.00670
2270.30968,0.00648
2268.24950,0.00655
2266.18933,0.00660
2264.12916,0.00634
2262.06899,0.00620
2260.00882,0.00666
2257.94864,0.00716
2255.88847,0.00709
2253.82830,0.00669
2251.76813,0.00637
2249.70796,0.00621
2247.64778,0.00607
2245.58761,0.00604
2243.52744,0.00608
2241.46727,0.00612
2239.40709,0.00628
2237.34692,0.00610
2235.28675,0.00562
2233.22658,0.00566
2231.16641,0.00612
2229.10623,0.00620
2227.04606,0.00554
2224.98589,0.00478
2222.92572,0.00470
2220.86555,0.00491
2218.80537,0.00468
2216.74520,0.00444
2214.68503,0.00511
2212.62486,0.00620
2210.56469,0.00630
2208.50451,0.00554
2206.44434,0.00497
2204.38417,0.00495
2202.32400,0.00508
2200.26382,0.00509
2198.20365,0.00551
2196.14348,0.00606
2194.08331,0.00592
2192.02314,0.00575
2189.96296,0.00622
2187.90279,0.00670
2185.84262,0.00648
2183.78245,0.00562
2181.72228,0.00491
2179.66210,0.00490
2177.60193,0.00527
2175.54176,0.00563
2173.48159,0.00575
2171.42141,0.00565
2169.36124,0.00543
2167.30107,0.00524
2165.24090,0.00502
2163.18073,0.00393
2161.12055,0.00199
2159.06038,0.00159
2157.00021,0.00288
2154.94004,0.00338
2152.87987,0.00295
2150.81969,0.00256
2148.75952,0.00257
2146.69935,0.00275
2144.63918,0.00317
2142.57901,0.00362
2140.51883,0.00353
2138.45866,0.00339
2136.39849,0.00354
2134.33832,0.00356
2132.27814,0.00325
2130.21797,0.00310
2128.15780,0.00312
2126.09763,0.00310
2124.03746,0.00367
2121.97728,0.00451
2119.91711,0.00457
2117.85694,0.00430
2115.79677,0.00434
2113.73660,0.00438
2111.67642,0.00395
2109.61625,0.00319
2107.55608,0.00300
2105.49591,0.00336
2103.43573,0.00365
2101.37556,0.00369
2099.31539,0.00356
2097.25522,0.00367
2095.19505,0.00403
2093.13487,0.00465
2091.07470,0.00535
2089.01453,0.00545
2086.95436,0.00516
2084.89419,0.00508
2082.83401,0.00511
2080.77384,0.00519
2078.71367,0.00537
2076.65350,0.00517
2074.59333,0.00455
2072.53315,0.00415
2070.47298,0.00411
2068.41281,0.00420
2066.35264,0.00426
2064.29246,0.00403
2062.23229,0.00359
2060.17212,0.00347
2058.11195,0.00355
2056.05178,0.00371
2053.99160,0.00430
2051.93143,0.00504
2049.87126,0.00500
2047.81109,0.00415
2045.75092,0.00325
2043.69074,0.00310
2041.63057,0.00402
2039.57040,0.00482
2037.51023,0.00402
2035.45006,0.00259
2033.38988,0.00222
2031.32971,0.00242
2029.26954,0.00277
2027.20937,0.00350
2025.14919,0.00378
2023.08902,0.00346
2021.02885,0.00369
2018.96868,0.00446
2016.90851,0.00463
2014.84833,0.00423
2012.78816,0.00404
2010.72799,0.00415
2008.66782,0.00394
2006.60765,0.00318
2004.54747,0.00304
2002.48730,0.00369
2000.42713,0.00356
1998.36696,0.00309
1996.30678,0.00375
1994.24661,0.00483
1992.18644,0.00502
1990.12627,0.00472
1988.06610,0.00459
1986.00592,0.00396
1983.94575,0.00273
1981.88558,0.00218
1979.82541,0.00253
1977.76524,0.00221
1975.70506,0.00100
1973.64489,0.00013
1971.58472,0.00012
1969.52455,0.00047
1967.46438,0.00071
1965.40420,0.00093
1963.34403,0.00104
1961.28386,0.00127
1959.22369,0.00173
1957.16351,0.00201
1955.10334,0.00201
1953.04317,0.00175
1950.98300,0.00153
1948.92283,0.00189
1946.86265,0.00242
1944.80248,0.00221
1942.74231,0.00159
1940.68214,0.00159
1938.62197,0.00217
1936.56179,0.00256
1934.50162,0.00230
1932.44145,0.00185
1930.38128,0.00180
1928.32111,0.00199
1926.26093,0.00213
1924.20076,0.00218
1922.14059,0.00221
1920.08042,0.00229
1918.02024,0.00240
1915.96007,0.00242
1913.89990,0.00239
1911.83973,0.00248
1909.77956,0.00256
1907.71938,0.00256
1905.65921,0.00259
1903.59904,0.00271
1901.53887,0.00287
1899.47870,0.00289
1897.41852,0.00274
1895.35835,0.00256
1893.29818,0.00236
1891.23801,0.00233
1889.17783,0.00253
1887.11766,0.00263
1885.05749,0.00256
1882.99732,0.00255
1880.93715,0.00261
1878.87697,0.00258
1876.81680,0.00244
1874.75663,0.00233
1872.69646,0.00228
1870.63629,0.00224
1868.57611,0.00223
1866.51594,0.00233
1864.45577,0.00250
1862.39560,0.00253
1860.33543,0.00243
1858.27525,0.00242
1856.21508,0.00251
1854.15491,0.00236
1852.09474,0.00205
1850.03456,0.00204
1847.97439,0.00239
1845.91422,0.00262
1843.85405,0.00243
1841.79388,0.00212
1839.73370,0.00199
1837.67353,0.00199
1835.61336,0.00207
1833.55319,0.00223
1831.49302,0.00230
1829.43284,0.00221
1827.37267,0.00209
1825.31250,0.00200
1823.25233,0.00186
1821.19216,0.00169
1819.13198,0.00166
1817.07181,0.00188
1815.01164,0.00220
1812.95147,0.00240
1810.89129,0.00238
1808.83112,0.00231
1806.77095,0.00244
1804.71078,0.00269
1802.65061,0.00282
1800.59043,0.00270
1798.53026,0.00247
1796.47009,0.00238
1794.40992,0.00251
1792.34975,0.00261
1790.28957,0.00250
1788.22940,0.00234
1786.16923,0.00232
1784.10906,0.00238
1782.04888,0.00244
1779.98871,0.00246
1777.92854,0.00251
1775.86837,0.00262
1773.80820,0.00268
1771.74802,0.00265
1769.68785,0.00259
1767.62768,0.00261
1765.56751,0.00278
1763.50734,0.00296
1761.44716,0.00302
1759.38699,0.00311
1757.32682,0.00332
1755.26665,0.00353
1753.20648,0.00370
1751.14630,0.00386
1749.08613,0.00390
1747.02596,0.00386
1744.96579,0.00396
1742.90561,0.00413
1740.84544,0.00418
1738.78527,0.00412
1736.72510,0.00402
1734.66493,0.00405
1732.60475,0.00430
1730.54458,0.00455
1728.48441,0.00468
1726.42424,0.00473
1724.36407,0.00476
1722.30389,0.00482
1720.24372,0.00496
1718.18355,0.00514
1716.12338,0.00513
1714.06320,0.00500
1712.00303,0.00504
1709.94286,0.00531
1707.88269,0.00565
1705.82252,0.00600
1703.76234,0.00636
1701.70217,0.00672
1699.64200,0.00716
1697.58183,0.00768
1695.52166,0.00823
1693.46148,0.00875
1691.40131,0.00920
1689.34114,0.00967
1687.28097,0.01024
1685.22080,0.01100
1683.16062,0.01172
1681.10045,0.01208
1679.04028,0.01231
1676.98011,0.01256
1674.91993,0.01289
1672.85976,0.01339
1670.79959,0.01409
1668.73942,0.01487
1666.67925,0.01553
1664.61907,0.01613
1662.55890,0.01671
1660.49873,0.01716
1658.43856,0.01739
1656.37839,0.01742
1654.31821,0.01743
1652.25804,0.01773
1650.19787,0.01818
1648.13770,0.01846
1646.07753,0.01839
1644.01735,0.01810
1641.95718,0.01785
1639.89701,0.01770
1637.83684,0.01751
1635.77666,0.01718
1633.71649,0.01682
1631.65632,0.01660
1629.59615,0.01635
1627.53598,0.01597
1625.47580,0.01559
1623.41563,0.01530
1621.35546,0.01501
1619.29529,0.01473
1617.23512,0.01441
1615.17494,0.01404
1613.11477,0.01375
1611.05460,0.01351
1608.99443,0.01324
1606.93425,0.01299
1604.87408,0.01282
1602.81391,0.01261
1600.75374,0.01231
1598.69357,0.01206
1596.63339,0.01193
1594.57322,0.01178
1592.51305,0.01153
1590.45288,0.01124
1588.39271,0.01101
1586.33253,0.01084
1584.27236,0.01061
1582.21219,0.01031
1580.15202,0.01003
1578.09185,0.00986
1576.03167,0.00970
1573.97150,0.00953
1571.91133,0.00941
1569.85116,0.00926
1567.79098,0.00902
1565.73081,0.00889
1563.67064,0.00890
1561.61047,0.00881
1559.55030,0.00857
1557.49012,0.00837
1555.42995,0.00829
1553.36978,0.00822
1551.30961,0.00810
1549.24944,0.00794
1547.18926,0.00792
1545.12909,0.00815
1543.06892,0.00840
1541.00875,0.00826
1538.94858,0.00767
1536.88840,0.00725
1534.82823,0.00709
1532.76806,0.00693
1530.70789,0.00679
1528.64771,0.00677
1526.58754,0.00681
1524.52737,0.00681
1522.46720,0.00667
1520.40703,0.00641
1518.34685,0.00625
1516.28668,0.00610
1514.22651,0.00588
1512.16634,0.00571
1510.10617,0.00563
1508.04599,0.00545
1505.98582,0.00504
1503.92565,0.00470
1501.86548,0.00453
1499.80530,0.00448
1497.74513,0.00445
1495.68496,0.00432
1493.62479,0.00418
1491.56462,0.00409
1489.50444,0.00390
1487.44427,0.00358
1485.38410,0.00335
1483.32393,0.00331
1481.26376,0.00341
1479.20358,0.00353
1477.14341,0.00364
1475.08324,0.00375
1473.02307,0.00379
1470.96290,0.00372
1468.90272,0.00369
1466.84255,0.00379
1464.78238,0.00398
1462.72221,0.00408
1460.66203,0.00405
1458.60186,0.00406
1456.54169,0.00421
1454.48152,0.00428
1452.42135,0.00426
1450.36117,0.00422
1448.30100,0.00415
1446.24083,0.00411
1444.18066,0.00413
1442.12049,0.00417
1440.06031,0.00423
1438.00014,0.00422
1435.93997,0.00406
1433.87980,0.00390
1431.81963,0.00390
1429.75945,0.00403
1427.69928,0.00422
1425.63911,0.00437
1423.57894,0.00440
1421.51876,0.00440
1419.45859,0.00452
1417.39842,0.00467
1415.33825,0.00470
1413.27808,0.00462
1411.21790,0.00452
1409.15773,0.00441
1407.09756,0.00433
1405.03739,0.00427
1402.97722,0.00422
1400.91704,0.00420
1398.85687,0.00417
1396.79670,0.00401
1394.73653,0.00373
1392.67635,0.00353
1390.61618,0.00349
1388.55601,0.00349
1386.49584,0.00343
1384.43567,0.00338
1382.37549,0.00335
1380.31532,0.00331
1378.25515,0.00327
1376.19498,0.00326
1374.13481,0.00323
1372.07463,0.00315
1370.01446,0.00306
1367.95429,0.00296
1365.89412,0.00290
1363.83395,0.00296
1361.77377,0.00298
1359.71360,0.00281
1357.65343,0.00264
1355.59326,0.00260
1353.53308,0.00257
1351.47291,0.00243
1349.41274,0.00227
1347.35257,0.00220
1345.29240,0.00218
1343.23222,0.00214
1341.17205,0.00211
1339.11188,0.00210
1337.05171,0.00210
1334.99154,0.00209
1332.93136,0.00206
1330.87119,0.00204
1328.81102,0.00206
1326.75085,0.00209
1324.69067,0.00210
1322.63050,0.00214
1320.57033,0.00218
1318.51016,0.00217
1316.44999,0.00214
1314.38981,0.00219
1312.32964,0.00225
1310.26947,0.00224
1308.20930,0.00221
1306.14913,0.00221
1304.08895,0.00228
1302.02878,0.00244
1299.96861,0.00260
1297.90844,0.00265
1295.84827,0.00265
1293.78809,0.00280
1291.72792,0.00308
1289.66775,0.00329
1287.60758,0.00330
1285.54740,0.00317
1283.48723,0.00301
1281.42706,0.00290
1279.36689,0.00292
1277.30672,0.00304
1275.24654,0.00316
1273.18637,0.00323
1271.12620,0.00323
1269.06603,0.00315
1267.00586,0.00302
1264.94568,0.00294
1262.88551,0.00300
1260.82534,0.00316
1258.76517,0.00324
1256.70500,0.00316
1254.64482,0.00312
1252.58465,0.00321
1250.52448,0.00325
1248.46431,0.00317
1246.40413,0.00306
1244.34396,0.00293
1242.28379,0.00281
1240.22362,0.00278
1238.16345,0.00274
1236.10327,0.00265
1234.04310,0.00259
1231.98293,0.00255
1229.92276,0.00245
1227.86259,0.00236
1225.80241,0.00226
1223.74224,0.00209
1221.68207,0.00187
1219.62190,0.00171
1217.56172,0.00160
1215.50155,0.00148
1213.44138,0.00127
1211.38121,0.00106
1209.32104,0.00094
1207.26086,0.00084
1205.20069,0.00069
1203.14052,0.00055
1201.08035,0.00049
1199.02018,0.00045
1196.96000,0.00035
1194.89983,0.00022
1192.83966,0.00018
1190.77949,0.00011
1188.71932,0.00007
1186.65914,0.00010
1184.59897,0.00011
1182.53880,0.00005
1180.47863,0.00000
1178.41845,0.00001
1176.35828,0.00009
1174.29811,0.00024
1172.23794,0.00044
1170.17777,0.00064
1168.11759,0.00080
1166.05742,0.00095
1163.99725,0.00117
1161.93708,0.00148
1159.87691,0.00186
1157.81673,0.00232
1155.75656,0.00271
1153.69639,0.00295
1151.63622,0.00320
1149.57605,0.00360
1147.51587,0.00406
1145.45570,0.00453
1143.39553,0.00500
1141.33536,0.00555
1139.27518,0.00628
1137.21501,0.00712
1135.15484,0.00794
1133.09467,0.00867
1131.03450,0.00945
1128.97432,0.01042
1126.91415,0.01144
1124.85398,0.01237
1122.79381,0.01334
1120.73364,0.01445
1118.67346,0.01557
1116.61329,0.01670
1114.55312,0.01790
1112.49295,0.01909
1110.43277,0.02035
1108.37260,0.02167
1106.31243,0.02280
1104.25226,0.02383
1102.19209,0.02493
1100.13191,0.02606
1098.07174,0.02709
1096.01157,0.02804
1093.95140,0.02893
1091.89123,0.02982
1089.83105,0.03066
1087.77088,0.03149
1085.71071,0.03234
1083.65054,0.03316
1081.59037,0.03391
1079.53019,0.03463
1077.47002,0.03537
1075.40985,0.03611
1073.34968,0.03678
1071.28950,0.03743
1069.22933,0.03801
1067.16916,0.03834
1065.10899,0.03846
1063.04882,0.03857
1060.98864,0.03863
1058.92847,0.03850
1056.86830,0.03814
1054.80813,0.03756
1052.74796,0.03685
1050.68778,0.03603
1048.62761,0.03496
1046.56744,0.03373
1044.50727,0.03252
1042.44710,0.03116
1040.38692,0.02948
1038.32675,0.02770
1036.26658,0.02615
1034.20641,0.02478
1032.14623,0.02335
1030.08606,0.02185
1028.02589,0.02045
1025.96572,0.01911
1023.90555,0.01787
1021.84537,0.01693
1019.78520,0.01605
1017.72503,0.01517
1015.66486,0.01462
1013.60469,0.01439
1011.54451,0.01430
1009.48434,0.01437
1007.42417,0.01459
1005.36400,0.01507
1003.30382,0.01589
1001.24365,0.01678
999.18348,0.01755
997.12331,0.01833
995.06314,0.01933
993.00296,0.02049
990.94279,0.02170
988.88262,0.02275
986.82245,0.02351
984.76228,0.02417
982.70210,0.02469
980.64193,0.02487
978.58176,0.02477
976.52159,0.02460
974.46142,0.02441
972.40124,0.02407
970.34107,0.02346
968.28090,0.02261
966.22073,0.02168
964.16055,0.02068
962.10038,0.01953
960.04021,0.01833
957.98004,0.01722
955.91987,0.01620
953.85969,0.01507
951.79952,0.01379
949.73935,0.01258
947.67918,0.01157
945.61901,0.01074
943.55883,0.01008
941.49866,0.00953
939.43849,0.00894
937.37832,0.00824
935.31814,0.00753
933.25797,0.00693
931.19780,0.00645
929.13763,0.00598
927.07746,0.00565
925.01728,0.00553
922.95711,0.00539
920.89694,0.00525
918.83677,0.00507
916.77660,0.00456
914.71642,0.00388
912.65625,0.00335
910.59608,0.00304
908.53591,0.00297
906.47574,0.00302
904.41556,0.00313
902.35539,0.00338
900.29522,0.00368
898.23505,0.00401
896.17487,0.00433
894.11470,0.00460
892.05453,0.00493
889.99436,0.00527
887.93419,0.00554
885.87401,0.00573
883.81384,0.00598
881.75367,0.00660
879.69350,0.00745
877.63333,0.00806
875.57315,0.00853
873.51298,0.00910
871.45281,0.00963
869.39264,0.01005
867.33247,0.01031
865.27229,0.01051
863.21212,0.01083
861.15195,0.01104
859.09178,0.01095
857.03160,0.01105
854.97143,0.01159
852.91126,0.01211
850.85109,0.01209
848.79092,0.01163
846.73074,0.01123
844.67057,0.01098
842.61040,0.01048
840.55023,0.00976
838.49006,0.00929
836.42988,0.00905
834.36971,0.00845
832.30954,0.00722
830.24937,0.00613
828.18919,0.00578
826.12902,0.00576
824.06885,0.00565
822.00868,0.00513
819.94851,0.00423
817.88833,0.00360
815.82816,0.00350
813.76799,0.00338
811.70782,0.00297
809.64765,0.00272
807.58747,0.00278
805.52730,0.00287
803.46713,0.00283
801.40696,0.00273
799.34679,0.00241
797.28661,0.00198
795.22644,0.00177
793.16627,0.00167
791.10610,0.00150
789.04592,0.00161
786.98575,0.00206
784.92558,0.00226
782.86541,0.00209
780.80524,0.00210
778.74506,0.00230
776.68489,0.00216
774.62472,0.00184
772.56455,0.00179
770.50438,0.00195
768.44420,0.00202
766.38403,0.00203
764.32386,0.00209
762.26369,0.00207
760.20352,0.00196
758.14334,0.00173
756.08317,0.00139
754.02300,0.00136
751.96283,0.00173
749.90265,0.00207
747.84248,0.00215
745.78231,0.00220
743.72214,0.00238
741.66197,0.00217
739.60179,0.00182
737.54162,0.00216
735.48145,0.00260
733.42128,0.00238
731.36111,0.00188
729.30093,0.00161
727.24076,0.00160
725.18059,0.00153
723.12042,0.00136
721.06024,0.00135
719.00007,0.00095
716.93990,0.00058
714.87973,0.00074
712.81956,0.00124
710.75938,0.00156
708.69921,0.00161
706.63904,0.00164
704.57887,0.00164
702.51870,0.00154
700.45852,0.00153
698.39835,0.00156
696.33818,0.00142
694.27801,0.00119
692.21784,0.00104
690.15766,0.00095
688.09749,0.00088
686.03732,0.00100
683.97715,0.00145
681.91697,0.00195
679.85680,0.00239
677.79663,0.00297
675.73646,0.00344
673.67629,0.00279
671.61611,0.00081
669.55594,0.00087
667.49577,0.00268
665.43560,0.00075
663.37543,0.00079
661.31525,0.00122
659.25508,0.00173
657.19491,0.00243
655.13474,0.00281
653.07457,0.00247
651.01439,0.00196
648.95422,0.00211
646.89405,0.00261
644.83388,0.00278
642.77370,0.00278
640.71353,0.00334
638.65336,0.00396
636.59319,0.00411
634.53302,0.00420
632.47284,0.00378
630.41267,0.00217
628.35250,0.00036
626.29233,0.00001
624.23216,0.00101
622.17198,0.00130
620.11181,0.00016
618.05164,0.00051
615.99147,0.00316
613.93129,0.00497
611.87112,0.00476
609.81095,0.00322
607.75078,0.00140
605.69061,0.00037
603.63043,0.00017
601.57026,0.00039
599.51009,0.00000
