3996.73391,-0.00074
3994.67373,-0.00078
3992.61356,-0.00057
3990.55339,-0.00019
3988.49322,0.00005
3986.43305,0.00009
3984.37287,0.00011
3982.31270,0.00020
3980.25253,0.00021
3978.19236,-0.00002
3976.13219,-0.00035
3974.07201,-0.00035
3972.01184,-0.00004
3969.95167,0.00029
3967.89150,0.00056
3965.83133,0.00072
3963.77115,0.00064
3961.71098,0.00041
3959.65081,0.00025
3957.59064,0.00025
3955.53046,0.00040
3953.47029,0.00054
3951.41012,0.00043
3949.34995,0.00010
3947.28978,0.00000
3945.22960,0.00027
3943.16943,0.00050
3941.10926,0.00055
3939.04909,0.00057
3936.98892,0.00047
3934.92874,0.00018
3932.86857,0.00005
3930.80840,0.00051
3928.74823,0.00109
3926.68805,0.00123
3924.62788,0.00093
3922.56771,0.00047
3920.50754,0.00015
3918.44737,0.00007
3916.38719,0.00042
3914.32702,0.00106
3912.26685,0.00149
3910.20668,0.00158
3908.14651,0.00150
3906.08633,0.00131
3904.02616,0.00084
3901.96599,0.00055
3899.90582,0.00106
3897.84565,0.00161
3895.78547,0.00166
3893.72530,0.00160
3891.66513,0.00159
3889.60496,0.00133
3887.54478,0.00090
3885.48461,0.00070
3883.42444,0.00068
3881.36427,0.00090
3879.30410,0.00140
3877.24392,0.00160
3875.18375,0.00128
3873.12358,0.00075
3871.06341,0.00046
3869.00324,0.00075
3866.94306,0.00111
3864.88289,0.00121
3862.82272,0.00122
3860.76255,0.00112
3858.70237,0.00069
3856.64220,0.00000
3854.58203,0.00019
3852.52186,0.00185
3850.46169,0.00293
3848.40151,0.00244
3846.34134,0.00167
3844.28117,0.00147
3842.22100,0.00165
3840.16083,0.00177
3838.10065,0.00185
3836.04048,0.00202
3833.98031,0.00212
3831.92014,0.00220
3829.85997,0.00234
3827.79979,0.00232
3825.73962,0.00201
3823.67945,0.00158
3821.61928,0.00158
3819.55910,0.00185
3817.49893,0.00214
3815.43876,0.00257
3813.37859,0.00278
3811.31842,0.00252
3809.25824,0.00224
3807.19807,0.00213
3805.13790,0.00207
3803.07773,0.00227
3801.01756,0.00281
3798.95738,0.00300
3796.89721,0.00290
3794.83704,0.00313
3792.77687,0.00346
3790.71670,0.00355
3788.65652,0.00354
3786.59635,0.00357
3784.53618,0.00356
3782.47601,0.00355
3780.41583,0.00374
3778.35566,0.00403
3776.29549,0.00404
3774.23532,0.00374
3772.17515,0.00342
3770.11497,0.00323
3768.05480,0.00313
3765.99463,0.00311
3763.93446,0.00309
3761.87429,0.00294
3759.81411,0.00264
3757.75394,0.00208
3755.69377,0.00128
3753.63360,0.00052
3751.57342,0.00024
3749.51325,0.00039
3747.45308,0.00046
3745.39291,0.00027
3743.33274,0.00051
3741.27256,0.00062
3739.21239,0.00015
3737.15222,0.00000
3735.09205,0.00049
3733.03188,0.00119
3730.97170,0.00160
3728.91153,0.00171
3726.85136,0.00178
3724.79119,0.00185
3722.73102,0.00206
3720.67084,0.00241
3718.61067,0.00239
3716.55050,0.00191
3714.49033,0.00170
3712.43015,0.00247
3710.36998,0.00355
3708.30981,0.00396
3706.24964,0.00377
3704.18947,0.00346
3702.12929,0.00335
3700.06912,0.00340
3698.00895,0.00347
3695.94878,0.00349
3693.88861,0.00346
3691.82843,0.00357
3689.76826,0.00398
3687.70809,0.00442
3685.64792,0.00442
3683.58775,0.00407
3681.52757,0.00377
3679.46740,0.00352
3677.40723,0.00339
3675.34706,0.00362
3673.28688,0.00375
3671.22671,0.00386
3669.16654,0.00430
3667.10637,0.00449
3665.04620,0.00435
3662.98602,0.00428
3660.92585,0.00428
3658.86568,0.00424
3656.80551,0.00424
3654.74534,0.00420
3652.68516,0.00426
3650.62499,0.00476
3648.56482,0.00528
3646.50465,0.00532
3644.44447,0.00497
3642.38430,0.00488
3640.32413,0.00530
3638.26396,0.00567
3636.20379,0.00564
3634.14361,0.00539
3632.08344,0.00524
3630.02327,0.00555
3627.96310,0.00629
3625.90293,0.00669
3623.84275,0.00661
3621.78258,0.00650
3619.72241,0.00642
3617.66224,0.00616
3615.60207,0.00588
3613.54189,0.00595
3611.48172,0.00623
3609.42155,0.00653
3607.36138,0.00699
3605.30120,0.00743
3603.24103,0.00779
3601.18086,0.00823
3599.12069,0.00861
3597.06052,0.00874
3595.00034,0.00889
3592.94017,0.00918
3590.88000,0.00943
3588.81983,0.00959
3586.75966,0.00982
3584.69948,0.01008
3582.63931,0.01034
3580.57914,0.01078
3578.51897,0.01127
3576.45879,0.01150
3574.39862,0.01144
3572.33845,0.01139
3570.27828,0.01149
3568.21811,0.01176
3566.15793,0.01215
3564.09776,0.01233
3562.03759,0.01218
3559.97742,0.01223
3557.91725,0.01262
3555.85707,0.01296
3553.79690,0.01312
3551.73673,0.01325
3549.67656,0.01330
3547.61639,0.01319
3545.55621,0.01318
3543.49604,0.01352
3541.43587,0.01400
3539.37570,0.01442
3537.31552,0.01472
3535.25535,0.01495
3533.19518,0.01517
3531.13501,0.01530
3529.07484,0.01530
3527.01466,0.01520
3524.95449,0.01524
3522.89432,0.01563
3520.83415,0.01617
3518.77398,0.01651
3516.71380,0.01664
3514.65363,0.01673
3512.59346,0.01684
3510.53329,0.01691
3508.47312,0.01692
3506.41294,0.01690
3504.35277,0.01693
3502.29260,0.01713
3500.23243,0.01764
3498.17225,0.01825
3496.11208,0.01862
3494.05191,0.01871
3491.99174,0.01878
3489.93157,0.01902
3487.87139,0.01924
3485.81122,0.01919
3483.75105,0.01914
3481.69088,0.01933
3479.63071,0.01958
3477.57053,0.01983
3475.51036,0.02013
3473.45019,0.02034
3471.39002,0.02044
3469.32984,0.02064
3467.26967,0.02094
3465.20950,0.02113
3463.14933,0.02124
3461.08916,0.02140
3459.02898,0.02158
3456.96881,0.02174
3454.90864,0.02190
3452.84847,0.02209
3450.78830,0.02226
3448.72812,0.02237
3446.66795,0.02234
3444.60778,0.02220
3442.54761,0.02202
3440.48744,0.02190
3438.42726,0.02198
3436.36709,0.02223
3434.30692,0.02256
3432.24675,0.02298
3430.18657,0.02343
3428.12640,0.02366
3426.06623,0.02363
3424.00606,0.02354
3421.94589,0.02356
3419.88571,0.02367
3417.82554,0.02389
3415.76537,0.02417
3413.70520,0.02434
3411.64503,0.02430
3409.58485,0.02413
3407.52468,0.02406
3405.46451,0.02416
3403.40434,0.02435
3401.34416,0.02459
3399.28399,0.02431
3397.22382,0.02449
3395.16365,0.02458
3393.10348,0.02460
3391.04330,0.02479
3388.98313,0.02517
3386.92296,0.02557
3384.86279,0.02582
3382.80262,0.02583
3380.74244,0.02579
3378.68227,0.02598
3376.62210,0.02630
3374.56193,0.02660
3372.50176,0.02670
3370.44158,0.02657
3368.38141,0.02639
3366.32124,0.02644
3364.26107,0.02672
3362.20089,0.02691
3360.14072,0.02685
3358.08055,0.02674
3356.02038,0.02672
3353.96021,0.02679
3351.90003,0.02690
3349.83986,0.02699
3347.77969,0.02711
3345.71952,0.02728
3343.65935,0.02736
3341.59917,0.02727
3339.53900,0.02713
3337.47883,0.02721
3335.41866,0.02754
3333.35849,0.02789
3331.29831,0.02820
3329.23814,0.02840
3327.17797,0.02834
3325.11780,0.02824
3323.05762,0.02828
3320.99745,0.02831
3318.93728,0.02821
3316.87711,0.02810
3314.81694,0.02798
3312.75676,0.02773
3310.69659,0.02758
3308.63642,0.02781
3306.57625,0.02828
3304.51608,0.02866
3302.45590,0.02890
3300.39573,0.02900
3298.33556,0.02890
3296.27539,0.02870
3294.21521,0.02865
3292.15504,0.02884
3290.09487,0.02906
3288.03470,0.02920
3285.97453,0.02923
3283.91435,0.02916
3281.85418,0.02911
3279.79401,0.02907
3277.73384,0.02903
3275.67367,0.02912
3273.61349,0.02932
3271.55332,0.02947
3269.49315,0.02944
3267.43298,0.02940
3265.37281,0.02950
3263.31263,0.02966
3261.25246,0.02982
3259.19229,0.02997
3257.13212,0.02992
3255.07194,0.02973
3253.01177,0.02967
3250.95160,0.02977
3248.89143,0.02995
3246.83126,0.03005
3244.77108,0.03002
3242.71091,0.03011
3240.65074,0.03035
3238.59057,0.03051
3236.53040,0.03054
3234.47022,0.03056
3232.41005,0.03069
3230.34988,0.03081
3228.28971,0.03072
3226.22954,0.03061
3224.16936,0.03060
3222.10919,0.03059
3220.04902,0.03054
3217.98885,0.03052
3215.92867,0.03046
3213.86850,0.03044
3211.80833,0.03053
3209.74816,0.03062
3207.68799,0.03068
3205.62781,0.03078
3203.56764,0.03084
3201.50747,0.03072
3199.44730,0.03064
3197.38713,0.03074
3195.32695,0.03086
3193.26678,0.03090
3191.20661,0.03096
3189.14644,0.03098
3187.08626,0.03090
3185.02609,0.03085
3182.96592,0.03095
3180.90575,0.03106
3178.84558,0.03108
3176.78540,0.03120
3174.72523,0.03132
3172.66506,0.03123
3170.60489,0.03106
3168.54472,0.03104
3166.48454,0.03118
3164.42437,0.03130
3162.36420,0.03127
3160.30403,0.03126
3158.24386,0.03134
3156.18368,0.03137
3154.12351,0.03122
3152.06334,0.03103
3150.00317,0.03098
3147.94299,0.03098
3145.88282,0.03093
3143.82265,0.03082
3141.76248,0.03074
3139.70231,0.03076
3137.64213,0.03082
3135.58196,0.03079
3133.52179,0.03066
3131.46162,0.03066
3129.40145,0.03079
3127.34127,0.03071
3125.28110,0.03047
3123.22093,0.03033
3121.16076,0.03027
3119.10058,0.03027
3117.04041,0.03032
3114.98024,0.03036
3112.92007,0.03045
3110.85990,0.03057
3108.79972,0.03060
3106.73955,0.03052
3104.67938,0.03036
3102.61921,0.03018
3100.55904,0.03008
3098.49886,0.03009
3096.43869,0.03006
3094.37852,0.03003
3092.31835,0.03008
3090.25818,0.03006
3088.19800,0.02997
3086.13783,0.02998
3084.07766,0.02996
3082.01749,0.02980
3079.95731,0.02970
3077.89714,0.02974
3075.83697,0.02979
3073.77680,0.02971
3071.71663,0.02961
3069.65645,0.02954
3067.59628,0.02946
3065.53611,0.02944
3063.47594,0.02954
3061.41577,0.02961
3059.35559,0.02948
3057.29542,0.02916
3055.23525,0.02887
3053.17508,0.02874
3051.11491,0.02874
3049.05473,0.02879
3046.99456,0.02879
3044.93439,0.02869
3042.87422,0.02860
3040.81404,0.02853
3038.75387,0.02847
3036.69370,0.02842
3034.63353,0.02832
3032.57336,0.02822
3030.51318,0.02809
3028.45301,0.02786
3026.39284,0.02768
3024.33267,0.02774
3022.27250,0.02789
3020.21232,0.02794
3018.15215,0.02790
3016.09198,0.02769
3014.03181,0.02732
3011.97163,0.02707
3009.91146,0.02711
3007.85129,0.02726
3005.79112,0.02726
3003.73095,0.02718
3001.67077,0.02710
2999.61060,0.02699
2997.55043,0.02671
2995.49026,0.02656
2993.43009,0.02657
2991.36991,0.02666
2989.30974,0.02667
2987.24957,0.02651
2985.18940,0.02636
2983.12923,0.02632
2981.06905,0.02630
2979.00888,0.02623
2976.94871,0.02621
2974.88854,0.02615
2972.82836,0.02599
2970.76819,0.02592
2968.70802,0.02593
2966.64785,0.02588
2964.58768,0.02582
2962.52750,0.02580
2960.46733,0.02576
2958.40716,0.02579
2956.34699,0.02588
2954.28682,0.02585
2952.22664,0.02579
2950.16647,0.02570
2948.10630,0.02546
2946.04613,0.02523
2943.98596,0.02520
2941.92578,0.02519
2939.86561,0.02509
2937.80544,0.02506
2935.74527,0.02514
2933.68509,0.02520
2931.62492,0.02515
2929.56475,0.02494
2927.50458,0.02474
2925.44441,0.02470
2923.38423,0.02472
2921.32406,0.02479
2919.26389,0.02487
2917.20372,0.02486
2915.14355,0.02486
2913.08337,0.02484
2911.02320,0.02465
2908.96303,0.02444
2906.90286,0.02437
2904.84268,0.02436
2902.78251,0.02430
2900.72234,0.02422
2898.66217,0.02422
2896.60200,0.02423
2894.54182,0.02416
2892.48165,0.02411
2890.42148,0.02407
2888.36131,0.02407
2886.30114,0.02417
2884.24096,0.02423
2882.18079,0.02418
2880.12062,0.02407
2878.06045,0.02393
2876.00028,0.02374
2873.94010,0.02358
2871.87993,0.02350
2869.81976,0.02346
2867.75959,0.02347
2865.69941,0.02354
2863.63924,0.02359
2861.57907,0.02364
2859.51890,0.02366
2857.45873,0.02360
2855.39855,0.02357
2853.33838,0.02355
2851.27821,0.02345
2849.21804,0.02342
2847.15787,0.02344
2845.09769,0.02333
2843.03752,0.02311
2840.97735,0.02300
2838.91718,0.02294
2836.85700,0.02280
2834.79683,0.02268
2832.73666,0.02261
2830.67649,0.02254
2828.61632,0.02255
2826.55614,0.02261
2824.49597,0.02263
2822.43580,0.02255
2820.37563,0.02241
2818.31546,0.02232
2816.25528,0.02233
2814.19511,0.02238
2812.13494,0.02248
2810.07477,0.02251
2808.01460,0.02234
2805.95442,0.02208
2803.89425,0.02194
2801.83408,0.02195
2799.77391,0.02199
2797.71373,0.02194
2795.65356,0.02189
2793.59339,0.02189
2791.53322,0.02178
2789.47305,0.02165
2787.41287,0.02163
2785.35270,0.02162
2783.29253,0.02161
2781.23236,0.02169
2779.17219,0.02174
2777.11201,0.02165
2775.05184,0.02143
2772.99167,0.02122
2770.93150,0.02113
2768.87133,0.02115
2766.81115,0.02121
2764.75098,0.02119
2762.69081,0.02111
2760.63064,0.02095
2758.57046,0.02079
2756.51029,0.02078
2754.45012,0.02085
2752.38995,0.02096
2750.32978,0.02099
2748.26960,0.02083
2746.20943,0.02064
2744.14926,0.02054
2742.08909,0.02053
2740.02892,0.02067
2737.96874,0.02081
2735.90857,0.02066
2733.84840,0.02033
2731.78823,0.02017
2729.72805,0.02021
2727.66788,0.02020
2725.60771,0.02009
2723.54754,0.01997
2721.48737,0.01992
2719.42719,0.01990
2717.36702,0.01983
2715.30685,0.01976
2713.24668,0.01969
2711.18651,0.01967
2709.12633,0.01962
2707.06616,0.01947
2705.00599,0.01938
2702.94582,0.01943
2700.88565,0.01947
2698.82547,0.01946
2696.76530,0.01935
2694.70513,0.01924
2692.64496,0.01922
2690.58478,0.01924
2688.52461,0.01915
2686.46444,0.01896
2684.40427,0.01884
2682.34410,0.01877
2680.28392,0.01872
2678.22375,0.01872
2676.16358,0.01867
2674.10341,0.01853
2672.04324,0.01846
2669.98306,0.01849
2667.92289,0.01855
2665.86272,0.01861
2663.80255,0.01853
2661.74238,0.01833
2659.68220,0.01818
2657.62203,0.01809
2655.56186,0.01804
2653.50169,0.01802
2651.44151,0.01797
2649.38134,0.01781
2647.32117,0.01766
2645.26100,0.01765
2643.20083,0.01767
2641.14065,0.01763
2639.08048,0.01758
2637.02031,0.01763
2634.96014,0.01763
2632.89997,0.01749
2630.83979,0.01741
2628.77962,0.01739
2626.71945,0.01733
2624.65928,0.01735
2622.59910,0.01738
2620.53893,0.01732
2618.47876,0.01727
2616.41859,0.01725
2614.35842,0.01726
2612.29824,0.01732
2610.23807,0.01729
2608.17790,0.01717
2606.11773,0.01713
2604.05756,0.01711
2601.99738,0.01705
2599.93721,0.01705
2597.87704,0.01709
2595.81687,0.01706
2593.75670,0.01696
2591.69652,0.01683
2589.63635,0.01675
2587.57618,0.01681
2585.51601,0.01683
2583.45583,0.01674
2581.39566,0.01674
2579.33549,0.01681
2577.27532,0.01680
2575.21515,0.01671
2573.15497,0.01657
2571.09480,0.01640
2569.03463,0.01638
2566.97446,0.01664
2564.91429,0.01678
2562.85411,0.01674
2560.79394,0.01684
2558.73377,0.01688
2556.67360,0.01661
2554.61342,0.01647
2552.55325,0.01663
2550.49308,0.01670
2548.43291,0.01667
2546.37274,0.01677
2544.31256,0.01687
2542.25239,0.01685
2540.19222,0.01684
2538.13205,0.01685
2536.07188,0.01686
2534.01170,0.01688
2531.95153,0.01692
2529.89136,0.01696
2527.83119,0.01702
2525.77102,0.01717
2523.71084,0.01728
2521.65067,0.01715
2519.59050,0.01706
2517.53033,0.01718
2515.47015,0.01717
2513.40998,0.01698
2511.34981,0.01685
2509.28964,0.01695
2507.22947,0.01730
2505.16929,0.01762
2503.10912,0.01766
2501.04895,0.01753
2498.98878,0.01728
2496.92861,0.01713
2494.86843,0.01726
2492.80826,0.01750
2490.74809,0.01766
2488.68792,0.01764
2486.62775,0.01749
2484.56757,0.01745
2482.50740,0.01755
2480.44723,0.01776
2478.38706,0.01795
2476.32688,0.01799
2474.26671,0.01809
2472.20654,0.01820
2470.14637,0.01816
2468.08620,0.01811
2466.02602,0.01817
2463.96585,0.01830
2461.90568,0.01838
2459.84551,0.01830
2457.78534,0.01814
2455.72516,0.01809
2453.66499,0.01814
2451.60482,0.01815
2449.54465,0.01818
2447.48447,0.01829
2445.42430,0.01841
2443.36413,0.01843
2441.30396,0.01847
2439.24379,0.01862
2437.18361,0.01863
2435.12344,0.01846
2433.06327,0.01830
2431.00310,0.01824
2428.94293,0.01832
2426.88275,0.01845
2424.82258,0.01837
2422.76241,0.01820
2420.70224,0.01824
2418.64207,0.01842
2416.58189,0.01841
2414.52172,0.01822
2412.46155,0.01801
2410.40138,0.01776
2408.34120,0.01764
2406.28103,0.01778
2404.22086,0.01798
2402.16069,0.01814
2400.10052,0.01830
2398.04034,0.01853
2395.98017,0.01854
2393.92000,0.01841
2391.85983,0.01823
2389.79966,0.01797
2387.73948,0.01762
2385.67931,0.01718
2383.61914,0.01673
2381.55897,0.01645
2379.49880,0.01641
2377.43862,0.01644
2375.37845,0.01639
2373.31828,0.01640
2371.25811,0.01680
2369.19793,0.01785
2367.13776,0.01892
2365.07759,0.01909
2363.01742,0.01858
2360.95725,0.01812
2358.89707,0.01789
2356.83690,0.01792
2354.77673,0.01788
2352.71656,0.01746
2350.65639,0.01692
2348.59621,0.01663
2346.53604,0.01665
2344.47587,0.01693
2342.41570,0.01738
2340.35552,0.01778
2338.29535,0.01773
2336.23518,0.01741
2334.17501,0.01726
2332.11484,0.01724
2330.05466,0.01693
2327.99449,0.01630
2325.93432,0.01577
2323.87415,0.01567
2321.81398,0.01583
2319.75380,0.01585
2317.69363,0.01565
2315.63346,0.01539
2313.57329,0.01518
2311.51312,0.01515
2309.45294,0.01535
2307.39277,0.01557
2305.33260,0.01580
2303.27243,0.01619
2301.21225,0.01655
2299.15208,0.01644
2297.09191,0.01603
2295.03174,0.01588
2292.97157,0.01606
2290.91139,0.01630
2288.85122,0.01650
2286.79105,0.01655
2284.73088,0.01647
2282.67071,0.01648
2280.61053,0.01670
2278.55036,0.01703
2276.49019,0.01718
2274.43002,0.01699
2272.36984,0.01656
2270.30967,0.01635
2268.24950,0.01668
2266.18933,0.01716
2264.12916,0.01731
2262.06898,0.01718
2260.00881,0.01700
2257.94864,0.01690
2255.88847,0.01681
2253.82830,0.01640
2251.76812,0.01576
2249.70795,0.01546
2247.64778,0.01577
2245.58761,0.01635
2243.52744,0.01631
2241.46726,0.01602
2239.40709,0.01612
2237.34692,0.01627
2235.28675,0.01609
2233.22657,0.01603
2231.16640,0.01661
2229.10623,0.01738
2227.04606,0.01734
2224.98589,0.01643
2222.92571,0.01559
2220.86554,0.01554
2218.80537,0.01573
2216.74520,0.01533
2214.68503,0.01469
2212.62485,0.01472
2210.56468,0.01560
2208.50451,0.01644
2206.44434,0.01654
2204.38417,0.01630
2202.32399,0.01608
2200.26382,0.01563
2198.20365,0.01537
2196.14348,0.01567
2194.08330,0.01561
2192.02313,0.01521
2189.96296,0.01551
2187.90279,0.01600
2185.84262,0.01565
2183.78244,0.01503
2181.72227,0.01516
2179.66210,0.01558
2177.60193,0.01558
2175.54176,0.01522
2173.48158,0.01469
2171.42141,0.01426
2169.36124,0.01425
2167.30107,0.01451
2165.24089,0.01469
2163.18072,0.01480
2161.12055,0.01479
2159.06038,0.01452
2157.00021,0.01413
2154.94003,0.01412
2152.87986,0.01506
2150.81969,0.01614
2148.75952,0.01596
2146.69935,0.01525
2144.63917,0.01508
2142.57900,0.01518
2140.51883,0.01521
2138.45866,0.01503
2136.39849,0.01470
2134.33831,0.01465
2132.27814,0.01482
2130.21797,0.01470
2128.15780,0.01462
2126.09762,0.01468
2124.03745,0.01462
2121.97728,0.01484
2119.91711,0.01531
2117.85694,0.01527
2115.79676,0.01477
2113.73659,0.01452
2111.67642,0.01438
2109.61625,0.01399
2107.55608,0.01371
2105.49590,0.01374
2103.43573,0.01391
2101.37556,0.01423
2099.31539,0.01480
2097.25521,0.01475
2095.19504,0.01445
2093.13487,0.01425
2091.07470,0.01420
2089.01453,0.01420
2086.95435,0.01421
2084.89418,0.01438
2082.83401,0.01478
2080.77384,0.01528
2078.71367,0.01551
2076.65349,0.01541
2074.59332,0.01537
2072.53315,0.01531
2070.47298,0.01500
2068.41281,0.01483
2066.35263,0.01493
2064.29246,0.01484
2062.23229,0.01430
2060.17212,0.01350
2058.11194,0.01327
2056.05177,0.01377
2053.99160,0.01428
2051.93143,0.01463
2049.87126,0.01503
2047.81108,0.01559
2045.75091,0.01637
2043.69074,0.01676
2041.63057,0.01648
2039.57040,0.01639
2037.51022,0.01646
2035.45005,0.01601
2033.38988,0.01495
2031.32971,0.01365
2029.26954,0.01304
2027.20936,0.01354
2025.14919,0.01468
2023.08902,0.01580
2021.02885,0.01604
2018.96867,0.01536
2016.90850,0.01516
2014.84833,0.01560
2012.78816,0.01536
2010.72799,0.01483
2008.66781,0.01485
2006.60764,0.01478
2004.54747,0.01415
2002.48730,0.01358
2000.42713,0.01363
1998.36695,0.01387
1996.30678,0.01364
1994.24661,0.01355
1992.18644,0.01387
1990.12626,0.01395
1988.06609,0.01387
1986.00592,0.01387
1983.94575,0.01396
1981.88558,0.01454
1979.82540,0.01573
1977.76523,0.01669
1975.70506,0.01674
1973.64489,0.01600
1971.58472,0.01516
1969.52454,0.01492
1967.46437,0.01499
1965.40420,0.01442
1963.34403,0.01373
1961.28386,0.01377
1959.22368,0.01406
1957.16351,0.01405
1955.10334,0.01386
1953.04317,0.01379
1950.98299,0.01401
1948.92282,0.01439
1946.86265,0.01451
1944.80248,0.01425
1942.74231,0.01408
1940.68213,0.01408
1938.62196,0.01416
1936.56179,0.01438
1934.50162,0.01456
1932.44145,0.01441
1930.38127,0.01413
1928.32110,0.01405
1926.26093,0.01389
1924.20076,0.01354
1922.14059,0.01346
1920.08041,0.01363
1918.02024,0.01375
1915.96007,0.01393
1913.89990,0.01436
1911.83972,0.01465
1909.77955,0.01458
1907.71938,0.01445
1905.65921,0.01447
1903.59904,0.01440
1901.53886,0.01418
1899.47869,0.01398
1897.41852,0.01396
1895.35835,0.01393
1893.29818,0.01379
1891.23800,0.01385
1889.17783,0.01411
1887.11766,0.01426
1885.05749,0.01417
1882.99731,0.01392
1880.93714,0.01379
1878.87697,0.01386
1876.81680,0.01396
1874.75663,0.01400
1872.69645,0.01417
1870.63628,0.01458
1868.57611,0.01491
1866.51594,0.01471
1864.45577,0.01424
1862.39559,0.01398
1860.33542,0.01398
1858.27525,0.01405
1856.21508,0.01403
1854.15491,0.01385
1852.09473,0.01367
1850.03456,0.01364
1847.97439,0.01367
1845.91422,0.01347
1843.85404,0.01310
1841.79387,0.01308
1839.73370,0.01348
1837.67353,0.01380
1835.61336,0.01380
1833.55318,0.01389
1831.49301,0.01431
1829.43284,0.01465
1827.37267,0.01458
1825.31250,0.01436
1823.25232,0.01428
1821.19215,0.01436
1819.13198,0.01436
1817.07181,0.01427
1815.01163,0.01421
1812.95146,0.01404
1810.89129,0.01365
1808.83112,0.01334
1806.77095,0.01339
1804.71077,0.01356
1802.65060,0.01363
1800.59043,0.01373
1798.53026,0.01384
1796.47009,0.01390
1794.40991,0.01393
1792.34974,0.01386
1790.28957,0.01365
1788.22940,0.01340
1786.16923,0.01312
1784.10905,0.01308
1782.04888,0.01335
1779.98871,0.01343
1777.92854,0.01328
1775.86836,0.01338
1773.80819,0.01379
1771.74802,0.01384
1769.68785,0.01331
1767.62768,0.01292
1765.56750,0.01299
1763.50733,0.01322
1761.44716,0.01325
1759.38699,0.01304
1757.32682,0.01291
1755.26664,0.01293
1753.20647,0.01303
1751.14630,0.01324
1749.08613,0.01346
1747.02596,0.01343
1744.96578,0.01332
1742.90561,0.01346
1740.84544,0.01377
1738.78527,0.01399
1736.72509,0.01410
1734.66492,0.01412
1732.60475,0.01394
1730.54458,0.01380
1728.48441,0.01373
1726.42423,0.01370
1724.36406,0.01368
1722.30389,0.01383
1720.24372,0.01432
1718.18355,0.01468
1716.12337,0.01427
1714.06320,0.01384
1712.00303,0.01377
1709.94286,0.01395
1707.88268,0.01420
1705.82251,0.01424
1703.76234,0.01412
1701.70217,0.01431
1699.64200,0.01459
1697.58182,0.01454
1695.52165,0.01443
1693.46148,0.01438
1691.40131,0.01438
1689.34114,0.01461
1687.28096,0.01517
1685.22079,0.01599
1683.16062,0.01628
1681.10045,0.01601
1679.04028,0.01595
1676.98010,0.01641
1674.91993,0.01717
1672.85976,0.01781
1670.79959,0.01815
1668.73941,0.01800
1666.67924,0.01768
1664.61907,0.01770
1662.55890,0.01783
1660.49873,0.01763
1658.43855,0.01743
1656.37838,0.01766
1654.31821,0.01809
1652.25804,0.01796
1650.19787,0.01783
1648.13769,0.01805
1646.07752,0.01816
1644.01735,0.01778
1641.95718,0.01753
1639.89701,0.01783
1637.83683,0.01839
1635.77666,0.01851
1633.71649,0.01817
1631.65632,0.01797
1629.59614,0.01803
1627.53597,0.01821
1625.47580,0.01835
1623.41563,0.01830
1621.35546,0.01803
1619.29528,0.01812
1617.23511,0.01852
1615.17494,0.01842
1613.11477,0.01799
1611.05460,0.01779
1608.99442,0.01780
1606.93425,0.01780
1604.87408,0.01783
1602.81391,0.01785
1600.75373,0.01775
1598.69356,0.01767
1596.63339,0.01769
1594.57322,0.01766
1592.51305,0.01750
1590.45287,0.01731
1588.39270,0.01715
1586.33253,0.01701
1584.27236,0.01678
1582.21219,0.01647
1580.15201,0.01638
1578.09184,0.01660
1576.03167,0.01647
1573.97150,0.01576
1571.91133,0.01537
1569.85115,0.01532
1567.79098,0.01491
1565.73081,0.01433
1563.67064,0.01410
1561.61046,0.01444
1559.55029,0.01460
1557.49012,0.01342
1555.42995,0.01229
1553.36978,0.01183
1551.30960,0.01177
1549.24943,0.01173
1547.18926,0.01168
1545.12909,0.01188
1543.06892,0.01243
1541.00874,0.01298
1538.94857,0.01259
1536.88840,0.01176
1534.82823,0.01148
1532.76805,0.01156
1530.70788,0.01141
1528.64771,0.01122
1526.58754,0.01106
1524.52737,0.01090
1522.46719,0.01082
1520.40702,0.01060
1518.34685,0.01044
1516.28668,0.01024
1514.22651,0.00975
1512.16633,0.00940
1510.10616,0.00966
1508.04599,0.01038
1505.98582,0.01069
1503.92565,0.01027
1501.86547,0.00987
1499.80530,0.01011
1497.74513,0.01060
1495.68496,0.01081
1493.62478,0.01103
1491.56461,0.01143
1489.50444,0.01159
1487.44427,0.01135
1485.38410,0.01115
1483.32392,0.01109
1481.26375,0.01105
1479.20358,0.01105
1477.14341,0.01120
1475.08324,0.01144
1473.02306,0.01148
1470.96289,0.01117
1468.90272,0.01090
1466.84255,0.01100
1464.78238,0.01117
1462.72220,0.01109
1460.66203,0.01123
1458.60186,0.01152
1456.54169,0.01121
1454.48151,0.01078
1452.42134,0.01074
1450.36117,0.01110
1448.30100,0.01151
1446.24083,0.01167
1444.18065,0.01169
1442.12048,0.01170
1440.06031,0.01169
1438.00014,0.01161
1435.93997,0.01148
1433.87979,0.01152
1431.81962,0.01173
1429.75945,0.01194
1427.69928,0.01199
1425.63910,0.01206
1423.57893,0.01217
1421.51876,0.01216
1419.45859,0.01202
1417.39842,0.01193
1415.33824,0.01208
1413.27807,0.01238
1411.21790,0.01260
1409.15773,0.01268
1407.09756,0.01270
1405.03738,0.01273
1402.97721,0.01277
1400.91704,0.01270
1398.85687,0.01236
1396.79670,0.01197
1394.73652,0.01190
1392.67635,0.01200
1390.61618,0.01209
1388.55601,0.01223
1386.49583,0.01235
1384.43566,0.01237
1382.37549,0.01237
1380.31532,0.01241
1378.25515,0.01255
1376.19497,0.01273
1374.13480,0.01263
1372.07463,0.01231
1370.01446,0.01222
1367.95429,0.01235
1365.89411,0.01243
1363.83394,0.01229
1361.77377,0.01205
1359.71360,0.01206
1357.65343,0.01228
1355.59325,0.01241
1353.53308,0.01240
1351.47291,0.01236
1349.41274,0.01232
1347.35256,0.01224
1345.29239,0.01213
1343.23222,0.01196
1341.17205,0.01167
1339.11188,0.01135
1337.05170,0.01136
1334.99153,0.01171
1332.93136,0.01196
1330.87119,0.01196
1328.81102,0.01193
1326.75084,0.01197
1324.69067,0.01197
1322.63050,0.01193
1320.57033,0.01190
1318.51015,0.01182
1316.44998,0.01176
1314.38981,0.01179
1312.32964,0.01182
1310.26947,0.01186
1308.20929,0.01190
1306.14912,0.01193
1304.08895,0.01196
1302.02878,0.01198
1299.96861,0.01197
1297.90843,0.01195
1295.84826,0.01198
1293.78809,0.01200
1291.72792,0.01197
1289.66775,0.01196
1287.60757,0.01195
1285.54740,0.01193
1283.48723,0.01196
1281.42706,0.01204
1279.36688,0.01208
1277.30671,0.01206
1275.24654,0.01204
1273.18637,0.01206
1271.12620,0.01209
1269.06602,0.01210
1267.00585,0.01206
1264.94568,0.01206
1262.88551,0.01210
1260.82534,0.01205
1258.76516,0.01193
1256.70499,0.01182
1254.64482,0.01177
1252.58465,0.01171
1250.52447,0.01161
1248.46430,0.01154
1246.40413,0.01143
1244.34396,0.01128
1242.28379,0.01123
1240.22361,0.01129
1238.16344,0.01131
1236.10327,0.01124
1234.04310,0.01108
1231.98293,0.01096
1229.92275,0.01094
1227.86258,0.01089
1225.80241,0.01079
1223.74224,0.01073
1221.68207,0.01064
1219.62189,0.01056
1217.56172,0.01049
1215.50155,0.01032
1213.44138,0.01011
1211.38120,0.00996
1209.32103,0.00986
1207.26086,0.00977
1205.20069,0.00980
1203.14052,0.00993
1201.08034,0.00995
1199.02017,0.00986
1196.96000,0.00993
1194.89983,0.01003
1192.83966,0.01003
1190.77948,0.01003
1188.71931,0.01007
1186.65914,0.01020
1184.59897,0.01048
1182.53880,0.01074
1180.47862,0.01093
1178.41845,0.01114
1176.35828,0.01121
1174.29811,0.01118
1172.23793,0.01138
1170.17776,0.01169
1168.11759,0.01189
1166.05742,0.01211
1163.99725,0.01250
1161.93707,0.01296
1159.87690,0.01337
1157.81673,0.01379
1155.75656,0.01424
1153.69639,0.01470
1151.63621,0.01526
1149.57604,0.01590
1147.51587,0.01645
1145.45570,0.01689
1143.39552,0.01738
1141.33535,0.01800
1139.27518,0.01869
1137.21501,0.01942
1135.15484,0.02022
1133.09466,0.02097
1131.03449,0.02163
1128.97432,0.02231
1126.91415,0.02305
1124.85398,0.02380
1122.79380,0.02466
1120.73363,0.02560
1118.67346,0.02644
1116.61329,0.02716
1114.55312,0.02794
1112.49294,0.02872
1110.43277,0.02936
1108.37260,0.03003
1106.31243,0.03085
1104.25225,0.03165
1102.19208,0.03235
1100.13191,0.03311
1098.07174,0.03380
1096.01157,0.03432
1093.95139,0.03489
1091.89122,0.03558
1089.83105,0.03623
1087.77088,0.03684
1085.71071,0.03745
1083.65053,0.03798
1081.59036,0.03840
1079.53019,0.03886
1077.47002,0.03947
1075.40985,0.04012
1073.34967,0.04069
1071.28950,0.04117
1069.22933,0.04151
1067.16916,0.04165
1065.10898,0.04159
1063.04881,0.04151
1060.98864,0.04138
1058.92847,0.04105
1056.86830,0.04051
1054.80812,0.03983
1052.74795,0.03905
1050.68778,0.03812
1048.62761,0.03701
1046.56744,0.03581
1044.50726,0.03457
1042.44709,0.03324
1040.38692,0.03179
1038.32675,0.03022
1036.26657,0.02861
1034.20640,0.02706
1032.14623,0.02567
1030.08606,0.02456
1028.02589,0.02363
1025.96571,0.02280
1023.90554,0.02200
1021.84537,0.02121
1019.78520,0.02051
1017.72503,0.02001
1015.66485,0.01980
1013.60468,0.01990
1011.54451,0.02019
1009.48434,0.02052
1007.42417,0.02088
1005.36399,0.02131
1003.30382,0.02197
1001.24365,0.02290
999.18348,0.02387
997.12330,0.02481
995.06313,0.02572
993.00296,0.02658
990.94279,0.02741
988.88262,0.02819
986.82244,0.02891
984.76227,0.02963
982.70210,0.03027
980.64193,0.03071
978.58176,0.03092
976.52158,0.03097
974.46141,0.03097
972.40124,0.03086
970.34107,0.03052
968.28089,0.02996
966.22072,0.02928
964.16055,0.02862
962.10038,0.02787
960.04021,0.02707
957.98003,0.02644
955.91986,0.02580
953.85969,0.02496
951.79952,0.02404
949.73935,0.02318
947.67917,0.02244
945.61900,0.02184
943.55883,0.02134
941.49866,0.02080
939.43849,0.02005
937.37831,0.01927
935.31814,0.01856
933.25797,0.01776
931.19780,0.01706
929.13762,0.01666
927.07745,0.01632
925.01728,0.01592
922.95711,0.01559
920.89694,0.01533
918.83676,0.01495
916.77659,0.01447
914.71642,0.01399
912.65625,0.01376
910.59608,0.01381
908.53590,0.01375
906.47573,0.01347
904.41556,0.01335
902.35539,0.01347
900.29522,0.01349
898.23504,0.01339
896.17487,0.01360
894.11470,0.01404
892.05453,0.01441
889.99435,0.01472
887.93418,0.01499
885.87401,0.01528
883.81384,0.01574
881.75367,0.01616
879.69349,0.01637
877.63332,0.01662
875.57315,0.01710
873.51298,0.01770
871.45281,0.01841
869.39263,0.01913
867.33246,0.01954
865.27229,0.01971
863.21212,0.01998
861.15194,0.02035
859.09177,0.02059
857.03160,0.02054
854.97143,0.02026
852.91126,0.02012
850.85108,0.02020
848.79091,0.02016
846.73074,0.01987
844.67057,0.01950
842.61040,0.01913
840.55022,0.01877
838.49005,0.01827
836.42988,0.01767
834.36971,0.01733
832.30954,0.01712
830.24936,0.01676
828.18919,0.01630
826.12902,0.01573
824.06885,0.01509
822.00867,0.01459
819.94850,0.01427
817.88833,0.01397
815.82816,0.01356
813.76799,0.01306
811.70781,0.01245
809.64764,0.01188
807.58747,0.01168
805.52730,0.01183
803.46713,0.01199
801.40695,0.01195
799.34678,0.01152
797.28661,0.01094
795.22644,0.01055
793.16627,0.01034
791.10609,0.01028
789.04592,0.01026
786.98575,0.01003
784.92558,0.00957
782.86540,0.00916
780.80523,0.00919
778.74506,0.00947
776.68489,0.00952
774.62472,0.00911
772.56454,0.00854
770.50437,0.00841
768.44420,0.00850
766.38403,0.00838
764.32386,0.00823
762.26368,0.00817
760.20351,0.00804
758.14334,0.00789
756.08317,0.00788
754.02299,0.00792
751.96282,0.00791
749.90265,0.00785
747.84248,0.00774
745.78231,0.00764
743.72213,0.00756
741.66196,0.00723
739.60179,0.00659
737.54162,0.00625
735.48145,0.00650
733.42127,0.00674
731.36110,0.00662
729.30093,0.00622
727.24076,0.00572
725.18059,0.00541
723.12041,0.00504
721.06024,0.00501
719.00007,0.00553
716.93990,0.00617
714.87972,0.00631
712.81955,0.00600
710.75938,0.00563
708.69921,0.00525
706.63904,0.00505
704.57886,0.00528
702.51869,0.00571
700.45852,0.00576
698.39835,0.00509
696.33818,0.00403
694.27800,0.00351
692.21783,0.00397
690.15766,0.00477
688.09749,0.00514
686.03731,0.00517
683.97714,0.00519
681.91697,0.00526
679.85680,0.00504
677.79663,0.00443
675.73645,0.00408
673.67628,0.00422
671.61611,0.00419
669.55594,0.00346
667.49577,0.00264
665.43559,0.00297
663.37542,0.00361
661.31525,0.00390
659.25508,0.00374
657.19491,0.00340
655.13473,0.00323
653.07456,0.00331
651.01439,0.00314
648.95422,0.00260
646.89404,0.00236
644.83387,0.00258
642.77370,0.00268
640.71353,0.00234
638.65336,0.00179
636.59318,0.00163
634.53301,0.00204
632.47284,0.00240
630.41267,0.00217
628.35250,0.00179
626.29232,0.00208
624.23215,0.00249
622.17198,0.00239
620.11181,0.00190
618.05164,0.00150
615.99146,0.00143
613.93129,0.00107
611.87112,0.00050
609.81095,0.00024
607.75077,0.00001
605.69060,0.00000
603.63043,0.00030
601.57026,0.00041
599.51009,0.00000
