3996.73391,0.00029
3994.67373,0.00072
3992.61356,0.00085
3990.55339,0.00093
3988.49322,0.00101
3986.43305,0.00086
3984.37287,0.00038
3982.31270,0.00000
3980.25253,0.00007
3978.19236,0.00030
3976.13219,0.00034
3974.07201,0.00033
3972.01184,0.00038
3969.95167,0.00042
3967.89150,0.00043
3965.83133,0.00042
3963.77115,0.00040
3961.71098,0.00034
3959.65081,0.00029
3957.59064,0.00034
3955.53046,0.00051
3953.47029,0.00062
3951.41012,0.00053
3949.34995,0.00032
3947.28978,0.00023
3945.22960,0.00031
3943.16943,0.00045
3941.10926,0.00050
3939.04909,0.00045
3936.98892,0.00031
3934.92874,0.00020
3932.86857,0.00024
3930.80840,0.00046
3928.74823,0.00075
3926.68805,0.00087
3924.62788,0.00077
3922.56771,0.00061
3920.50754,0.00043
3918.44737,0.00018
3916.38719,0.00000
3914.32702,0.00020
3912.26685,0.00074
3910.20668,0.00112
3908.14651,0.00108
3906.08633,0.00085
3904.02616,0.00064
3901.96599,0.00045
3899.90582,0.00045
3897.84565,0.00050
3895.78547,0.00053
3893.72530,0.00082
3891.66513,0.00126
3889.60496,0.00125
3887.54478,0.00081
3885.48461,0.00047
3883.42444,0.00055
3881.36427,0.00087
3879.30410,0.00092
3877.24392,0.00067
3875.18375,0.00046
3873.12358,0.00053
3871.06341,0.00085
3869.00324,0.00113
3866.94306,0.00106
3864.88289,0.00077
3862.82272,0.00044
3860.76255,0.00015
3858.70237,0.00000
3856.64220,0.00009
3854.58203,0.00051
3852.52186,0.00086
3850.46169,0.00071
3848.40151,0.00047
3846.34134,0.00052
3844.28117,0.00067
3842.22100,0.00054
3840.16083,0.00024
3838.10065,0.00007
3836.04048,0.00007
3833.98031,0.00018
3831.92014,0.00032
3829.85997,0.00035
3827.79979,0.00029
3825.73962,0.00031
3823.67945,0.00055
3821.61928,0.00093
3819.55910,0.00102
3817.49893,0.00079
3815.43876,0.00068
3813.37859,0.00071
3811.31842,0.00076
3809.25824,0.00092
3807.19807,0.00103
3805.13790,0.00089
3803.07773,0.00075
3801.01756,0.00084
3798.95738,0.00098
3796.89721,0.00105
3794.83704,0.00102
3792.77687,0.00086
3790.71670,0.00073
3788.65652,0.00076
3786.59635,0.00100
3784.53618,0.00132
3782.47601,0.00146
3780.41583,0.00141
3778.35566,0.00125
3776.29549,0.00102
3774.23532,0.00090
3772.17515,0.00093
3770.11497,0.00085
3768.05480,0.00055
3765.99463,0.00038
3763.93446,0.00045
3761.87429,0.00062
3759.81411,0.00076
3757.75394,0.00070
3755.69377,0.00044
3753.63360,0.00028
3751.57342,0.00038
3749.51325,0.00043
3747.45308,0.00027
3745.39291,0.00016
3743.33274,0.00027
3741.27256,0.00032
3739.21239,0.00023
3737.15222,0.00032
3735.09205,0.00062
3733.03188,0.00077
3730.97170,0.00056
3728.91153,0.00019
3726.85136,0.00000
3724.79119,0.00009
3722.73102,0.00025
3720.67084,0.00035
3718.61067,0.00041
3716.55050,0.00032
3714.49033,0.00013
3712.43015,0.00025
3710.36998,0.00067
3708.30981,0.00083
3706.24964,0.00060
3704.18947,0.00041
3702.12929,0.00049
3700.06912,0.00064
3698.00895,0.00068
3695.94878,0.00061
3693.88861,0.00056
3691.82843,0.00066
3689.76826,0.00077
3687.70809,0.00080
3685.64792,0.00087
3683.58775,0.00101
3681.52757,0.00122
3679.46740,0.00143
3677.40723,0.00154
3675.34706,0.00141
3673.28688,0.00116
3671.22671,0.00118
3669.16654,0.00150
3667.10637,0.00174
3665.04620,0.00186
3662.98602,0.00194
3660.92585,0.00182
3658.86568,0.00153
3656.80551,0.00139
3654.74534,0.00148
3652.68516,0.00191
3650.62499,0.00273
3648.56482,0.00339
3646.50465,0.00336
3644.44447,0.00296
3642.38430,0.00279
3640.32413,0.00298
3638.26396,0.00322
3636.20379,0.00339
3634.14361,0.00364
3632.08344,0.00401
3630.02327,0.00443
3627.96310,0.00477
3625.90293,0.00492
3623.84275,0.00509
3621.78258,0.00541
3619.72241,0.00564
3617.66224,0.00549
3615.60207,0.00521
3613.54189,0.00524
3611.48172,0.00555
3609.42155,0.00597
3607.36138,0.00640
3605.30120,0.00665
3603.24103,0.00672
3601.18086,0.00692
3599.12069,0.00733
3597.06052,0.00776
3595.00034,0.00809
3592.94017,0.00835
3590.88000,0.00850
3588.81983,0.00855
3586.75966,0.00865
3584.69948,0.00885
3582.63931,0.00903
3580.57914,0.00917
3578.51897,0.00929
3576.45879,0.00948
3574.39862,0.00991
3572.33845,0.01038
3570.27828,0.01072
3568.21811,0.01110
3566.15793,0.01139
3564.09776,0.01125
3562.03759,0.01091
3559.97742,0.01080
3557.91725,0.01102
3555.85707,0.01133
3553.79690,0.01165
3551.73673,0.01199
3549.67656,0.01219
3547.61639,0.01224
3545.55621,0.01246
3543.49604,0.01287
3541.43587,0.01317
3539.37570,0.01347
3537.31552,0.01377
3535.25535,0.01395
3533.19518,0.01417
3531.13501,0.01443
3529.07484,0.01456
3527.01466,0.01475
3524.95449,0.01505
3522.89432,0.01513
3520.83415,0.01504
3518.77398,0.01513
3516.71380,0.01539
3514.65363,0.01554
3512.59346,0.01569
3510.53329,0.01609
3508.47312,0.01650
3506.41294,0.01676
3504.35277,0.01702
3502.29260,0.01730
3500.23243,0.01753
3498.17225,0.01777
3496.11208,0.01800
3494.05191,0.01815
3491.99174,0.01821
3489.93157,0.01827
3487.87139,0.01852
3485.81122,0.01898
3483.75105,0.01940
3481.69088,0.01958
3479.63071,0.01947
3477.57053,0.01932
3475.51036,0.01935
3473.45019,0.01954
3471.39002,0.01979
3469.32984,0.02007
3467.26967,0.02030
3465.20950,0.02035
3463.14933,0.02045
3461.08916,0.02085
3459.02898,0.02119
3456.96881,0.02118
3454.90864,0.02106
3452.84847,0.02115
3450.78830,0.02137
3448.72812,0.02166
3446.66795,0.02200
3444.60778,0.02217
3442.54761,0.02217
3440.48744,0.02213
3438.42726,0.02220
3436.36709,0.02255
3434.30692,0.02299
3432.24675,0.02320
3430.18657,0.02319
3428.12640,0.02315
3426.06623,0.02317
3424.00606,0.02337
3421.94589,0.02374
3419.88571,0.02394
3417.82554,0.02402
3415.76537,0.02422
3413.70520,0.02436
3411.64503,0.02444
3409.58485,0.02460
3407.52468,0.02474
3405.46451,0.02487
3403.40434,0.02511
3401.34416,0.02528
3399.28399,0.02516
3397.22382,0.02514
3395.16365,0.02530
3393.10348,0.02559
3391.04330,0.02580
3388.98313,0.02591
3386.92296,0.02604
3384.86279,0.02615
3382.80262,0.02626
3380.74244,0.02638
3378.68227,0.02644
3376.62210,0.02633
3374.56193,0.02623
3372.50176,0.02631
3370.44158,0.02637
3368.38141,0.02639
3366.32124,0.02656
3364.26107,0.02676
3362.20089,0.02691
3360.14072,0.02718
3358.08055,0.02743
3356.02038,0.02744
3353.96021,0.02725
3351.90003,0.02705
3349.83986,0.02707
3347.77969,0.02734
3345.71952,0.02759
3343.65935,0.02765
3341.59917,0.02770
3339.53900,0.02788
3337.47883,0.02795
3335.41866,0.02792
3333.35849,0.02797
3331.29831,0.02801
3329.23814,0.02808
3327.17797,0.02821
3325.11780,0.02824
3323.05762,0.02816
3320.99745,0.02813
3318.93728,0.02814
3316.87711,0.02802
3314.81694,0.02781
3312.75676,0.02781
3310.69659,0.02810
3308.63642,0.02845
3306.57625,0.02866
3304.51608,0.02877
3302.45590,0.02885
3300.39573,0.02882
3298.33556,0.02883
3296.27539,0.02894
3294.21521,0.02900
3292.15504,0.02903
3290.09487,0.02913
3288.03470,0.02924
3285.97453,0.02918
3283.91435,0.02897
3281.85418,0.02897
3279.79401,0.02916
3277.73384,0.02921
3275.67367,0.02927
3273.61349,0.02948
3271.55332,0.02951
3269.49315,0.02936
3267.43298,0.02936
3265.37281,0.02948
3263.31263,0.02945
3261.25246,0.02932
3259.19229,0.02927
3257.13212,0.02939
3255.07194,0.02962
3253.01177,0.02983
3250.95160,0.02993
3248.89143,0.02988
3246.83126,0.02985
3244.77108,0.02994
3242.71091,0.02991
3240.65074,0.02972
3238.59057,0.02966
3236.53040,0.02983
3234.47022,0.02999
3232.41005,0.02986
3230.34988,0.02960
3228.28971,0.02952
3226.22954,0.02961
3224.16936,0.02982
3222.10919,0.03009
3220.04902,0.03023
3217.98885,0.03011
3215.92867,0.02996
3213.86850,0.02997
3211.80833,0.03002
3209.74816,0.03012
3207.68799,0.03022
3205.62781,0.03020
3203.56764,0.03005
3201.50747,0.02981
3199.44730,0.02965
3197.38713,0.02970
3195.32695,0.02986
3193.26678,0.02988
3191.20661,0.02981
3189.14644,0.02972
3187.08626,0.02964
3185.02609,0.02963
3182.96592,0.02967
3180.90575,0.02968
3178.84558,0.02969
3176.78540,0.02967
3174.72523,0.02965
3172.66506,0.02964
3170.60489,0.02957
3168.54472,0.02949
3166.48454,0.02951
3164.42437,0.02945
3162.36420,0.02928
3160.30403,0.02919
3158.24386,0.02912
3156.18368,0.02909
3154.12351,0.02918
3152.06334,0.02924
3150.00317,0.02926
3147.94299,0.02927
3145.88282,0.02922
3143.82265,0.02910
3141.76248,0.02892
3139.70231,0.02879
3137.64213,0.02884
3135.58196,0.02896
3133.52179,0.02898
3131.46162,0.02885
3129.40145,0.02863
3127.34127,0.02844
3125.28110,0.02835
3123.22093,0.02825
3121.16076,0.02806
3119.10058,0.02786
3117.04041,0.02769
3114.98024,0.02757
3112.92007,0.02760
3110.85990,0.02776
3108.79972,0.02782
3106.73955,0.02773
3104.67938,0.02765
3102.61921,0.02754
3100.55904,0.02729
3098.49886,0.02716
3096.43869,0.02726
3094.37852,0.02741
3092.31835,0.02743
3090.25818,0.02720
3088.19800,0.02687
3086.13783,0.02661
3084.07766,0.02651
3082.01749,0.02666
3079.95731,0.02690
3077.89714,0.02695
3075.83697,0.02672
3073.77680,0.02642
3071.71663,0.02625
3069.65645,0.02601
3067.59628,0.02573
3065.53611,0.02570
3063.47594,0.02579
3061.41577,0.02575
3059.35559,0.02560
3057.29542,0.02545
3055.23525,0.02535
3053.17508,0.02533
3051.11491,0.02527
3049.05473,0.02511
3046.99456,0.02500
3044.93439,0.02499
3042.87422,0.02497
3040.81404,0.02491
3038.75387,0.02471
3036.69370,0.02427
3034.63353,0.02395
3032.57336,0.02394
3030.51318,0.02396
3028.45301,0.02386
3026.39284,0.02372
3024.33267,0.02354
3022.27250,0.02339
3020.21232,0.02329
3018.15215,0.02315
3016.09198,0.02298
3014.03181,0.02291
3011.97163,0.02295
3009.91146,0.02291
3007.85129,0.02262
3005.79112,0.02231
3003.73095,0.02212
3001.67077,0.02193
2999.61060,0.02180
2997.55043,0.02179
2995.49026,0.02178
2993.43009,0.02163
2991.36991,0.02153
2989.30974,0.02154
2987.24957,0.02157
2985.18940,0.02151
2983.12923,0.02148
2981.06905,0.02155
2979.00888,0.02156
2976.94871,0.02145
2974.88854,0.02137
2972.82836,0.02123
2970.76819,0.02093
2968.70802,0.02074
2966.64785,0.02076
2964.58768,0.02074
2962.52750,0.02067
2960.46733,0.02058
2958.40716,0.02046
2956.34699,0.02045
2954.28682,0.02065
2952.22664,0.02077
2950.16647,0.02048
2948.10630,0.02011
2946.04613,0.02002
2943.98596,0.02015
2941.92578,0.02022
2939.86561,0.02016
2937.80544,0.02008
2935.74527,0.02000
2933.68509,0.01990
2931.62492,0.01978
2929.56475,0.01959
2927.50458,0.01943
2925.44441,0.01936
2923.38423,0.01925
2921.32406,0.01906
2919.26389,0.01892
2917.20372,0.01879
2915.14355,0.01861
2913.08337,0.01848
2911.02320,0.01845
2908.96303,0.01844
2906.90286,0.01845
2904.84268,0.01844
2902.78251,0.01834
2900.72234,0.01819
2898.66217,0.01806
2896.60200,0.01792
2894.54182,0.01773
2892.48165,0.01747
2890.42148,0.01731
2888.36131,0.01731
2886.30114,0.01738
2884.24096,0.01749
2882.18079,0.01749
2880.12062,0.01726
2878.06045,0.01701
2876.00028,0.01689
2873.94010,0.01687
2871.87993,0.01684
2869.81976,0.01666
2867.75959,0.01640
2865.69941,0.01622
2863.63924,0.01617
2861.57907,0.01625
2859.51890,0.01629
2857.45873,0.01614
2855.39855,0.01596
2853.33838,0.01583
2851.27821,0.01563
2849.21804,0.01542
2847.15787,0.01535
2845.09769,0.01539
2843.03752,0.01541
2840.97735,0.01525
2838.91718,0.01493
2836.85700,0.01475
2834.79683,0.01474
2832.73666,0.01462
2830.67649,0.01444
2828.61632,0.01442
2826.55614,0.01452
2824.49597,0.01452
2822.43580,0.01436
2820.37563,0.01423
2818.31546,0.01413
2816.25528,0.01400
2814.19511,0.01395
2812.13494,0.01396
2810.07477,0.01385
2808.01460,0.01368
2805.95442,0.01355
2803.89425,0.01343
2801.83408,0.01330
2799.77391,0.01320
2797.71373,0.01313
2795.65356,0.01310
2793.59339,0.01311
2791.53322,0.01306
2789.47305,0.01290
2787.41287,0.01274
2785.35270,0.01270
2783.29253,0.01263
2781.23236,0.01252
2779.17219,0.01246
2777.11201,0.01237
2775.05184,0.01220
2772.99167,0.01211
2770.93150,0.01211
2768.87133,0.01216
2766.81115,0.01222
2764.75098,0.01214
2762.69081,0.01188
2760.63064,0.01165
2758.57046,0.01159
2756.51029,0.01164
2754.45012,0.01162
2752.38995,0.01152
2750.32978,0.01153
2748.26960,0.01158
2746.20943,0.01144
2744.14926,0.01124
2742.08909,0.01122
2740.02892,0.01125
2737.96874,0.01120
2735.90857,0.01114
2733.84840,0.01102
2731.78823,0.01079
2729.72805,0.01062
2727.66788,0.01059
2725.60771,0.01055
2723.54754,0.01042
2721.48737,0.01022
2719.42719,0.01008
2717.36702,0.01005
2715.30685,0.01004
2713.24668,0.00996
2711.18651,0.00987
2709.12633,0.00981
2707.06616,0.00984
2705.00599,0.00987
2702.94582,0.00973
2700.88565,0.00958
2698.82547,0.00953
2696.76530,0.00940
2694.70513,0.00932
2692.64496,0.00938
2690.58478,0.00941
2688.52461,0.00935
2686.46444,0.00929
2684.40427,0.00929
2682.34410,0.00932
2680.28392,0.00927
2678.22375,0.00904
2676.16358,0.00885
2674.10341,0.00884
2672.04324,0.00877
2669.98306,0.00860
2667.92289,0.00858
2665.86272,0.00866
2663.80255,0.00860
2661.74238,0.00848
2659.68220,0.00849
2657.62203,0.00852
2655.56186,0.00852
2653.50169,0.00854
2651.44151,0.00847
2649.38134,0.00825
2647.32117,0.00801
2645.26100,0.00787
2643.20083,0.00785
2641.14065,0.00783
2639.08048,0.00775
2637.02031,0.00768
2634.96014,0.00766
2632.89997,0.00761
2630.83979,0.00751
2628.77962,0.00745
2626.71945,0.00747
2624.65928,0.00740
2622.59910,0.00716
2620.53893,0.00693
2618.47876,0.00682
2616.41859,0.00692
2614.35842,0.00712
2612.29824,0.00726
2610.23807,0.00723
2608.17790,0.00707
2606.11773,0.00696
2604.05756,0.00678
2601.99738,0.00649
2599.93721,0.00642
2597.87704,0.00650
2595.81687,0.00651
2593.75670,0.00652
2591.69652,0.00657
2589.63635,0.00648
2587.57618,0.00629
2585.51601,0.00610
2583.45583,0.00595
2581.39566,0.00612
2579.33549,0.00648
2577.27532,0.00666
2575.21515,0.00660
2573.15497,0.00630
2571.09480,0.00598
2569.03463,0.00595
2566.97446,0.00604
2564.91429,0.00603
2562.85411,0.00611
2560.79394,0.00628
2558.73377,0.00630
2556.67360,0.00621
2554.61342,0.00622
2552.55325,0.00627
2550.49308,0.00623
2548.43291,0.00612
2546.37274,0.00604
2544.31256,0.00595
2542.25239,0.00582
2540.19222,0.00577
2538.13205,0.00587
2536.07188,0.00611
2534.01170,0.00625
2531.95153,0.00614
2529.89136,0.00592
2527.83119,0.00573
2525.77102,0.00575
2523.71084,0.00603
2521.65067,0.00630
2519.59050,0.00629
2517.53033,0.00600
2515.47015,0.00591
2513.40998,0.00618
2511.34981,0.00640
2509.28964,0.00643
2507.22947,0.00647
2505.16929,0.00644
2503.10912,0.00624
2501.04895,0.00607
2498.98878,0.00610
2496.92861,0.00630
2494.86843,0.00642
2492.80826,0.00636
2490.74809,0.00629
2488.68792,0.00636
2486.62775,0.00660
2484.56757,0.00676
2482.50740,0.00672
2480.44723,0.00680
2478.38706,0.00691
2476.32688,0.00682
2474.26671,0.00668
2472.20654,0.00659
2470.14637,0.00672
2468.08620,0.00696
2466.02602,0.00693
2463.96585,0.00681
2461.90568,0.00695
2459.84551,0.00715
2457.78534,0.00724
2455.72516,0.00725
2453.66499,0.00721
2451.60482,0.00715
2449.54465,0.00688
2447.48447,0.00658
2445.42430,0.00656
2443.36413,0.00679
2441.30396,0.00709
2439.24379,0.00703
2437.18361,0.00667
2435.12344,0.00661
2433.06327,0.00679
2431.00310,0.00686
2428.94293,0.00673
2426.88275,0.00658
2424.82258,0.00651
2422.76241,0.00647
2420.70224,0.00653
2418.64207,0.00665
2416.58189,0.00670
2414.52172,0.00672
2412.46155,0.00676
2410.40138,0.00673
2408.34120,0.00661
2406.28103,0.00658
2404.22086,0.00670
2402.16069,0.00673
2400.10052,0.00670
2398.04034,0.00664
2395.98017,0.00666
2393.92000,0.00673
2391.85983,0.00689
2389.79966,0.00706
2387.73948,0.00709
2385.67931,0.00700
2383.61914,0.00692
2381.55897,0.00694
2379.49880,0.00699
2377.43862,0.00707
2375.37845,0.00705
2373.31828,0.00685
2371.25811,0.00683
2369.19793,0.00725
2367.13776,0.00793
2365.07759,0.00888
2363.01742,0.01012
2360.95725,0.01084
2358.89707,0.01040
2356.83690,0.00946
2354.77673,0.00863
2352.71656,0.00794
2350.65639,0.00776
2348.59621,0.00804
2346.53604,0.00821
2344.47587,0.00805
2342.41570,0.00803
2340.35552,0.00848
2338.29535,0.00898
2336.23518,0.00919
2334.17501,0.00901
2332.11484,0.00826
2330.05466,0.00754
2327.99449,0.00777
2325.93432,0.00849
2323.87415,0.00872
2321.81398,0.00840
2319.75380,0.00799
2317.69363,0.00761
2315.63346,0.00725
2313.57329,0.00702
2311.51312,0.00697
2309.45294,0.00694
2307.39277,0.00674
2305.33260,0.00649
2303.27243,0.00629
2301.21225,0.00611
2299.15208,0.00610
2297.09191,0.00657
2295.03174,0.00723
2292.97157,0.00754
2290.91139,0.00751
2288.85122,0.00737
2286.79105,0.00708
2284.73088,0.00665
2282.67071,0.00624
2280.61053,0.00600
2278.55036,0.00597
2276.49019,0.00594
2274.43002,0.00577
2272.36984,0.00578
2270.30967,0.00629
2268.24950,0.00667
2266.18933,0.00642
2264.12916,0.00606
2262.06898,0.00587
2260.00881,0.00567
2257.94864,0.00548
2255.88847,0.00533
2253.82830,0.00507
2251.76812,0.00493
2249.70795,0.00504
2247.64778,0.00536
2245.58761,0.00560
2243.52744,0.00549
2241.46726,0.00527
2239.40709,0.00502
2237.34692,0.00506
2235.28675,0.00571
2233.22657,0.00589
2231.16640,0.00512
2229.10623,0.00469
2227.04606,0.00508
2224.98589,0.00532
2222.92571,0.00488
2220.86554,0.00440
2218.80537,0.00431
2216.74520,0.00473
2214.68503,0.00544
2212.62485,0.00545
2210.56468,0.00486
2208.50451,0.00457
2206.44434,0.00420
2204.38417,0.00382
2202.32399,0.00440
2200.26382,0.00542
2198.20365,0.00561
2196.14348,0.00480
2194.08330,0.00425
2192.02313,0.00478
2189.96296,0.00530
2187.90279,0.00544
2185.84262,0.00569
2183.78244,0.00523
2181.72227,0.00418
2179.66210,0.00369
2177.60193,0.00336
2175.54176,0.00341
2173.48158,0.00430
2171.42141,0.00515
2169.36124,0.00551
2167.30107,0.00552
2165.24089,0.00512
2163.18072,0.00415
2161.12055,0.00235
2159.06038,0.00040
2157.00021,0.00000
2154.94003,0.00109
2152.87986,0.00210
2150.81969,0.00221
2148.75952,0.00182
2146.69935,0.00186
2144.63917,0.00245
2142.57900,0.00314
2140.51883,0.00353
2138.45866,0.00317
2136.39849,0.00237
2134.33831,0.00217
2132.27814,0.00281
2130.21797,0.00356
2128.15780,0.00351
2126.09762,0.00288
2124.03745,0.00255
2121.97728,0.00257
2119.91711,0.00263
2117.85694,0.00278
2115.79676,0.00302
2113.73659,0.00334
2111.67642,0.00361
2109.61625,0.00353
2107.55608,0.00320
2105.49590,0.00295
2103.43573,0.00295
2101.37556,0.00338
2099.31539,0.00417
2097.25521,0.00430
2095.19504,0.00382
2093.13487,0.00346
2091.07470,0.00317
2089.01453,0.00284
2086.95435,0.00278
2084.89418,0.00286
2082.83401,0.00283
2080.77384,0.00278
2078.71367,0.00305
2076.65349,0.00340
2074.59332,0.00324
2072.53315,0.00296
2070.47298,0.00311
2068.41281,0.00330
2066.35263,0.00327
2064.29246,0.00323
2062.23229,0.00328
2060.17212,0.00327
2058.11194,0.00322
2056.05177,0.00314
2053.99160,0.00313
2051.93143,0.00342
2049.87126,0.00359
2047.81108,0.00337
2045.75091,0.00304
2043.69074,0.00259
2041.63057,0.00204
2039.57040,0.00162
2037.51022,0.00157
2035.45005,0.00212
2033.38988,0.00277
2031.32971,0.00279
2029.26954,0.00229
2027.20936,0.00139
2025.14919,0.00060
2023.08902,0.00054
2021.02885,0.00071
2018.96867,0.00091
2016.90850,0.00134
2014.84833,0.00203
2012.78816,0.00276
2010.72799,0.00273
2008.66781,0.00210
2006.60764,0.00209
2004.54747,0.00286
2002.48730,0.00344
2000.42713,0.00293
1998.36695,0.00194
1996.30678,0.00183
1994.24661,0.00218
1992.18644,0.00230
1990.12626,0.00252
1988.06609,0.00263
1986.00592,0.00240
1983.94575,0.00244
1981.88558,0.00334
1979.82540,0.00406
1977.76523,0.00348
1975.70506,0.00313
1973.64489,0.00374
1971.58472,0.00325
1969.52454,0.00151
1967.46437,0.00058
1965.40420,0.00035
1963.34403,0.00000
1961.28386,0.00022
1959.22368,0.00082
1957.16351,0.00104
1955.10334,0.00127
1953.04317,0.00165
1950.98299,0.00161
1948.92282,0.00123
1946.86265,0.00091
1944.80248,0.00090
1942.74231,0.00143
1940.68213,0.00201
1938.62196,0.00197
1936.56179,0.00152
1934.50162,0.00126
1932.44145,0.00133
1930.38127,0.00127
1928.32110,0.00102
1926.26093,0.00112
1924.20076,0.00157
1922.14059,0.00172
1920.08041,0.00120
1918.02024,0.00067
1915.96007,0.00078
1913.89990,0.00118
1911.83972,0.00132
1909.77955,0.00104
1907.71938,0.00078
1905.65921,0.00096
1903.59904,0.00138
1901.53886,0.00162
1899.47869,0.00164
1897.41852,0.00161
1895.35835,0.00153
1893.29818,0.00145
1891.23800,0.00143
1889.17783,0.00138
1887.11766,0.00142
1885.05749,0.00157
1882.99731,0.00157
1880.93714,0.00145
1878.87697,0.00149
1876.81680,0.00163
1874.75663,0.00164
1872.69645,0.00146
1870.63628,0.00132
1868.57611,0.00131
1866.51594,0.00123
1864.45577,0.00113
1862.39559,0.00117
1860.33542,0.00121
1858.27525,0.00115
1856.21508,0.00119
1854.15491,0.00143
1852.09473,0.00154
1850.03456,0.00140
1847.97439,0.00138
1845.91422,0.00155
1843.85404,0.00165
1841.79387,0.00162
1839.73370,0.00153
1837.67353,0.00144
1835.61336,0.00148
1833.55318,0.00172
1831.49301,0.00203
1829.43284,0.00213
1827.37267,0.00201
1825.31250,0.00195
1823.25232,0.00196
1821.19215,0.00173
1819.13198,0.00132
1817.07181,0.00110
1815.01163,0.00118
1812.95146,0.00134
1810.89129,0.00147
1808.83112,0.00154
1806.77095,0.00151
1804.71077,0.00144
1802.65060,0.00151
1800.59043,0.00169
1798.53026,0.00178
1796.47009,0.00177
1794.40991,0.00176
1792.34974,0.00167
1790.28957,0.00149
1788.22940,0.00146
1786.16923,0.00164
1784.10905,0.00190
1782.04888,0.00213
1779.98871,0.00219
1777.92854,0.00209
1775.86836,0.00199
1773.80819,0.00203
1771.74802,0.00204
1769.68785,0.00187
1767.62768,0.00180
1765.56750,0.00185
1763.50733,0.00188
1761.44716,0.00199
1759.38699,0.00223
1757.32682,0.00248
1755.26664,0.00275
1753.20647,0.00307
1751.14630,0.00334
1749.08613,0.00337
1747.02596,0.00330
1744.96578,0.00333
1742.90561,0.00335
1740.84544,0.00331
1738.78527,0.00331
1736.72509,0.00334
1734.66492,0.00336
1732.60475,0.00339
1730.54458,0.00348
1728.48441,0.00352
1726.42423,0.00355
1724.36406,0.00361
1722.30389,0.00365
1720.24372,0.00387
1718.18355,0.00440
1716.12337,0.00484
1714.06320,0.00484
1712.00303,0.00470
1709.94286,0.00472
1707.88268,0.00491
1705.82251,0.00514
1703.76234,0.00530
1701.70217,0.00547
1699.64200,0.00579
1697.58182,0.00613
1695.52165,0.00634
1693.46148,0.00653
1691.40131,0.00688
1689.34114,0.00738
1687.28096,0.00797
1685.22079,0.00867
1683.16062,0.00922
1681.10045,0.00940
1679.04028,0.00952
1676.98010,0.00981
1674.91993,0.01038
1672.85976,0.01112
1670.79959,0.01183
1668.73941,0.01227
1666.67924,0.01242
1664.61907,0.01259
1662.55890,0.01275
1660.49873,0.01274
1658.43855,0.01275
1656.37838,0.01301
1654.31821,0.01342
1652.25804,0.01371
1650.19787,0.01385
1648.13769,0.01385
1646.07752,0.01365
1644.01735,0.01340
1641.95718,0.01329
1639.89701,0.01333
1637.83683,0.01343
1635.77666,0.01331
1633.71649,0.01288
1631.65632,0.01245
1629.59614,0.01215
1627.53597,0.01193
1625.47580,0.01181
1623.41563,0.01166
1621.35546,0.01137
1619.29528,0.01115
1617.23511,0.01103
1615.17494,0.01077
1613.11477,0.01047
1611.05460,0.01036
1608.99442,0.01038
1606.93425,0.01032
1604.87408,0.01013
1602.81391,0.00985
1600.75373,0.00956
1598.69356,0.00935
1596.63339,0.00927
1594.57322,0.00920
1592.51305,0.00898
1590.45287,0.00866
1588.39270,0.00836
1586.33253,0.00813
1584.27236,0.00792
1582.21219,0.00774
1580.15201,0.00768
1578.09184,0.00767
1576.03167,0.00750
1573.97150,0.00710
1571.91133,0.00684
1569.85115,0.00683
1567.79098,0.00678
1565.73081,0.00664
1563.67064,0.00662
1561.61046,0.00690
1559.55029,0.00725
1557.49012,0.00686
1555.42995,0.00603
1553.36978,0.00558
1551.30960,0.00555
1549.24943,0.00557
1547.18926,0.00556
1545.12909,0.00570
1543.06892,0.00593
1541.00874,0.00586
1538.94857,0.00527
1536.88840,0.00481
1534.82823,0.00477
1532.76805,0.00479
1530.70788,0.00463
1528.64771,0.00446
1526.58754,0.00441
1524.52737,0.00447
1522.46719,0.00448
1520.40702,0.00424
1518.34685,0.00399
1516.28668,0.00385
1514.22651,0.00363
1512.16633,0.00337
1510.10616,0.00326
1508.04599,0.00325
1505.98582,0.00302
1503.92565,0.00269
1501.86547,0.00258
1499.80530,0.00276
1497.74513,0.00293
1495.68496,0.00285
1493.62478,0.00273
1491.56461,0.00276
1489.50444,0.00282
1487.44427,0.00270
1485.38410,0.00241
1483.32392,0.00219
1481.26375,0.00212
1479.20358,0.00216
1477.14341,0.00232
1475.08324,0.00258
1473.02306,0.00273
1470.96289,0.00261
1468.90272,0.00247
1466.84255,0.00253
1464.78238,0.00269
1462.72220,0.00277
1460.66203,0.00290
1458.60186,0.00316
1456.54169,0.00315
1454.48151,0.00283
1452.42134,0.00259
1450.36117,0.00262
1448.30100,0.00272
1446.24083,0.00271
1444.18065,0.00267
1442.12048,0.00266
1440.06031,0.00266
1438.00014,0.00269
1435.93997,0.00275
1433.87979,0.00274
1431.81962,0.00267
1429.75945,0.00262
1427.69928,0.00270
1425.63910,0.00298
1423.57893,0.00331
1421.51876,0.00341
1419.45859,0.00332
1417.39842,0.00324
1415.33824,0.00325
1413.27807,0.00329
1411.21790,0.00330
1409.15773,0.00330
1407.09756,0.00328
1405.03738,0.00320
1402.97721,0.00313
1400.91704,0.00317
1398.85687,0.00316
1396.79670,0.00300
1394.73652,0.00282
1392.67635,0.00268
1390.61618,0.00260
1388.55601,0.00257
1386.49583,0.00254
1384.43566,0.00247
1382.37549,0.00247
1380.31532,0.00257
1378.25515,0.00265
1376.19497,0.00270
1374.13480,0.00269
1372.07463,0.00263
1370.01446,0.00261
1367.95429,0.00259
1365.89411,0.00251
1363.83394,0.00240
1361.77377,0.00225
1359.71360,0.00210
1357.65343,0.00198
1355.59325,0.00196
1353.53308,0.00202
1351.47291,0.00209
1349.41274,0.00211
1347.35256,0.00202
1345.29239,0.00188
1343.23222,0.00179
1341.17205,0.00178
1339.11188,0.00176
1337.05170,0.00174
1334.99153,0.00174
1332.93136,0.00176
1330.87119,0.00184
1328.81102,0.00193
1326.75084,0.00188
1324.69067,0.00174
1322.63050,0.00168
1320.57033,0.00171
1318.51015,0.00176
1316.44998,0.00183
1314.38981,0.00190
1312.32964,0.00192
1310.26947,0.00189
1308.20929,0.00190
1306.14912,0.00201
1304.08895,0.00209
1302.02878,0.00210
1299.96861,0.00213
1297.90843,0.00223
1295.84826,0.00240
1293.78809,0.00252
1291.72792,0.00252
1289.66775,0.00247
1287.60757,0.00243
1285.54740,0.00236
1283.48723,0.00231
1281.42706,0.00235
1279.36688,0.00247
1277.30671,0.00261
1275.24654,0.00273
1273.18637,0.00274
1271.12620,0.00268
1269.06602,0.00260
1267.00585,0.00252
1264.94568,0.00252
1262.88551,0.00269
1260.82534,0.00289
1258.76516,0.00294
1256.70499,0.00291
1254.64482,0.00290
1252.58465,0.00286
1250.52447,0.00273
1248.46430,0.00255
1246.40413,0.00244
1244.34396,0.00245
1242.28379,0.00248
1240.22361,0.00248
1238.16344,0.00244
1236.10327,0.00235
1234.04310,0.00222
1231.98293,0.00210
1229.92275,0.00200
1227.86258,0.00193
1225.80241,0.00178
1223.74224,0.00148
1221.68207,0.00124
1219.62189,0.00112
1217.56172,0.00100
1215.50155,0.00092
1213.44138,0.00086
1211.38120,0.00072
1209.32103,0.00054
1207.26086,0.00035
1205.20069,0.00013
1203.14052,0.00000
1201.08034,-0.00004
1199.02017,-0.00000
1196.96000,0.00005
1194.89983,0.00005
1192.83966,0.00000
1190.77948,-0.00006
1188.71931,-0.00018
1186.65914,-0.00027
1184.59897,-0.00024
1182.53880,-0.00014
1180.47862,-0.00002
1178.41845,0.00016
1176.35828,0.00045
1174.29811,0.00083
1172.23793,0.00112
1170.17776,0.00122
1168.11759,0.00126
1166.05742,0.00145
1163.99725,0.00186
1161.93707,0.00230
1159.87690,0.00267
1157.81673,0.00307
1155.75656,0.00352
1153.69639,0.00403
1151.63621,0.00456
1149.57604,0.00503
1147.51587,0.00551
1145.45570,0.00609
1143.39552,0.00676
1141.33535,0.00751
1139.27518,0.00827
1137.21501,0.00900
1135.15484,0.00977
1133.09466,0.01065
1131.03449,0.01161
1128.97432,0.01255
1126.91415,0.01357
1124.85398,0.01472
1122.79380,0.01593
1120.73363,0.01720
1118.67346,0.01853
1116.61329,0.01973
1114.55312,0.02079
1112.49294,0.02183
1110.43277,0.02286
1108.37260,0.02395
1106.31243,0.02518
1104.25225,0.02636
1102.19208,0.02737
1100.13191,0.02830
1098.07174,0.02915
1096.01157,0.02993
1093.95139,0.03069
1091.89122,0.03149
1089.83105,0.03240
1087.77088,0.03320
1085.71071,0.03371
1083.65053,0.03421
1081.59036,0.03502
1079.53019,0.03596
1077.47002,0.03669
1075.40985,0.03724
1073.34967,0.03775
1071.28950,0.03821
1069.22933,0.03855
1067.16916,0.03881
1065.10898,0.03895
1063.04881,0.03890
1060.98864,0.03874
1058.92847,0.03842
1056.86830,0.03784
1054.80812,0.03705
1052.74795,0.03609
1050.68778,0.03502
1048.62761,0.03386
1046.56744,0.03246
1044.50726,0.03095
1042.44709,0.02949
1040.38692,0.02793
1038.32675,0.02616
1036.26657,0.02435
1034.20640,0.02265
1032.14623,0.02101
1030.08606,0.01949
1028.02589,0.01821
1025.96571,0.01718
1023.90554,0.01623
1021.84537,0.01531
1019.78520,0.01453
1017.72503,0.01391
1015.66485,0.01348
1013.60468,0.01323
1011.54451,0.01312
1009.48434,0.01323
1007.42417,0.01379
1005.36399,0.01463
1003.30382,0.01541
1001.24365,0.01628
999.18348,0.01740
997.12330,0.01847
995.06313,0.01930
993.00296,0.02014
990.94279,0.02108
988.88262,0.02192
986.82244,0.02254
984.76227,0.02313
982.70210,0.02372
980.64193,0.02401
978.58176,0.02411
976.52158,0.02420
974.46141,0.02402
972.40124,0.02338
970.34107,0.02264
968.28089,0.02201
966.22072,0.02106
964.16055,0.01981
962.10038,0.01866
960.04021,0.01758
957.98003,0.01644
955.91986,0.01533
953.85969,0.01420
951.79952,0.01310
949.73935,0.01225
947.67917,0.01149
945.61900,0.01055
943.55883,0.00955
941.49866,0.00882
939.43849,0.00826
937.37831,0.00755
935.31814,0.00690
933.25797,0.00632
931.19780,0.00577
929.13762,0.00558
927.07745,0.00560
925.01728,0.00523
922.95711,0.00451
920.89694,0.00395
918.83676,0.00371
916.77659,0.00353
914.71642,0.00325
912.65625,0.00307
910.59608,0.00293
908.53590,0.00267
906.47573,0.00258
904.41556,0.00276
902.35539,0.00305
900.29522,0.00328
898.23504,0.00336
896.17487,0.00350
894.11470,0.00382
892.05453,0.00419
889.99435,0.00446
887.93418,0.00482
885.87401,0.00543
883.81384,0.00612
881.75367,0.00671
879.69349,0.00707
877.63332,0.00728
875.57315,0.00770
873.51298,0.00837
871.45281,0.00904
869.39263,0.00958
867.33246,0.01010
865.27229,0.01051
863.21212,0.01055
861.15194,0.01039
859.09177,0.01028
857.03160,0.01025
854.97143,0.01033
852.91126,0.01059
850.85108,0.01059
848.79091,0.01007
846.73074,0.00964
844.67057,0.00952
842.61040,0.00929
840.55022,0.00896
838.49005,0.00881
836.42988,0.00850
834.36971,0.00770
832.30954,0.00689
830.24936,0.00637
828.18919,0.00602
826.12902,0.00580
824.06885,0.00555
822.00867,0.00528
819.94850,0.00504
817.88833,0.00472
815.82816,0.00427
813.76799,0.00383
811.70781,0.00336
809.64764,0.00295
807.58747,0.00284
805.52730,0.00290
803.46713,0.00289
801.40695,0.00288
799.34678,0.00266
797.28661,0.00214
795.22644,0.00181
793.16627,0.00175
791.10609,0.00149
789.04592,0.00098
786.98575,0.00091
784.92558,0.00157
782.86540,0.00214
780.80523,0.00199
778.74506,0.00152
776.68489,0.00124
774.62472,0.00111
772.56454,0.00116
770.50437,0.00136
768.44420,0.00150
766.38403,0.00152
764.32386,0.00133
762.26368,0.00117
760.20351,0.00137
758.14334,0.00137
756.08317,0.00100
754.02299,0.00082
751.96282,0.00086
749.90265,0.00078
747.84248,0.00068
745.78231,0.00083
743.72213,0.00090
741.66196,0.00062
739.60179,0.00053
737.54162,0.00074
735.48145,0.00083
733.42127,0.00064
731.36110,0.00044
729.30093,0.00047
727.24076,0.00053
725.18059,0.00061
723.12041,0.00098
721.06024,0.00088
719.00007,0.00039
716.93990,0.00012
714.87972,0.00012
712.81955,0.00036
710.75938,0.00068
708.69921,0.00068
706.63904,0.00060
704.57886,0.00095
702.51869,0.00142
700.45852,0.00164
698.39835,0.00170
696.33818,0.00172
694.27800,0.00165
692.21783,0.00126
690.15766,0.00049
688.09749,0.00000
686.03731,0.00033
683.97714,0.00127
681.91697,0.00224
679.85680,0.00273
677.79663,0.00251
675.73645,0.00194
673.67628,0.00146
671.61611,0.00111
669.55594,0.00114
667.49577,0.00198
665.43559,0.00262
663.37542,0.00221
661.31525,0.00090
659.25508,0.00011
657.19491,0.00055
655.13473,0.00127
653.07456,0.00159
651.01439,0.00178
648.95422,0.00180
646.89404,0.00158
644.83387,0.00131
642.77370,0.00099
640.71353,0.00059
638.65336,0.00016
636.59318,0.00000
634.53301,0.00031
632.47284,0.00085
630.41267,0.00102
628.35250,0.00083
626.29232,0.00035
624.23215,-0.00016
622.17198,0.00038
620.11181,0.00128
618.05164,0.00086
615.99146,0.00056
613.93129,0.00141
611.87112,0.00188
609.81095,0.00164
607.75077,0.00103
605.69060,0.00019
603.63043,-0.00042
601.57026,-0.00020
599.51009,0.00000
