3996.73391,0.00038
3994.67373,0.00050
3992.61356,0.00064
3990.55339,0.00082
3988.49322,0.00085
3986.43305,0.00062
3984.37287,0.00031
3982.31270,0.00022
3980.25253,0.00034
3978.19236,0.00038
3976.13219,0.00039
3974.07201,0.00047
3972.01184,0.00043
3969.95167,0.00021
3967.89150,0.00006
3965.83133,0.00014
3963.77115,0.00029
3961.71098,0.00031
3959.65081,0.00021
3957.59064,0.00005
3955.53046,0.00000
3953.47029,0.00018
3951.41012,0.00045
3949.34995,0.00059
3947.28978,0.00063
3945.22960,0.00078
3943.16943,0.00096
3941.10926,0.00091
3939.04909,0.00066
3936.98892,0.00045
3934.92874,0.00035
3932.86857,0.00030
3930.80840,0.00037
3928.74823,0.00057
3926.68805,0.00071
3924.62788,0.00061
3922.56771,0.00038
3920.50754,0.00025
3918.44737,0.00028
3916.38719,0.00040
3914.32702,0.00058
3912.26685,0.00078
3910.20668,0.00080
3908.14651,0.00068
3906.08633,0.00051
3904.02616,0.00024
3901.96599,0.00007
3899.90582,0.00008
3897.84565,0.00008
3895.78547,0.00025
3893.72530,0.00063
3891.66513,0.00080
3889.60496,0.00061
3887.54478,0.00041
3885.48461,0.00025
3883.42444,0.00023
3881.36427,0.00046
3879.30410,0.00054
3877.24392,0.00042
3875.18375,0.00040
3873.12358,0.00059
3871.06341,0.00075
3869.00324,0.00063
3866.94306,0.00057
3864.88289,0.00070
3862.82272,0.00076
3860.76255,0.00075
3858.70237,0.00077
3856.64220,0.00090
3854.58203,0.00109
3852.52186,0.00087
3850.46169,0.00039
3848.40151,0.00027
3846.34134,0.00052
3844.28117,0.00063
3842.22100,0.00035
3840.16083,0.00009
3838.10065,0.00007
3836.04048,0.00012
3833.98031,0.00022
3831.92014,0.00035
3829.85997,0.00043
3827.79979,0.00049
3825.73962,0.00063
3823.67945,0.00086
3821.61928,0.00087
3819.55910,0.00061
3817.49893,0.00048
3815.43876,0.00047
3813.37859,0.00047
3811.31842,0.00060
3809.25824,0.00088
3807.19807,0.00101
3805.13790,0.00084
3803.07773,0.00061
3801.01756,0.00044
3798.95738,0.00047
3796.89721,0.00072
3794.83704,0.00090
3792.77687,0.00082
3790.71670,0.00056
3788.65652,0.00047
3786.59635,0.00080
3784.53618,0.00130
3782.47601,0.00159
3780.41583,0.00153
3778.35566,0.00116
3776.29549,0.00087
3774.23532,0.00098
3772.17515,0.00126
3770.11497,0.00136
3768.05480,0.00125
3765.99463,0.00114
3763.93446,0.00108
3761.87429,0.00112
3759.81411,0.00110
3757.75394,0.00092
3755.69377,0.00086
3753.63360,0.00111
3751.57342,0.00127
3749.51325,0.00097
3747.45308,0.00068
3745.39291,0.00043
3743.33274,0.00005
3741.27256,0.00000
3739.21239,0.00054
3737.15222,0.00142
3735.09205,0.00189
3733.03188,0.00152
3730.97170,0.00100
3728.91153,0.00086
3726.85136,0.00085
3724.79119,0.00080
3722.73102,0.00077
3720.67084,0.00085
3718.61067,0.00097
3716.55050,0.00102
3714.49033,0.00082
3712.43015,0.00035
3710.36998,0.00002
3708.30981,0.00018
3706.24964,0.00048
3704.18947,0.00065
3702.12929,0.00073
3700.06912,0.00086
3698.00895,0.00107
3695.94878,0.00131
3693.88861,0.00142
3691.82843,0.00134
3689.76826,0.00097
3687.70809,0.00059
3685.64792,0.00067
3683.58775,0.00100
3681.52757,0.00130
3679.46740,0.00161
3677.40723,0.00184
3675.34706,0.00163
3673.28688,0.00128
3671.22671,0.00128
3669.16654,0.00141
3667.10637,0.00147
3665.04620,0.00157
3662.98602,0.00170
3660.92585,0.00170
3658.86568,0.00142
3656.80551,0.00106
3654.74534,0.00103
3652.68516,0.00155
3650.62499,0.00219
3648.56482,0.00226
3646.50465,0.00197
3644.44447,0.00176
3642.38430,0.00163
3640.32413,0.00162
3638.26396,0.00183
3636.20379,0.00229
3634.14361,0.00288
3632.08344,0.00340
3630.02327,0.00341
3627.96310,0.00278
3625.90293,0.00240
3623.84275,0.00263
3621.78258,0.00293
3619.72241,0.00286
3617.66224,0.00267
3615.60207,0.00275
3613.54189,0.00294
3611.48172,0.00296
3609.42155,0.00291
3607.36138,0.00290
3605.30120,0.00308
3603.24103,0.00344
3601.18086,0.00380
3599.12069,0.00412
3597.06052,0.00443
3595.00034,0.00466
3592.94017,0.00486
3590.88000,0.00505
3588.81983,0.00496
3586.75966,0.00459
3584.69948,0.00449
3582.63931,0.00478
3580.57914,0.00515
3578.51897,0.00542
3576.45879,0.00557
3574.39862,0.00563
3572.33845,0.00574
3570.27828,0.00603
3568.21811,0.00622
3566.15793,0.00599
3564.09776,0.00573
3562.03759,0.00583
3559.97742,0.00605
3557.91725,0.00613
3555.85707,0.00611
3553.79690,0.00620
3551.73673,0.00635
3549.67656,0.00639
3547.61639,0.00632
3545.55621,0.00635
3543.49604,0.00651
3541.43587,0.00671
3539.37570,0.00704
3537.31552,0.00738
3535.25535,0.00741
3533.19518,0.00733
3531.13501,0.00742
3529.07484,0.00756
3527.01466,0.00773
3524.95449,0.00790
3522.89432,0.00790
3520.83415,0.00779
3518.77398,0.00770
3516.71380,0.00759
3514.65363,0.00741
3512.59346,0.00741
3510.53329,0.00778
3508.47312,0.00830
3506.41294,0.00870
3504.35277,0.00887
3502.29260,0.00893
3500.23243,0.00908
3498.17225,0.00935
3496.11208,0.00958
3494.05191,0.00967
3491.99174,0.00963
3489.93157,0.00948
3487.87139,0.00940
3485.81122,0.00948
3483.75105,0.00963
3481.69088,0.00974
3479.63071,0.00964
3477.57053,0.00944
3475.51036,0.00946
3473.45019,0.00974
3471.39002,0.01008
3469.32984,0.01031
3467.26967,0.01036
3465.20950,0.01026
3463.14933,0.01018
3461.08916,0.01029
3459.02898,0.01049
3456.96881,0.01065
3454.90864,0.01076
3452.84847,0.01090
3450.78830,0.01102
3448.72812,0.01112
3446.66795,0.01126
3444.60778,0.01126
3442.54761,0.01119
3440.48744,0.01127
3438.42726,0.01152
3436.36709,0.01177
3434.30692,0.01179
3432.24675,0.01159
3430.18657,0.01154
3428.12640,0.01172
3426.06623,0.01188
3424.00606,0.01198
3421.94589,0.01201
3419.88571,0.01197
3417.82554,0.01196
3415.76537,0.01199
3413.70520,0.01202
3411.64503,0.01204
3409.58485,0.01205
3407.52468,0.01200
3405.46451,0.01206
3403.40434,0.01233
3401.34416,0.01251
3399.28399,0.01242
3397.22382,0.01240
3395.16365,0.01243
3393.10348,0.01259
3391.04330,0.01289
3388.98313,0.01318
3386.92296,0.01335
3384.86279,0.01340
3382.80262,0.01339
3380.74244,0.01338
3378.68227,0.01338
3376.62210,0.01326
3374.56193,0.01303
3372.50176,0.01291
3370.44158,0.01290
3368.38141,0.01291
3366.32124,0.01304
3364.26107,0.01321
3362.20089,0.01340
3360.14072,0.01358
3358.08055,0.01358
3356.02038,0.01352
3353.96021,0.01350
3351.90003,0.01352
3349.83986,0.01364
3347.77969,0.01386
3345.71952,0.01404
3343.65935,0.01402
3341.59917,0.01384
3339.53900,0.01373
3337.47883,0.01371
3335.41866,0.01374
3333.35849,0.01378
3331.29831,0.01376
3329.23814,0.01383
3327.17797,0.01405
3325.11780,0.01420
3323.05762,0.01415
3320.99745,0.01408
3318.93728,0.01411
3316.87711,0.01414
3314.81694,0.01405
3312.75676,0.01389
3310.69659,0.01387
3308.63642,0.01404
3306.57625,0.01421
3304.51608,0.01430
3302.45590,0.01440
3300.39573,0.01439
3298.33556,0.01428
3296.27539,0.01431
3294.21521,0.01442
3292.15504,0.01453
3290.09487,0.01461
3288.03470,0.01461
3285.97453,0.01450
3283.91435,0.01435
3281.85418,0.01429
3279.79401,0.01440
3277.73384,0.01446
3275.67367,0.01450
3273.61349,0.01462
3271.55332,0.01464
3269.49315,0.01451
3267.43298,0.01439
3265.37281,0.01434
3263.31263,0.01435
3261.25246,0.01436
3259.19229,0.01433
3257.13212,0.01432
3255.07194,0.01442
3253.01177,0.01458
3250.95160,0.01467
3248.89143,0.01467
3246.83126,0.01470
3244.77108,0.01486
3242.71091,0.01500
3240.65074,0.01486
3238.59057,0.01454
3236.53040,0.01446
3234.47022,0.01467
3232.41005,0.01488
3230.34988,0.01485
3228.28971,0.01464
3226.22954,0.01452
3224.16936,0.01458
3222.10919,0.01464
3220.04902,0.01456
3217.98885,0.01441
3215.92867,0.01436
3213.86850,0.01439
3211.80833,0.01443
3209.74816,0.01455
3207.68799,0.01464
3205.62781,0.01464
3203.56764,0.01462
3201.50747,0.01445
3199.44730,0.01419
3197.38713,0.01420
3195.32695,0.01449
3193.26678,0.01473
3191.20661,0.01476
3189.14644,0.01471
3187.08626,0.01473
3185.02609,0.01479
3182.96592,0.01476
3180.90575,0.01463
3178.84558,0.01446
3176.78540,0.01439
3174.72523,0.01449
3172.66506,0.01462
3170.60489,0.01459
3168.54472,0.01451
3166.48454,0.01451
3164.42437,0.01446
3162.36420,0.01432
3160.30403,0.01411
3158.24386,0.01385
3156.18368,0.01378
3154.12351,0.01398
3152.06334,0.01412
3150.00317,0.01410
3147.94299,0.01405
3145.88282,0.01399
3143.82265,0.01399
3141.76248,0.01402
3139.70231,0.01406
3137.64213,0.01410
3135.58196,0.01409
3133.52179,0.01407
3131.46162,0.01405
3129.40145,0.01402
3127.34127,0.01394
3125.28110,0.01376
3123.22093,0.01353
3121.16076,0.01335
3119.10058,0.01335
3117.04041,0.01348
3114.98024,0.01353
3112.92007,0.01343
3110.85990,0.01328
3108.79972,0.01318
3106.73955,0.01319
3104.67938,0.01325
3102.61921,0.01325
3100.55904,0.01320
3098.49886,0.01323
3096.43869,0.01333
3094.37852,0.01334
3092.31835,0.01323
3090.25818,0.01307
3088.19800,0.01280
3086.13783,0.01254
3084.07766,0.01255
3082.01749,0.01276
3079.95731,0.01285
3077.89714,0.01276
3075.83697,0.01270
3073.77680,0.01276
3071.71663,0.01283
3069.65645,0.01277
3067.59628,0.01264
3065.53611,0.01257
3063.47594,0.01254
3061.41577,0.01253
3059.35559,0.01254
3057.29542,0.01247
3055.23525,0.01235
3053.17508,0.01231
3051.11491,0.01236
3049.05473,0.01242
3046.99456,0.01242
3044.93439,0.01233
3042.87422,0.01221
3040.81404,0.01216
3038.75387,0.01207
3036.69370,0.01190
3034.63353,0.01177
3032.57336,0.01176
3030.51318,0.01182
3028.45301,0.01189
3026.39284,0.01186
3024.33267,0.01163
3022.27250,0.01144
3020.21232,0.01140
3018.15215,0.01136
3016.09198,0.01120
3014.03181,0.01108
3011.97163,0.01116
3009.91146,0.01131
3007.85129,0.01125
3005.79112,0.01111
3003.73095,0.01111
3001.67077,0.01110
2999.61060,0.01097
2997.55043,0.01080
2995.49026,0.01066
2993.43009,0.01056
2991.36991,0.01052
2989.30974,0.01057
2987.24957,0.01064
2985.18940,0.01070
2983.12923,0.01081
2981.06905,0.01096
2979.00888,0.01101
2976.94871,0.01091
2974.88854,0.01077
2972.82836,0.01066
2970.76819,0.01060
2968.70802,0.01065
2966.64785,0.01083
2964.58768,0.01101
2962.52750,0.01091
2960.46733,0.01065
2958.40716,0.01055
2956.34699,0.01059
2954.28682,0.01074
2952.22664,0.01085
2950.16647,0.01075
2948.10630,0.01064
2946.04613,0.01062
2943.98596,0.01063
2941.92578,0.01067
2939.86561,0.01068
2937.80544,0.01057
2935.74527,0.01043
2933.68509,0.01039
2931.62492,0.01045
2929.56475,0.01042
2927.50458,0.01028
2925.44441,0.01009
2923.38423,0.01001
2921.32406,0.01007
2919.26389,0.01012
2917.20372,0.01016
2915.14355,0.01014
2913.08337,0.00995
2911.02320,0.00978
2908.96303,0.00979
2906.90286,0.00987
2904.84268,0.00987
2902.78251,0.00981
2900.72234,0.00979
2898.66217,0.00981
2896.60200,0.00979
2894.54182,0.00964
2892.48165,0.00939
2890.42148,0.00929
2888.36131,0.00939
2886.30114,0.00953
2884.24096,0.00964
2882.18079,0.00965
2880.12062,0.00948
2878.06045,0.00923
2876.00028,0.00915
2873.94010,0.00924
2871.87993,0.00925
2869.81976,0.00909
2867.75959,0.00892
2865.69941,0.00882
2863.63924,0.00885
2861.57907,0.00898
2859.51890,0.00899
2857.45873,0.00881
2855.39855,0.00865
2853.33838,0.00852
2851.27821,0.00833
2849.21804,0.00822
2847.15787,0.00841
2845.09769,0.00862
2843.03752,0.00861
2840.97735,0.00845
2838.91718,0.00832
2836.85700,0.00830
2834.79683,0.00827
2832.73666,0.00808
2830.67649,0.00788
2828.61632,0.00786
2826.55614,0.00797
2824.49597,0.00802
2822.43580,0.00794
2820.37563,0.00788
2818.31546,0.00788
2816.25528,0.00772
2814.19511,0.00756
2812.13494,0.00757
2810.07477,0.00759
2808.01460,0.00757
2805.95442,0.00757
2803.89425,0.00758
2801.83408,0.00751
2799.77391,0.00731
2797.71373,0.00718
2795.65356,0.00728
2793.59339,0.00740
2791.53322,0.00738
2789.47305,0.00727
2787.41287,0.00716
2785.35270,0.00708
2783.29253,0.00705
2781.23236,0.00699
2779.17219,0.00694
2777.11201,0.00688
2775.05184,0.00679
2772.99167,0.00671
2770.93150,0.00677
2768.87133,0.00689
2766.81115,0.00694
2764.75098,0.00688
2762.69081,0.00676
2760.63064,0.00671
2758.57046,0.00674
2756.51029,0.00675
2754.45012,0.00677
2752.38995,0.00675
2750.32978,0.00672
2748.26960,0.00674
2746.20943,0.00675
2744.14926,0.00668
2742.08909,0.00661
2740.02892,0.00654
2737.96874,0.00644
2735.90857,0.00635
2733.84840,0.00631
2731.78823,0.00633
2729.72805,0.00636
2727.66788,0.00641
2725.60771,0.00643
2723.54754,0.00636
2721.48737,0.00620
2719.42719,0.00612
2717.36702,0.00613
2715.30685,0.00609
2713.24668,0.00604
2711.18651,0.00603
2709.12633,0.00605
2707.06616,0.00608
2705.00599,0.00609
2702.94582,0.00598
2700.88565,0.00583
2698.82547,0.00566
2696.76530,0.00551
2694.70513,0.00557
2692.64496,0.00575
2690.58478,0.00581
2688.52461,0.00584
2686.46444,0.00584
2684.40427,0.00572
2682.34410,0.00566
2680.28392,0.00576
2678.22375,0.00580
2676.16358,0.00583
2674.10341,0.00584
2672.04324,0.00569
2669.98306,0.00544
2667.92289,0.00541
2665.86272,0.00558
2663.80255,0.00564
2661.74238,0.00557
2659.68220,0.00552
2657.62203,0.00563
2655.56186,0.00586
2653.50169,0.00591
2651.44151,0.00570
2649.38134,0.00552
2647.32117,0.00547
2645.26100,0.00547
2643.20083,0.00547
2641.14065,0.00545
2639.08048,0.00542
2637.02031,0.00546
2634.96014,0.00547
2632.89997,0.00536
2630.83979,0.00515
2628.77962,0.00497
2626.71945,0.00498
2624.65928,0.00510
2622.59910,0.00506
2620.53893,0.00484
2618.47876,0.00466
2616.41859,0.00476
2614.35842,0.00496
2612.29824,0.00499
2610.23807,0.00495
2608.17790,0.00494
2606.11773,0.00492
2604.05756,0.00483
2601.99738,0.00471
2599.93721,0.00468
2597.87704,0.00472
2595.81687,0.00476
2593.75670,0.00486
2591.69652,0.00488
2589.63635,0.00474
2587.57618,0.00457
2585.51601,0.00443
2583.45583,0.00439
2581.39566,0.00462
2579.33549,0.00495
2577.27532,0.00499
2575.21515,0.00475
2573.15497,0.00441
2571.09480,0.00420
2569.03463,0.00426
2566.97446,0.00440
2564.91429,0.00453
2562.85411,0.00475
2560.79394,0.00489
2558.73377,0.00482
2556.67360,0.00470
2554.61342,0.00468
2552.55325,0.00469
2550.49308,0.00467
2548.43291,0.00462
2546.37274,0.00453
2544.31256,0.00438
2542.25239,0.00426
2540.19222,0.00433
2538.13205,0.00444
2536.07188,0.00455
2534.01170,0.00476
2531.95153,0.00484
2529.89136,0.00460
2527.83119,0.00426
2525.77102,0.00424
2523.71084,0.00442
2521.65067,0.00452
2519.59050,0.00458
2517.53033,0.00455
2515.47015,0.00454
2513.40998,0.00470
2511.34981,0.00470
2509.28964,0.00455
2507.22947,0.00457
2505.16929,0.00454
2503.10912,0.00429
2501.04895,0.00419
2498.98878,0.00437
2496.92861,0.00457
2494.86843,0.00461
2492.80826,0.00447
2490.74809,0.00436
2488.68792,0.00437
2486.62775,0.00455
2484.56757,0.00484
2482.50740,0.00489
2480.44723,0.00476
2478.38706,0.00463
2476.32688,0.00453
2474.26671,0.00444
2472.20654,0.00433
2470.14637,0.00436
2468.08620,0.00461
2466.02602,0.00493
2463.96585,0.00515
2461.90568,0.00517
2459.84551,0.00515
2457.78534,0.00525
2455.72516,0.00531
2453.66499,0.00519
2451.60482,0.00493
2449.54465,0.00453
2447.48447,0.00416
2445.42430,0.00409
2443.36413,0.00427
2441.30396,0.00457
2439.24379,0.00476
2437.18361,0.00467
2435.12344,0.00458
2433.06327,0.00466
2431.00310,0.00467
2428.94293,0.00453
2426.88275,0.00448
2424.82258,0.00453
2422.76241,0.00452
2420.70224,0.00449
2418.64207,0.00456
2416.58189,0.00472
2414.52172,0.00482
2412.46155,0.00475
2410.40138,0.00463
2408.34120,0.00463
2406.28103,0.00469
2404.22086,0.00479
2402.16069,0.00486
2400.10052,0.00490
2398.04034,0.00481
2395.98017,0.00477
2393.92000,0.00476
2391.85983,0.00481
2389.79966,0.00484
2387.73948,0.00480
2385.67931,0.00482
2383.61914,0.00498
2381.55897,0.00511
2379.49880,0.00500
2377.43862,0.00480
2375.37845,0.00474
2373.31828,0.00494
2371.25811,0.00549
2369.19793,0.00645
2367.13776,0.00756
2365.07759,0.00848
2363.01742,0.00892
2360.95725,0.00856
2358.89707,0.00777
2356.83690,0.00743
2354.77673,0.00701
2352.71656,0.00597
2350.65639,0.00543
2348.59621,0.00568
2346.53604,0.00598
2344.47587,0.00614
2342.41570,0.00657
2340.35552,0.00715
2338.29535,0.00755
2336.23518,0.00766
2334.17501,0.00739
2332.11484,0.00676
2330.05466,0.00613
2327.99449,0.00597
2325.93432,0.00630
2323.87415,0.00648
2321.81398,0.00609
2319.75380,0.00559
2317.69363,0.00547
2315.63346,0.00560
2313.57329,0.00564
2311.51312,0.00555
2309.45294,0.00548
2307.39277,0.00536
2305.33260,0.00513
2303.27243,0.00490
2301.21225,0.00479
2299.15208,0.00480
2297.09191,0.00506
2295.03174,0.00549
2292.97157,0.00577
2290.91139,0.00599
2288.85122,0.00615
2286.79105,0.00590
2284.73088,0.00539
2282.67071,0.00503
2280.61053,0.00494
2278.55036,0.00514
2276.49019,0.00530
2274.43002,0.00506
2272.36984,0.00477
2270.30967,0.00482
2268.24950,0.00493
2266.18933,0.00489
2264.12916,0.00488
2262.06898,0.00486
2260.00881,0.00465
2257.94864,0.00452
2255.88847,0.00469
2253.82830,0.00487
2251.76812,0.00491
2249.70795,0.00496
2247.64778,0.00511
2245.58761,0.00499
2243.52744,0.00459
2241.46726,0.00432
2239.40709,0.00423
2237.34692,0.00430
2235.28675,0.00459
2233.22657,0.00441
2231.16640,0.00384
2229.10623,0.00377
2227.04606,0.00402
2224.98589,0.00425
2222.92571,0.00462
2220.86554,0.00478
2218.80537,0.00448
2216.74520,0.00438
2214.68503,0.00502
2212.62485,0.00551
2210.56468,0.00491
2208.50451,0.00411
2206.44434,0.00387
2204.38417,0.00381
2202.32399,0.00414
2200.26382,0.00480
2198.20365,0.00496
2196.14348,0.00434
2194.08330,0.00374
2192.02313,0.00350
2189.96296,0.00338
2187.90279,0.00351
2185.84262,0.00387
2183.78244,0.00387
2181.72227,0.00334
2179.66210,0.00289
2177.60193,0.00261
2175.54176,0.00295
2173.48158,0.00417
2171.42141,0.00513
2169.36124,0.00557
2167.30107,0.00569
2165.24089,0.00533
2163.18072,0.00456
2161.12055,0.00263
2159.06038,0.00021
2157.00021,0.00000
2154.94003,0.00139
2152.87986,0.00233
2150.81969,0.00215
2148.75952,0.00166
2146.69935,0.00238
2144.63917,0.00370
2142.57900,0.00426
2140.51883,0.00396
2138.45866,0.00301
2136.39849,0.00233
2134.33831,0.00256
2132.27814,0.00309
2130.21797,0.00333
2128.15780,0.00318
2126.09762,0.00291
2124.03745,0.00279
2121.97728,0.00272
2119.91711,0.00281
2117.85694,0.00313
2115.79676,0.00335
2113.73659,0.00344
2111.67642,0.00372
2109.61625,0.00388
2107.55608,0.00352
2105.49590,0.00304
2103.43573,0.00301
2101.37556,0.00325
2099.31539,0.00355
2097.25521,0.00376
2095.19504,0.00377
2093.13487,0.00345
2091.07470,0.00309
2089.01453,0.00306
2086.95435,0.00328
2084.89418,0.00334
2082.83401,0.00321
2080.77384,0.00311
2078.71367,0.00296
2076.65349,0.00289
2074.59332,0.00302
2072.53315,0.00288
2070.47298,0.00260
2068.41281,0.00280
2066.35263,0.00332
2064.29246,0.00368
2062.23229,0.00375
2060.17212,0.00340
2058.11194,0.00311
2056.05177,0.00327
2053.99160,0.00351
2051.93143,0.00378
2049.87126,0.00383
2047.81108,0.00336
2045.75091,0.00291
2043.69074,0.00263
2041.63057,0.00218
2039.57040,0.00175
2037.51022,0.00193
2035.45005,0.00285
2033.38988,0.00353
2031.32971,0.00320
2029.26954,0.00249
2027.20936,0.00210
2025.14919,0.00180
2023.08902,0.00122
2021.02885,0.00089
2018.96867,0.00136
2016.90850,0.00187
2014.84833,0.00194
2012.78816,0.00207
2010.72799,0.00210
2008.66781,0.00186
2006.60764,0.00207
2004.54747,0.00264
2002.48730,0.00272
2000.42713,0.00214
1998.36695,0.00160
1996.30678,0.00183
1994.24661,0.00216
1992.18644,0.00178
1990.12626,0.00146
1988.06609,0.00170
1986.00592,0.00193
1983.94575,0.00177
1981.88558,0.00180
1979.82540,0.00256
1977.76523,0.00322
1975.70506,0.00333
1973.64489,0.00306
1971.58472,0.00170
1969.52454,0.00000
1967.46437,0.00014
1965.40420,0.00152
1963.34403,0.00190
1961.28386,0.00145
1959.22368,0.00137
1957.16351,0.00163
1955.10334,0.00164
1953.04317,0.00122
1950.98299,0.00077
1948.92282,0.00067
1946.86265,0.00065
1944.80248,0.00057
1942.74231,0.00079
1940.68213,0.00116
1938.62196,0.00128
1936.56179,0.00130
1934.50162,0.00149
1932.44145,0.00172
1930.38127,0.00161
1928.32110,0.00124
1926.26093,0.00117
1924.20076,0.00151
1922.14059,0.00172
1920.08041,0.00135
1918.02024,0.00069
1915.96007,0.00043
1913.89990,0.00059
1911.83972,0.00088
1909.77955,0.00110
1907.71938,0.00100
1905.65921,0.00070
1903.59904,0.00059
1901.53886,0.00071
1899.47869,0.00094
1897.41852,0.00125
1895.35835,0.00145
1893.29818,0.00145
1891.23800,0.00136
1889.17783,0.00128
1887.11766,0.00138
1885.05749,0.00155
1882.99731,0.00146
1880.93714,0.00123
1878.87697,0.00121
1876.81680,0.00143
1874.75663,0.00156
1872.69645,0.00135
1870.63628,0.00096
1868.57611,0.00072
1866.51594,0.00077
1864.45577,0.00091
1862.39559,0.00103
1860.33542,0.00106
1858.27525,0.00099
1856.21508,0.00100
1854.15491,0.00119
1852.09473,0.00128
1850.03456,0.00119
1847.97439,0.00116
1845.91422,0.00119
1843.85404,0.00115
1841.79387,0.00104
1839.73370,0.00091
1837.67353,0.00090
1835.61336,0.00109
1833.55318,0.00139
1831.49301,0.00161
1829.43284,0.00156
1827.37267,0.00133
1825.31250,0.00125
1823.25232,0.00143
1821.19215,0.00152
1819.13198,0.00139
1817.07181,0.00132
1815.01163,0.00136
1812.95146,0.00128
1810.89129,0.00109
1808.83112,0.00099
1806.77095,0.00097
1804.71077,0.00095
1802.65060,0.00093
1800.59043,0.00097
1798.53026,0.00110
1796.47009,0.00114
1794.40991,0.00097
1792.34974,0.00074
1790.28957,0.00074
1788.22940,0.00092
1786.16923,0.00105
1784.10905,0.00114
1782.04888,0.00129
1779.98871,0.00139
1777.92854,0.00144
1775.86836,0.00154
1773.80819,0.00161
1771.74802,0.00143
1769.68785,0.00107
1767.62768,0.00090
1765.56750,0.00096
1763.50733,0.00113
1761.44716,0.00138
1759.38699,0.00164
1757.32682,0.00181
1755.26664,0.00195
1753.20647,0.00210
1751.14630,0.00211
1749.08613,0.00192
1747.02596,0.00183
1744.96578,0.00197
1742.90561,0.00212
1740.84544,0.00215
1738.78527,0.00215
1736.72509,0.00220
1734.66492,0.00228
1732.60475,0.00225
1730.54458,0.00213
1728.48441,0.00205
1726.42423,0.00208
1724.36406,0.00215
1722.30389,0.00209
1720.24372,0.00203
1718.18355,0.00215
1716.12337,0.00234
1714.06320,0.00241
1712.00303,0.00236
1709.94286,0.00236
1707.88268,0.00247
1705.82251,0.00255
1703.76234,0.00260
1701.70217,0.00273
1699.64200,0.00280
1697.58182,0.00272
1695.52165,0.00276
1693.46148,0.00301
1691.40131,0.00337
1689.34114,0.00374
1687.28096,0.00409
1685.22079,0.00436
1683.16062,0.00451
1681.10045,0.00469
1679.04028,0.00498
1676.98010,0.00535
1674.91993,0.00577
1672.85976,0.00619
1670.79959,0.00655
1668.73941,0.00678
1666.67924,0.00690
1664.61907,0.00699
1662.55890,0.00699
1660.49873,0.00693
1658.43855,0.00706
1656.37838,0.00734
1654.31821,0.00747
1652.25804,0.00731
1650.19787,0.00729
1648.13769,0.00727
1646.07752,0.00710
1644.01735,0.00700
1641.95718,0.00706
1639.89701,0.00711
1637.83683,0.00707
1635.77666,0.00692
1633.71649,0.00672
1631.65632,0.00659
1629.59614,0.00654
1627.53597,0.00653
1625.47580,0.00649
1623.41563,0.00633
1621.35546,0.00612
1619.29528,0.00607
1617.23511,0.00605
1615.17494,0.00577
1613.11477,0.00548
1611.05460,0.00545
1608.99442,0.00555
1606.93425,0.00560
1604.87408,0.00558
1602.81391,0.00548
1600.75373,0.00532
1598.69356,0.00519
1596.63339,0.00512
1594.57322,0.00508
1592.51305,0.00498
1590.45287,0.00477
1588.39270,0.00462
1586.33253,0.00454
1584.27236,0.00441
1582.21219,0.00427
1580.15201,0.00421
1578.09184,0.00417
1576.03167,0.00400
1573.97150,0.00376
1571.91133,0.00364
1569.85115,0.00364
1567.79098,0.00364
1565.73081,0.00362
1563.67064,0.00369
1561.61046,0.00395
1559.55029,0.00406
1557.49012,0.00348
1555.42995,0.00291
1553.36978,0.00283
1551.30960,0.00304
1549.24943,0.00317
1547.18926,0.00317
1545.12909,0.00313
1543.06892,0.00305
1541.00874,0.00287
1538.94857,0.00262
1536.88840,0.00251
1534.82823,0.00251
1532.76805,0.00246
1530.70788,0.00235
1528.64771,0.00229
1526.58754,0.00225
1524.52737,0.00220
1522.46719,0.00211
1520.40702,0.00195
1518.34685,0.00186
1516.28668,0.00182
1514.22651,0.00172
1512.16633,0.00164
1510.10616,0.00165
1508.04599,0.00162
1505.98582,0.00139
1503.92565,0.00122
1501.86547,0.00129
1499.80530,0.00150
1497.74513,0.00164
1495.68496,0.00157
1493.62478,0.00145
1491.56461,0.00136
1489.50444,0.00130
1487.44427,0.00131
1485.38410,0.00129
1483.32392,0.00125
1481.26375,0.00129
1479.20358,0.00140
1477.14341,0.00150
1475.08324,0.00162
1473.02306,0.00169
1470.96289,0.00164
1468.90272,0.00159
1466.84255,0.00164
1464.78238,0.00175
1462.72220,0.00186
1460.66203,0.00205
1458.60186,0.00218
1456.54169,0.00197
1454.48151,0.00166
1452.42134,0.00163
1450.36117,0.00187
1448.30100,0.00209
1446.24083,0.00206
1444.18065,0.00192
1442.12048,0.00187
1440.06031,0.00196
1438.00014,0.00205
1435.93997,0.00197
1433.87979,0.00180
1431.81962,0.00174
1429.75945,0.00183
1427.69928,0.00195
1425.63910,0.00206
1423.57893,0.00214
1421.51876,0.00215
1419.45859,0.00211
1417.39842,0.00209
1415.33824,0.00211
1413.27807,0.00208
1411.21790,0.00201
1409.15773,0.00207
1407.09756,0.00220
1405.03738,0.00216
1402.97721,0.00204
1400.91704,0.00200
1398.85687,0.00198
1396.79670,0.00196
1394.73652,0.00199
1392.67635,0.00197
1390.61618,0.00187
1388.55601,0.00176
1386.49583,0.00171
1384.43566,0.00174
1382.37549,0.00181
1380.31532,0.00191
1378.25515,0.00198
1376.19497,0.00200
1374.13480,0.00198
1372.07463,0.00193
1370.01446,0.00185
1367.95429,0.00174
1365.89411,0.00163
1363.83394,0.00154
1361.77377,0.00149
1359.71360,0.00153
1357.65343,0.00159
1355.59325,0.00162
1353.53308,0.00165
1351.47291,0.00169
1349.41274,0.00171
1347.35256,0.00168
1345.29239,0.00159
1343.23222,0.00144
1341.17205,0.00132
1339.11188,0.00127
1337.05170,0.00131
1334.99153,0.00138
1332.93136,0.00147
1330.87119,0.00156
1328.81102,0.00161
1326.75084,0.00158
1324.69067,0.00150
1322.63050,0.00144
1320.57033,0.00144
1318.51015,0.00144
1316.44998,0.00140
1314.38981,0.00134
1312.32964,0.00130
1310.26947,0.00139
1308.20929,0.00153
1306.14912,0.00162
1304.08895,0.00163
1302.02878,0.00158
1299.96861,0.00157
1297.90843,0.00167
1295.84826,0.00188
1293.78809,0.00201
1291.72792,0.00195
1289.66775,0.00185
1287.60757,0.00178
1285.54740,0.00171
1283.48723,0.00168
1281.42706,0.00171
1279.36688,0.00174
1277.30671,0.00179
1275.24654,0.00184
1273.18637,0.00186
1271.12620,0.00182
1269.06602,0.00175
1267.00585,0.00167
1264.94568,0.00164
1262.88551,0.00173
1260.82534,0.00184
1258.76516,0.00191
1256.70499,0.00194
1254.64482,0.00194
1252.58465,0.00193
1250.52447,0.00189
1248.46430,0.00178
1246.40413,0.00164
1244.34396,0.00156
1242.28379,0.00155
1240.22361,0.00160
1238.16344,0.00165
1236.10327,0.00160
1234.04310,0.00147
1231.98293,0.00136
1229.92275,0.00129
1227.86258,0.00120
1225.80241,0.00106
1223.74224,0.00095
1221.68207,0.00092
1219.62189,0.00088
1217.56172,0.00073
1215.50155,0.00062
1213.44138,0.00063
1211.38120,0.00058
1209.32103,0.00043
1207.26086,0.00026
1205.20069,0.00009
1203.14052,0.00000
1201.08034,0.00004
1199.02017,0.00006
1196.96000,0.00006
1194.89983,0.00014
1192.83966,0.00017
1190.77948,0.00008
1188.71931,0.00003
1186.65914,0.00005
1184.59897,0.00010
1182.53880,0.00013
1180.47862,0.00013
1178.41845,0.00019
1176.35828,0.00034
1174.29811,0.00057
1172.23793,0.00079
1170.17776,0.00092
1168.11759,0.00103
1166.05742,0.00116
1163.99725,0.00134
1161.93707,0.00161
1159.87690,0.00187
1157.81673,0.00207
1155.75656,0.00232
1153.69639,0.00267
1151.63621,0.00295
1149.57604,0.00305
1147.51587,0.00317
1145.45570,0.00345
1143.39552,0.00383
1141.33535,0.00425
1139.27518,0.00464
1137.21501,0.00495
1135.15484,0.00523
1133.09466,0.00561
1131.03449,0.00613
1128.97432,0.00662
1126.91415,0.00697
1124.85398,0.00742
1122.79380,0.00812
1120.73363,0.00889
1118.67346,0.00956
1116.61329,0.01001
1114.55312,0.01040
1112.49294,0.01094
1110.43277,0.01153
1108.37260,0.01200
1106.31243,0.01241
1104.25225,0.01285
1102.19208,0.01333
1100.13191,0.01387
1098.07174,0.01431
1096.01157,0.01456
1093.95139,0.01477
1091.89122,0.01512
1089.83105,0.01553
1087.77088,0.01581
1085.71071,0.01599
1083.65053,0.01625
1081.59036,0.01664
1079.53019,0.01705
1077.47002,0.01732
1075.40985,0.01747
1073.34967,0.01757
1071.28950,0.01773
1069.22933,0.01798
1067.16916,0.01816
1065.10898,0.01816
1063.04881,0.01803
1060.98864,0.01791
1058.92847,0.01778
1056.86830,0.01754
1054.80812,0.01727
1052.74795,0.01689
1050.68778,0.01642
1048.62761,0.01595
1046.56744,0.01539
1044.50726,0.01474
1042.44709,0.01412
1040.38692,0.01343
1038.32675,0.01269
1036.26657,0.01206
1034.20640,0.01147
1032.14623,0.01073
1030.08606,0.00994
1028.02589,0.00926
1025.96571,0.00873
1023.90554,0.00831
1021.84537,0.00789
1019.78520,0.00753
1017.72503,0.00727
1015.66485,0.00698
1013.60468,0.00673
1011.54451,0.00667
1009.48434,0.00667
1007.42417,0.00682
1005.36399,0.00726
1003.30382,0.00775
1001.24365,0.00817
999.18348,0.00859
997.12330,0.00891
995.06313,0.00907
993.00296,0.00936
990.94279,0.00984
988.88262,0.01020
986.82244,0.01036
984.76227,0.01051
982.70210,0.01078
980.64193,0.01099
978.58176,0.01111
976.52158,0.01125
974.46141,0.01123
972.40124,0.01085
970.34107,0.01037
968.28089,0.01004
966.22072,0.00964
964.16055,0.00907
962.10038,0.00858
960.04021,0.00814
957.98003,0.00769
955.91986,0.00732
953.85969,0.00694
951.79952,0.00642
949.73935,0.00585
947.67917,0.00536
945.61900,0.00500
943.55883,0.00473
941.49866,0.00448
939.43849,0.00417
937.37831,0.00374
935.31814,0.00336
933.25797,0.00298
931.19780,0.00267
929.13762,0.00273
927.07745,0.00286
925.01728,0.00257
922.95711,0.00209
920.89694,0.00190
918.83676,0.00200
916.77659,0.00193
914.71642,0.00161
912.65625,0.00133
910.59608,0.00119
908.53590,0.00109
906.47573,0.00111
904.41556,0.00122
902.35539,0.00138
900.29522,0.00148
898.23504,0.00137
896.17487,0.00125
894.11470,0.00145
892.05453,0.00181
889.99435,0.00200
887.93418,0.00205
885.87401,0.00231
883.81384,0.00273
881.75367,0.00298
879.69349,0.00301
877.63332,0.00296
875.57315,0.00315
873.51298,0.00368
871.45281,0.00423
869.39263,0.00456
867.33246,0.00476
865.27229,0.00495
863.21212,0.00503
861.15194,0.00497
859.09177,0.00498
857.03160,0.00497
854.97143,0.00498
852.91126,0.00520
850.85108,0.00524
848.79091,0.00489
846.73074,0.00454
844.67057,0.00427
842.61040,0.00402
840.55022,0.00395
838.49005,0.00402
836.42988,0.00379
834.36971,0.00327
832.30954,0.00303
830.24936,0.00294
828.18919,0.00259
826.12902,0.00231
824.06885,0.00229
822.00867,0.00229
819.94850,0.00226
817.88833,0.00217
815.82816,0.00189
813.76799,0.00175
811.70781,0.00173
809.64764,0.00155
807.58747,0.00145
805.52730,0.00137
803.46713,0.00119
801.40695,0.00107
799.34678,0.00094
797.28661,0.00087
795.22644,0.00093
793.16627,0.00097
791.10609,0.00090
789.04592,0.00074
786.98575,0.00072
784.92558,0.00093
782.86540,0.00091
780.80523,0.00068
778.74506,0.00069
776.68489,0.00073
774.62472,0.00056
772.56454,0.00060
770.50437,0.00089
768.44420,0.00097
766.38403,0.00079
764.32386,0.00048
762.26368,0.00048
760.20351,0.00097
758.14334,0.00127
756.08317,0.00105
754.02299,0.00059
751.96282,0.00024
749.90265,0.00013
747.84248,0.00006
745.78231,0.00000
743.72213,0.00011
741.66196,0.00019
739.60179,0.00035
737.54162,0.00085
735.48145,0.00123
733.42127,0.00119
731.36110,0.00104
729.30093,0.00103
727.24076,0.00102
725.18059,0.00090
723.12041,0.00096
721.06024,0.00082
719.00007,0.00038
716.93990,0.00013
714.87972,0.00037
712.81955,0.00073
710.75938,0.00074
708.69921,0.00039
706.63904,0.00029
704.57886,0.00062
702.51869,0.00097
700.45852,0.00118
698.39835,0.00136
696.33818,0.00147
694.27800,0.00152
692.21783,0.00148
690.15766,0.00121
688.09749,0.00095
686.03731,0.00111
683.97714,0.00158
681.91697,0.00199
679.85680,0.00218
677.79663,0.00217
675.73645,0.00200
673.67628,0.00167
671.61611,0.00102
669.55594,0.00024
667.49577,0.00031
665.43559,0.00113
663.37542,0.00160
661.31525,0.00133
659.25508,0.00119
657.19491,0.00157
655.13473,0.00183
653.07456,0.00178
651.01439,0.00197
648.95422,0.00238
646.89404,0.00266
644.83387,0.00246
642.77370,0.00172
640.71353,0.00125
638.65336,0.00146
636.59318,0.00152
634.53301,0.00114
632.47284,0.00095
630.41267,0.00087
628.35250,0.00041
626.29232,0.00000
624.23215,0.00038
622.17198,0.00091
620.11181,0.00111
618.05164,0.00096
615.99146,0.00104
613.93129,0.00197
611.87112,0.00271
609.81095,0.00223
607.75077,0.00141
605.69060,0.00126
603.63043,0.00108
601.57026,0.00040
599.51009,0.00000
