3996.73391,0.00045
3994.67373,0.00059
3992.61356,0.00073
3990.55339,0.00086
3988.49322,0.00091
3986.43305,0.00082
3984.37287,0.00059
3982.31270,0.00036
3980.25253,0.00022
3978.19236,0.00017
3976.13219,0.00040
3974.07201,0.00085
3972.01184,0.00098
3969.95167,0.00068
3967.89150,0.00041
3965.83133,0.00039
3963.77115,0.00041
3961.71098,0.00027
3959.65081,0.00005
3957.59064,0.00000
3955.53046,0.00016
3953.47029,0.00037
3951.41012,0.00049
3949.34995,0.00055
3947.28978,0.00064
3945.22960,0.00077
3943.16943,0.00084
3941.10926,0.00074
3939.04909,0.00055
3936.98892,0.00039
3934.92874,0.00028
3932.86857,0.00026
3930.80840,0.00033
3928.74823,0.00048
3926.68805,0.00060
3924.62788,0.00064
3922.56771,0.00069
3920.50754,0.00071
3918.44737,0.00060
3916.38719,0.00057
3914.32702,0.00076
3912.26685,0.00100
3910.20668,0.00100
3908.14651,0.00075
3906.08633,0.00046
3904.02616,0.00030
3901.96599,0.00031
3899.90582,0.00041
3897.84565,0.00047
3895.78547,0.00061
3893.72530,0.00100
3891.66513,0.00136
3889.60496,0.00120
3887.54478,0.00075
3885.48461,0.00049
3883.42444,0.00049
3881.36427,0.00056
3879.30410,0.00061
3877.24392,0.00069
3875.18375,0.00079
3873.12358,0.00086
3871.06341,0.00093
3869.00324,0.00100
3866.94306,0.00108
3864.88289,0.00114
3862.82272,0.00098
3860.76255,0.00061
3858.70237,0.00037
3856.64220,0.00041
3854.58203,0.00055
3852.52186,0.00048
3850.46169,0.00040
3848.40151,0.00062
3846.34134,0.00101
3844.28117,0.00114
3842.22100,0.00082
3840.16083,0.00041
3838.10065,0.00013
3836.04048,0.00000
3833.98031,0.00014
3831.92014,0.00039
3829.85997,0.00045
3827.79979,0.00035
3825.73962,0.00042
3823.67945,0.00066
3821.61928,0.00088
3819.55910,0.00088
3817.49893,0.00070
3815.43876,0.00055
3813.37859,0.00050
3811.31842,0.00065
3809.25824,0.00102
3807.19807,0.00130
3805.13790,0.00127
3803.07773,0.00115
3801.01756,0.00099
3798.95738,0.00073
3796.89721,0.00055
3794.83704,0.00057
3792.77687,0.00058
3790.71670,0.00047
3788.65652,0.00046
3786.59635,0.00074
3784.53618,0.00119
3782.47601,0.00146
3780.41583,0.00143
3778.35566,0.00115
3776.29549,0.00080
3774.23532,0.00068
3772.17515,0.00080
3770.11497,0.00087
3768.05480,0.00070
3765.99463,0.00047
3763.93446,0.00038
3761.87429,0.00058
3759.81411,0.00096
3757.75394,0.00113
3755.69377,0.00101
3753.63360,0.00105
3751.57342,0.00127
3749.51325,0.00114
3747.45308,0.00080
3745.39291,0.00080
3743.33274,0.00091
3741.27256,0.00084
3739.21239,0.00085
3737.15222,0.00112
3735.09205,0.00148
3733.03188,0.00153
3730.97170,0.00150
3728.91153,0.00120
3726.85136,0.00072
3724.79119,0.00038
3722.73102,0.00008
3720.67084,0.00035
3718.61067,0.00077
3716.55050,0.00130
3714.49033,0.00149
3712.43015,0.00075
3710.36998,0.00040
3708.30981,0.00036
3706.24964,0.00044
3704.18947,0.00047
3702.12929,0.00053
3700.06912,0.00068
3698.00895,0.00062
3695.94878,0.00042
3693.88861,0.00017
3691.82843,0.00036
3689.76826,0.00058
3687.70809,0.00070
3685.64792,0.00063
3683.58775,0.00091
3681.52757,0.00127
3679.46740,0.00158
3677.40723,0.00180
3675.34706,0.00191
3673.28688,0.00172
3671.22671,0.00150
3669.16654,0.00155
3667.10637,0.00169
3665.04620,0.00177
3662.98602,0.00195
3660.92585,0.00215
3658.86568,0.00208
3656.80551,0.00188
3654.74534,0.00202
3652.68516,0.00260
3650.62499,0.00328
3648.56482,0.00351
3646.50465,0.00330
3644.44447,0.00303
3642.38430,0.00310
3640.32413,0.00329
3638.26396,0.00337
3636.20379,0.00359
3634.14361,0.00407
3632.08344,0.00473
3630.02327,0.00502
3627.96310,0.00482
3625.90293,0.00457
3623.84275,0.00494
3621.78258,0.00548
3619.72241,0.00564
3617.66224,0.00563
3615.60207,0.00559
3613.54189,0.00583
3611.48172,0.00593
3609.42155,0.00609
3607.36138,0.00650
3605.30120,0.00677
3603.24103,0.00707
3601.18086,0.00737
3599.12069,0.00787
3597.06052,0.00822
3595.00034,0.00864
3592.94017,0.00881
3590.88000,0.00901
3588.81983,0.00901
3586.75966,0.00896
3584.69948,0.00903
3582.63931,0.00927
3580.57914,0.00957
3578.51897,0.00980
3576.45879,0.01010
3574.39862,0.01039
3572.33845,0.01061
3570.27828,0.01094
3568.21811,0.01152
3566.15793,0.01195
3564.09776,0.01195
3562.03759,0.01184
3559.97742,0.01195
3557.91725,0.01226
3555.85707,0.01252
3553.79690,0.01268
3551.73673,0.01292
3549.67656,0.01320
3547.61639,0.01333
3545.55621,0.01344
3543.49604,0.01365
3541.43587,0.01392
3539.37570,0.01433
3537.31552,0.01469
3535.25535,0.01476
3533.19518,0.01478
3531.13501,0.01500
3529.07484,0.01528
3527.01466,0.01558
3524.95449,0.01588
3522.89432,0.01610
3520.83415,0.01629
3518.77398,0.01649
3516.71380,0.01669
3514.65363,0.01685
3512.59346,0.01707
3510.53329,0.01745
3508.47312,0.01788
3506.41294,0.01811
3504.35277,0.01807
3502.29260,0.01805
3500.23243,0.01836
3498.17225,0.01879
3496.11208,0.01901
3494.05191,0.01908
3491.99174,0.01922
3489.93157,0.01942
3487.87139,0.01961
3485.81122,0.01989
3483.75105,0.02030
3481.69088,0.02055
3479.63071,0.02047
3477.57053,0.02038
3475.51036,0.02060
3473.45019,0.02094
3471.39002,0.02125
3469.32984,0.02151
3467.26967,0.02166
3465.20950,0.02167
3463.14933,0.02177
3461.08916,0.02220
3459.02898,0.02257
3456.96881,0.02256
3454.90864,0.02252
3452.84847,0.02280
3450.78830,0.02315
3448.72812,0.02339
3446.66795,0.02357
3444.60778,0.02371
3442.54761,0.02384
3440.48744,0.02403
3438.42726,0.02433
3436.36709,0.02473
3434.30692,0.02499
3432.24675,0.02507
3430.18657,0.02520
3428.12640,0.02533
3426.06623,0.02540
3424.00606,0.02549
3421.94589,0.02562
3419.88571,0.02582
3417.82554,0.02606
3415.76537,0.02620
3413.70520,0.02618
3411.64503,0.02625
3409.58485,0.02648
3407.52468,0.02656
3405.46451,0.02661
3403.40434,0.02690
3401.34416,0.02728
3399.28399,0.02738
3397.22382,0.02730
3395.16365,0.02723
3393.10348,0.02741
3391.04330,0.02768
3388.98313,0.02784
3386.92296,0.02803
3384.86279,0.02832
3382.80262,0.02852
3380.74244,0.02862
3378.68227,0.02864
3376.62210,0.02851
3374.56193,0.02838
3372.50176,0.02855
3370.44158,0.02890
3368.38141,0.02910
3366.32124,0.02916
3364.26107,0.02925
3362.20089,0.02947
3360.14072,0.02976
3358.08055,0.02993
3356.02038,0.02997
3353.96021,0.03007
3351.90003,0.03011
3349.83986,0.03001
3347.77969,0.03006
3345.71952,0.03034
3343.65935,0.03050
3341.59917,0.03048
3339.53900,0.03055
3337.47883,0.03068
3335.41866,0.03070
3333.35849,0.03071
3331.29831,0.03076
3329.23814,0.03077
3327.17797,0.03071
3325.11780,0.03069
3323.05762,0.03078
3320.99745,0.03099
3318.93728,0.03112
3316.87711,0.03099
3314.81694,0.03079
3312.75676,0.03079
3310.69659,0.03099
3308.63642,0.03116
3306.57625,0.03126
3304.51608,0.03143
3302.45590,0.03162
3300.39573,0.03160
3298.33556,0.03160
3296.27539,0.03181
3294.21521,0.03197
3292.15504,0.03199
3290.09487,0.03207
3288.03470,0.03224
3285.97453,0.03230
3283.91435,0.03214
3281.85418,0.03209
3279.79401,0.03235
3277.73384,0.03259
3275.67367,0.03258
3273.61349,0.03240
3271.55332,0.03221
3269.49315,0.03211
3267.43298,0.03211
3265.37281,0.03219
3263.31263,0.03231
3261.25246,0.03234
3259.19229,0.03230
3257.13212,0.03239
3255.07194,0.03258
3253.01177,0.03267
3250.95160,0.03268
3248.89143,0.03268
3246.83126,0.03265
3244.77108,0.03274
3242.71091,0.03280
3240.65074,0.03251
3238.59057,0.03219
3236.53040,0.03223
3234.47022,0.03243
3232.41005,0.03250
3230.34988,0.03249
3228.28971,0.03251
3226.22954,0.03244
3224.16936,0.03232
3222.10919,0.03233
3220.04902,0.03243
3217.98885,0.03244
3215.92867,0.03238
3213.86850,0.03235
3211.80833,0.03235
3209.74816,0.03241
3207.68799,0.03246
3205.62781,0.03239
3203.56764,0.03233
3201.50747,0.03225
3199.44730,0.03215
3197.38713,0.03216
3195.32695,0.03232
3193.26678,0.03244
3191.20661,0.03236
3189.14644,0.03219
3187.08626,0.03210
3185.02609,0.03209
3182.96592,0.03211
3180.90575,0.03215
3178.84558,0.03216
3176.78540,0.03206
3174.72523,0.03187
3172.66506,0.03168
3170.60489,0.03149
3168.54472,0.03132
3166.48454,0.03127
3164.42437,0.03130
3162.36420,0.03131
3160.30403,0.03133
3158.24386,0.03123
3156.18368,0.03111
3154.12351,0.03113
3152.06334,0.03107
3150.00317,0.03082
3147.94299,0.03064
3145.88282,0.03068
3143.82265,0.03079
3141.76248,0.03079
3139.70231,0.03077
3137.64213,0.03080
3135.58196,0.03077
3133.52179,0.03054
3131.46162,0.03020
3129.40145,0.03004
3127.34127,0.03015
3125.28110,0.03031
3123.22093,0.03019
3121.16076,0.02987
3119.10058,0.02970
3117.04041,0.02970
3114.98024,0.02965
3112.92007,0.02952
3110.85990,0.02949
3108.79972,0.02956
3106.73955,0.02949
3104.67938,0.02935
3102.61921,0.02917
3100.55904,0.02889
3098.49886,0.02874
3096.43869,0.02884
3094.37852,0.02895
3092.31835,0.02882
3090.25818,0.02841
3088.19800,0.02803
3086.13783,0.02787
3084.07766,0.02789
3082.01749,0.02804
3079.95731,0.02811
3077.89714,0.02800
3075.83697,0.02782
3073.77680,0.02762
3071.71663,0.02738
3069.65645,0.02715
3067.59628,0.02706
3065.53611,0.02712
3063.47594,0.02719
3061.41577,0.02715
3059.35559,0.02712
3057.29542,0.02706
3055.23525,0.02684
3053.17508,0.02662
3051.11491,0.02652
3049.05473,0.02639
3046.99456,0.02623
3044.93439,0.02613
3042.87422,0.02606
3040.81404,0.02602
3038.75387,0.02589
3036.69370,0.02550
3034.63353,0.02511
3032.57336,0.02496
3030.51318,0.02493
3028.45301,0.02492
3026.39284,0.02487
3024.33267,0.02470
3022.27250,0.02451
3020.21232,0.02444
3018.15215,0.02434
3016.09198,0.02411
3014.03181,0.02399
3011.97163,0.02404
3009.91146,0.02405
3007.85129,0.02378
3005.79112,0.02346
3003.73095,0.02332
3001.67077,0.02322
2999.61060,0.02302
2997.55043,0.02282
2995.49026,0.02266
2993.43009,0.02260
2991.36991,0.02270
2989.30974,0.02277
2987.24957,0.02279
2985.18940,0.02280
2983.12923,0.02284
2981.06905,0.02298
2979.00888,0.02301
2976.94871,0.02281
2974.88854,0.02266
2972.82836,0.02261
2970.76819,0.02268
2968.70802,0.02290
2966.64785,0.02312
2964.58768,0.02312
2962.52750,0.02280
2960.46733,0.02250
2958.40716,0.02249
2956.34699,0.02260
2954.28682,0.02267
2952.22664,0.02273
2950.16647,0.02269
2948.10630,0.02254
2946.04613,0.02249
2943.98596,0.02257
2941.92578,0.02266
2939.86561,0.02264
2937.80544,0.02256
2935.74527,0.02244
2933.68509,0.02244
2931.62492,0.02249
2929.56475,0.02234
2927.50458,0.02215
2925.44441,0.02214
2923.38423,0.02217
2921.32406,0.02223
2919.26389,0.02232
2917.20372,0.02228
2915.14355,0.02206
2913.08337,0.02173
2911.02320,0.02146
2908.96303,0.02128
2906.90286,0.02115
2904.84268,0.02107
2902.78251,0.02094
2900.72234,0.02081
2898.66217,0.02075
2896.60200,0.02070
2894.54182,0.02057
2892.48165,0.02021
2890.42148,0.01988
2888.36131,0.01995
2886.30114,0.02018
2884.24096,0.02027
2882.18079,0.02022
2880.12062,0.02006
2878.06045,0.01992
2876.00028,0.01990
2873.94010,0.01989
2871.87993,0.01978
2869.81976,0.01958
2867.75959,0.01934
2865.69941,0.01902
2863.63924,0.01879
2861.57907,0.01883
2859.51890,0.01882
2857.45873,0.01859
2855.39855,0.01834
2853.33838,0.01817
2851.27821,0.01802
2849.21804,0.01789
2847.15787,0.01769
2845.09769,0.01733
2843.03752,0.01703
2840.97735,0.01688
2838.91718,0.01677
2836.85700,0.01669
2834.79683,0.01656
2832.73666,0.01635
2830.67649,0.01614
2828.61632,0.01605
2826.55614,0.01604
2824.49597,0.01599
2822.43580,0.01584
2820.37563,0.01573
2818.31546,0.01566
2816.25528,0.01552
2814.19511,0.01544
2812.13494,0.01544
2810.07477,0.01528
2808.01460,0.01505
2805.95442,0.01499
2803.89425,0.01501
2801.83408,0.01493
2799.77391,0.01470
2797.71373,0.01455
2795.65356,0.01456
2793.59339,0.01454
2791.53322,0.01441
2789.47305,0.01427
2787.41287,0.01411
2785.35270,0.01401
2783.29253,0.01398
2781.23236,0.01387
2779.17219,0.01370
2777.11201,0.01351
2775.05184,0.01333
2772.99167,0.01318
2770.93150,0.01309
2768.87133,0.01304
2766.81115,0.01302
2764.75098,0.01301
2762.69081,0.01297
2760.63064,0.01289
2758.57046,0.01288
2756.51029,0.01290
2754.45012,0.01289
2752.38995,0.01279
2750.32978,0.01271
2748.26960,0.01266
2746.20943,0.01250
2744.14926,0.01231
2742.08909,0.01221
2740.02892,0.01215
2737.96874,0.01206
2735.90857,0.01199
2733.84840,0.01193
2731.78823,0.01184
2729.72805,0.01177
2727.66788,0.01168
2725.60771,0.01147
2723.54754,0.01128
2721.48737,0.01123
2719.42719,0.01124
2717.36702,0.01129
2715.30685,0.01127
2713.24668,0.01106
2711.18651,0.01084
2709.12633,0.01082
2707.06616,0.01088
2705.00599,0.01088
2702.94582,0.01078
2700.88565,0.01066
2698.82547,0.01052
2696.76530,0.01038
2694.70513,0.01029
2692.64496,0.01024
2690.58478,0.01014
2688.52461,0.01009
2686.46444,0.01013
2684.40427,0.01008
2682.34410,0.00999
2680.28392,0.01000
2678.22375,0.00998
2676.16358,0.00989
2674.10341,0.00976
2672.04324,0.00953
2669.98306,0.00929
2667.92289,0.00929
2665.86272,0.00937
2663.80255,0.00923
2661.74238,0.00909
2659.68220,0.00914
2657.62203,0.00926
2655.56186,0.00939
2653.50169,0.00943
2651.44151,0.00918
2649.38134,0.00885
2647.32117,0.00870
2645.26100,0.00873
2643.20083,0.00882
2641.14065,0.00877
2639.08048,0.00857
2637.02031,0.00837
2634.96014,0.00817
2632.89997,0.00804
2630.83979,0.00801
2628.77962,0.00798
2626.71945,0.00794
2624.65928,0.00795
2622.59910,0.00786
2620.53893,0.00760
2618.47876,0.00736
2616.41859,0.00741
2614.35842,0.00762
2612.29824,0.00765
2610.23807,0.00753
2608.17790,0.00743
2606.11773,0.00736
2604.05756,0.00731
2601.99738,0.00717
2599.93721,0.00701
2597.87704,0.00700
2595.81687,0.00721
2593.75670,0.00739
2591.69652,0.00728
2589.63635,0.00705
2587.57618,0.00696
2585.51601,0.00692
2583.45583,0.00686
2581.39566,0.00695
2579.33549,0.00713
2577.27532,0.00721
2575.21515,0.00711
2573.15497,0.00669
2571.09480,0.00625
2569.03463,0.00614
2566.97446,0.00619
2564.91429,0.00627
2562.85411,0.00646
2560.79394,0.00667
2558.73377,0.00688
2556.67360,0.00701
2554.61342,0.00693
2552.55325,0.00677
2550.49308,0.00680
2548.43291,0.00688
2546.37274,0.00684
2544.31256,0.00667
2542.25239,0.00647
2540.19222,0.00646
2538.13205,0.00665
2536.07188,0.00682
2534.01170,0.00677
2531.95153,0.00664
2529.89136,0.00651
2527.83119,0.00622
2525.77102,0.00605
2523.71084,0.00629
2521.65067,0.00655
2519.59050,0.00660
2517.53033,0.00658
2515.47015,0.00660
2513.40998,0.00669
2511.34981,0.00680
2509.28964,0.00693
2507.22947,0.00703
2505.16929,0.00700
2503.10912,0.00682
2501.04895,0.00663
2498.98878,0.00659
2496.92861,0.00660
2494.86843,0.00662
2492.80826,0.00662
2490.74809,0.00666
2488.68792,0.00685
2486.62775,0.00717
2484.56757,0.00732
2482.50740,0.00717
2480.44723,0.00713
2478.38706,0.00723
2476.32688,0.00723
2474.26671,0.00716
2472.20654,0.00704
2470.14637,0.00710
2468.08620,0.00741
2466.02602,0.00756
2463.96585,0.00752
2461.90568,0.00759
2459.84551,0.00776
2457.78534,0.00788
2455.72516,0.00788
2453.66499,0.00775
2451.60482,0.00743
2449.54465,0.00683
2447.48447,0.00642
2445.42430,0.00676
2443.36413,0.00738
2441.30396,0.00761
2439.24379,0.00755
2437.18361,0.00750
2435.12344,0.00746
2433.06327,0.00744
2431.00310,0.00739
2428.94293,0.00724
2426.88275,0.00721
2424.82258,0.00729
2422.76241,0.00726
2420.70224,0.00722
2418.64207,0.00720
2416.58189,0.00712
2414.52172,0.00713
2412.46155,0.00726
2410.40138,0.00740
2408.34120,0.00741
2406.28103,0.00719
2404.22086,0.00700
2402.16069,0.00704
2400.10052,0.00724
2398.04034,0.00731
2395.98017,0.00724
2393.92000,0.00716
2391.85983,0.00722
2389.79966,0.00740
2387.73948,0.00771
2385.67931,0.00837
2383.61914,0.00882
2381.55897,0.00841
2379.49880,0.00788
2377.43862,0.00752
2375.37845,0.00579
2373.31828,0.00610
2371.25811,0.00659
2369.19793,0.00521
2367.13776,0.00491
2365.07759,0.00750
2363.01742,0.00663
2360.95725,0.01050
2358.89707,0.00901
2356.83690,0.00672
2354.77673,0.00358
2352.71656,0.00367
2350.65639,0.01267
2348.59621,0.01972
2346.53604,0.00392
2344.47587,0.00139
2342.41570,0.00516
2340.35552,0.00856
2338.29535,0.01002
2336.23518,0.01056
2334.17501,0.01052
2332.11484,0.00867
2330.05466,0.00815
2327.99449,0.00603
2325.93432,0.00926
2323.87415,0.00835
2321.81398,0.00867
2319.75380,0.00636
2317.69363,0.00817
2315.63346,0.00831
2313.57329,0.00656
2311.51312,0.00651
2309.45294,0.00689
2307.39277,0.00718
2305.33260,0.00732
2303.27243,0.00756
2301.21225,0.00708
2299.15208,0.00725
2297.09191,0.00756
2295.03174,0.00739
2292.97157,0.00752
2290.91139,0.00758
2288.85122,0.00725
2286.79105,0.00700
2284.73088,0.00704
2282.67071,0.00696
2280.61053,0.00664
2278.55036,0.00632
2276.49019,0.00617
2274.43002,0.00626
2272.36984,0.00621
2270.30967,0.00631
2268.24950,0.00631
2266.18933,0.00593
2264.12916,0.00551
2262.06898,0.00531
2260.00881,0.00515
2257.94864,0.00556
2255.88847,0.00580
2253.82830,0.00549
2251.76812,0.00521
2249.70795,0.00520
2247.64778,0.00550
2245.58761,0.00571
2243.52744,0.00547
2241.46726,0.00511
2239.40709,0.00488
2237.34692,0.00478
2235.28675,0.00488
2233.22657,0.00476
2231.16640,0.00441
2229.10623,0.00432
2227.04606,0.00431
2224.98589,0.00435
2222.92571,0.00479
2220.86554,0.00522
2218.80537,0.00501
2216.74520,0.00470
2214.68503,0.00486
2212.62485,0.00494
2210.56468,0.00455
2208.50451,0.00426
2206.44434,0.00426
2204.38417,0.00442
2202.32399,0.00459
2200.26382,0.00456
2198.20365,0.00454
2196.14348,0.00421
2194.08330,0.00375
2192.02313,0.00398
2189.96296,0.00438
2187.90279,0.00460
2185.84262,0.00480
2183.78244,0.00438
2181.72227,0.00335
2179.66210,0.00265
2177.60193,0.00223
2175.54176,0.00230
2173.48158,0.00331
2171.42141,0.00423
2169.36124,0.00435
2167.30107,0.00413
2165.24089,0.00403
2163.18072,0.00380
2161.12055,0.00232
2159.06038,0.00021
2157.00021,0.00004
2154.94003,0.00111
2152.87986,0.00109
2150.81969,0.00023
2148.75952,0.00023
2146.69935,0.00172
2144.63917,0.00332
2142.57900,0.00373
2140.51883,0.00352
2138.45866,0.00297
2136.39849,0.00228
2134.33831,0.00216
2132.27814,0.00250
2130.21797,0.00286
2128.15780,0.00306
2126.09762,0.00321
2124.03745,0.00348
2121.97728,0.00366
2119.91711,0.00366
2117.85694,0.00350
2115.79676,0.00325
2113.73659,0.00341
2111.67642,0.00377
2109.61625,0.00354
2107.55608,0.00301
2105.49590,0.00289
2103.43573,0.00306
2101.37556,0.00316
2099.31539,0.00322
2097.25521,0.00310
2095.19504,0.00296
2093.13487,0.00307
2091.07470,0.00330
2089.01453,0.00335
2086.95435,0.00319
2084.89418,0.00299
2082.83401,0.00287
2080.77384,0.00282
2078.71367,0.00296
2076.65349,0.00330
2074.59332,0.00344
2072.53315,0.00299
2070.47298,0.00228
2068.41281,0.00212
2066.35263,0.00251
2064.29246,0.00269
2062.23229,0.00258
2060.17212,0.00263
2058.11194,0.00268
2056.05177,0.00232
2053.99160,0.00222
2051.93143,0.00280
2049.87126,0.00302
2047.81108,0.00257
2045.75091,0.00254
2043.69074,0.00267
2041.63057,0.00212
2039.57040,0.00152
2037.51022,0.00170
2035.45005,0.00232
2033.38988,0.00263
2031.32971,0.00260
2029.26954,0.00223
2027.20936,0.00113
2025.14919,0.00008
2023.08902,0.00000
2021.02885,0.00058
2018.96867,0.00137
2016.90850,0.00166
2014.84833,0.00108
2012.78816,0.00073
2010.72799,0.00102
2008.66781,0.00144
2006.60764,0.00184
2004.54747,0.00202
2002.48730,0.00168
2000.42713,0.00102
1998.36695,0.00077
1996.30678,0.00138
1994.24661,0.00220
1992.18644,0.00243
1990.12626,0.00217
1988.06609,0.00183
1986.00592,0.00169
1983.94575,0.00205
1981.88558,0.00293
1979.82540,0.00340
1977.76523,0.00259
1975.70506,0.00199
1973.64489,0.00237
1971.58472,0.00194
1969.52454,0.00074
1967.46437,0.00066
1965.40420,0.00152
1963.34403,0.00193
1961.28386,0.00198
1959.22368,0.00200
1957.16351,0.00172
1955.10334,0.00130
1953.04317,0.00099
1950.98299,0.00059
1948.92282,0.00022
1946.86265,0.00024
1944.80248,0.00058
1942.74231,0.00117
1940.68213,0.00177
1938.62196,0.00201
1936.56179,0.00202
1934.50162,0.00199
1932.44145,0.00195
1930.38127,0.00178
1928.32110,0.00144
1926.26093,0.00120
1924.20076,0.00123
1922.14059,0.00136
1920.08041,0.00131
1918.02024,0.00129
1915.96007,0.00158
1913.89990,0.00192
1911.83972,0.00208
1909.77955,0.00204
1907.71938,0.00189
1905.65921,0.00174
1903.59904,0.00162
1901.53886,0.00164
1899.47869,0.00183
1897.41852,0.00201
1895.35835,0.00204
1893.29818,0.00199
1891.23800,0.00194
1889.17783,0.00192
1887.11766,0.00198
1885.05749,0.00207
1882.99731,0.00199
1880.93714,0.00182
1878.87697,0.00185
1876.81680,0.00209
1874.75663,0.00223
1872.69645,0.00207
1870.63628,0.00174
1868.57611,0.00152
1866.51594,0.00149
1864.45577,0.00156
1862.39559,0.00171
1860.33542,0.00191
1858.27525,0.00202
1856.21508,0.00206
1854.15491,0.00219
1852.09473,0.00234
1850.03456,0.00236
1847.97439,0.00231
1845.91422,0.00228
1843.85404,0.00223
1841.79387,0.00212
1839.73370,0.00192
1837.67353,0.00184
1835.61336,0.00202
1833.55318,0.00227
1831.49301,0.00239
1829.43284,0.00235
1827.37267,0.00232
1825.31250,0.00245
1823.25232,0.00268
1821.19215,0.00279
1819.13198,0.00264
1817.07181,0.00245
1815.01163,0.00241
1812.95146,0.00235
1810.89129,0.00222
1808.83112,0.00222
1806.77095,0.00231
1804.71077,0.00238
1802.65060,0.00250
1800.59043,0.00267
1798.53026,0.00276
1796.47009,0.00276
1794.40991,0.00268
1792.34974,0.00256
1790.28957,0.00262
1788.22940,0.00287
1786.16923,0.00306
1784.10905,0.00314
1782.04888,0.00323
1779.98871,0.00323
1777.92854,0.00308
1775.86836,0.00301
1773.80819,0.00320
1771.74802,0.00334
1769.68785,0.00317
1767.62768,0.00299
1765.56750,0.00299
1763.50733,0.00319
1761.44716,0.00357
1759.38699,0.00395
1757.32682,0.00420
1755.26664,0.00441
1753.20647,0.00473
1751.14630,0.00509
1749.08613,0.00522
1747.02596,0.00522
1744.96578,0.00536
1742.90561,0.00552
1740.84544,0.00566
1738.78527,0.00581
1736.72509,0.00597
1734.66492,0.00608
1732.60475,0.00603
1730.54458,0.00584
1728.48441,0.00564
1726.42423,0.00560
1724.36406,0.00567
1722.30389,0.00570
1720.24372,0.00576
1718.18355,0.00607
1716.12337,0.00653
1714.06320,0.00672
1712.00303,0.00675
1709.94286,0.00687
1707.88268,0.00708
1705.82251,0.00736
1703.76234,0.00775
1701.70217,0.00821
1699.64200,0.00857
1697.58182,0.00887
1695.52165,0.00930
1693.46148,0.00993
1691.40131,0.01069
1689.34114,0.01147
1687.28096,0.01216
1685.22079,0.01294
1683.16062,0.01387
1681.10045,0.01460
1679.04028,0.01522
1676.98010,0.01597
1674.91993,0.01683
1672.85976,0.01762
1670.79959,0.01843
1668.73941,0.01928
1666.67924,0.01992
1664.61907,0.02044
1662.55890,0.02095
1660.49873,0.02135
1658.43855,0.02168
1656.37838,0.02213
1654.31821,0.02266
1652.25804,0.02302
1650.19787,0.02305
1648.13769,0.02284
1646.07752,0.02251
1644.01735,0.02217
1641.95718,0.02186
1639.89701,0.02163
1637.83683,0.02147
1635.77666,0.02119
1633.71649,0.02066
1631.65632,0.02010
1629.59614,0.01965
1627.53597,0.01935
1625.47580,0.01908
1623.41563,0.01867
1621.35546,0.01816
1619.29528,0.01777
1617.23511,0.01752
1615.17494,0.01720
1613.11477,0.01687
1611.05460,0.01670
1608.99442,0.01660
1606.93425,0.01647
1604.87408,0.01629
1602.81391,0.01604
1600.75373,0.01578
1598.69356,0.01558
1596.63339,0.01537
1594.57322,0.01511
1592.51305,0.01478
1590.45287,0.01444
1588.39270,0.01413
1586.33253,0.01382
1584.27236,0.01354
1582.21219,0.01332
1580.15201,0.01316
1578.09184,0.01299
1576.03167,0.01280
1573.97150,0.01262
1571.91133,0.01246
1569.85115,0.01238
1567.79098,0.01228
1565.73081,0.01216
1563.67064,0.01214
1561.61046,0.01231
1559.55029,0.01246
1557.49012,0.01213
1555.42995,0.01167
1553.36978,0.01153
1551.30960,0.01154
1549.24943,0.01144
1547.18926,0.01127
1545.12909,0.01124
1543.06892,0.01141
1541.00874,0.01151
1538.94857,0.01115
1536.88840,0.01063
1534.82823,0.01034
1532.76805,0.01016
1530.70788,0.00986
1528.64771,0.00955
1526.58754,0.00939
1524.52737,0.00936
1522.46719,0.00924
1520.40702,0.00892
1518.34685,0.00870
1516.28668,0.00859
1514.22651,0.00837
1512.16633,0.00815
1510.10616,0.00805
1508.04599,0.00790
1505.98582,0.00753
1503.92565,0.00717
1501.86547,0.00706
1499.80530,0.00721
1497.74513,0.00733
1495.68496,0.00718
1493.62478,0.00692
1491.56461,0.00677
1489.50444,0.00675
1487.44427,0.00668
1485.38410,0.00647
1483.32392,0.00624
1481.26375,0.00616
1479.20358,0.00622
1477.14341,0.00642
1475.08324,0.00680
1473.02306,0.00719
1470.96289,0.00735
1468.90272,0.00741
1466.84255,0.00762
1464.78238,0.00793
1462.72220,0.00808
1460.66203,0.00821
1458.60186,0.00842
1456.54169,0.00839
1454.48151,0.00808
1452.42134,0.00792
1450.36117,0.00802
1448.30100,0.00818
1446.24083,0.00817
1444.18065,0.00806
1442.12048,0.00797
1440.06031,0.00794
1438.00014,0.00799
1435.93997,0.00802
1433.87979,0.00796
1431.81962,0.00791
1429.75945,0.00802
1427.69928,0.00823
1425.63910,0.00849
1423.57893,0.00874
1421.51876,0.00896
1419.45859,0.00913
1417.39842,0.00920
1415.33824,0.00918
1413.27807,0.00911
1411.21790,0.00905
1409.15773,0.00902
1407.09756,0.00901
1405.03738,0.00893
1402.97721,0.00881
1400.91704,0.00872
1398.85687,0.00865
1396.79670,0.00856
1394.73652,0.00849
1392.67635,0.00843
1390.61618,0.00835
1388.55601,0.00831
1386.49583,0.00831
1384.43566,0.00828
1382.37549,0.00820
1380.31532,0.00816
1378.25515,0.00817
1376.19497,0.00820
1374.13480,0.00822
1372.07463,0.00824
1370.01446,0.00818
1367.95429,0.00797
1365.89411,0.00775
1363.83394,0.00762
1361.77377,0.00761
1359.71360,0.00764
1357.65343,0.00766
1355.59325,0.00766
1353.53308,0.00772
1351.47291,0.00780
1349.41274,0.00779
1347.35256,0.00763
1345.29239,0.00737
1343.23222,0.00713
1341.17205,0.00696
1339.11188,0.00687
1337.05170,0.00683
1334.99153,0.00683
1332.93136,0.00685
1330.87119,0.00690
1328.81102,0.00699
1326.75084,0.00707
1324.69067,0.00707
1322.63050,0.00705
1320.57033,0.00705
1318.51015,0.00711
1316.44998,0.00722
1314.38981,0.00733
1312.32964,0.00737
1310.26947,0.00740
1308.20929,0.00750
1306.14912,0.00759
1304.08895,0.00766
1302.02878,0.00775
1299.96861,0.00794
1297.90843,0.00828
1295.84826,0.00871
1293.78809,0.00899
1291.72792,0.00902
1289.66775,0.00892
1287.60757,0.00877
1285.54740,0.00859
1283.48723,0.00845
1281.42706,0.00837
1279.36688,0.00839
1277.30671,0.00852
1275.24654,0.00868
1273.18637,0.00871
1271.12620,0.00855
1269.06602,0.00836
1267.00585,0.00827
1264.94568,0.00828
1262.88551,0.00839
1260.82534,0.00857
1258.76516,0.00871
1256.70499,0.00876
1254.64482,0.00883
1252.58465,0.00894
1250.52447,0.00896
1248.46430,0.00881
1246.40413,0.00859
1244.34396,0.00841
1242.28379,0.00828
1240.22361,0.00820
1238.16344,0.00814
1236.10327,0.00803
1234.04310,0.00786
1231.98293,0.00767
1229.92275,0.00751
1227.86258,0.00728
1225.80241,0.00696
1223.74224,0.00665
1221.68207,0.00645
1219.62189,0.00628
1217.56172,0.00604
1215.50155,0.00583
1213.44138,0.00565
1211.38120,0.00538
1209.32103,0.00512
1207.26086,0.00495
1205.20069,0.00479
1203.14052,0.00461
1201.08034,0.00449
1199.02017,0.00445
1196.96000,0.00446
1194.89983,0.00445
1192.83966,0.00448
1190.77948,0.00459
1188.71931,0.00472
1186.65914,0.00486
1184.59897,0.00501
1182.53880,0.00508
1180.47862,0.00516
1178.41845,0.00546
1176.35828,0.00599
1174.29811,0.00665
1172.23793,0.00719
1170.17776,0.00752
1168.11759,0.00783
1166.05742,0.00829
1163.99725,0.00889
1161.93707,0.00952
1159.87690,0.01009
1157.81673,0.01064
1155.75656,0.01133
1153.69639,0.01222
1151.63621,0.01315
1149.57604,0.01403
1147.51587,0.01492
1145.45570,0.01582
1143.39552,0.01676
1141.33535,0.01787
1139.27518,0.01897
1137.21501,0.01991
1135.15484,0.02085
1133.09466,0.02196
1131.03449,0.02329
1128.97432,0.02465
1126.91415,0.02596
1124.85398,0.02734
1122.79380,0.02878
1120.73363,0.03026
1118.67346,0.03173
1116.61329,0.03313
1114.55312,0.03454
1112.49294,0.03602
1110.43277,0.03745
1108.37260,0.03871
1106.31243,0.03988
1104.25225,0.04101
1102.19208,0.04213
1100.13191,0.04320
1098.07174,0.04423
1096.01157,0.04524
1093.95139,0.04610
1091.89122,0.04687
1089.83105,0.04776
1087.77088,0.04863
1085.71071,0.04933
1083.65053,0.04997
1081.59036,0.05071
1079.53019,0.05152
1077.47002,0.05217
1075.40985,0.05269
1073.34967,0.05319
1071.28950,0.05367
1069.22933,0.05408
1067.16916,0.05431
1065.10898,0.05424
1063.04881,0.05404
1060.98864,0.05387
1058.92847,0.05351
1056.86830,0.05289
1054.80812,0.05210
1052.74795,0.05113
1050.68778,0.04999
1048.62761,0.04876
1046.56744,0.04747
1044.50726,0.04618
1042.44709,0.04480
1040.38692,0.04327
1038.32675,0.04165
1036.26657,0.04000
1034.20640,0.03836
1032.14623,0.03670
1030.08606,0.03513
1028.02589,0.03366
1025.96571,0.03231
1023.90554,0.03123
1021.84537,0.03037
1019.78520,0.02957
1017.72503,0.02889
1015.66485,0.02830
1013.60468,0.02776
1011.54451,0.02749
1009.48434,0.02752
1007.42417,0.02783
1005.36399,0.02838
1003.30382,0.02902
1001.24365,0.02989
999.18348,0.03107
997.12330,0.03216
995.06313,0.03297
993.00296,0.03376
990.94279,0.03467
988.88262,0.03560
986.82244,0.03640
984.76227,0.03710
982.70210,0.03777
980.64193,0.03817
978.58176,0.03823
976.52158,0.03825
974.46141,0.03813
972.40124,0.03763
970.34107,0.03698
968.28089,0.03640
966.22072,0.03555
964.16055,0.03437
962.10038,0.03332
960.04021,0.03234
957.98003,0.03116
955.91986,0.02997
953.85969,0.02890
951.79952,0.02791
949.73935,0.02697
947.67917,0.02599
945.61900,0.02497
943.55883,0.02392
941.49866,0.02294
939.43849,0.02213
937.37831,0.02133
935.31814,0.02054
933.25797,0.01986
931.19780,0.01922
929.13762,0.01877
927.07745,0.01851
925.01728,0.01802
922.95711,0.01725
920.89694,0.01671
918.83676,0.01658
916.77659,0.01651
914.71642,0.01624
912.65625,0.01597
910.59608,0.01578
908.53590,0.01549
906.47573,0.01530
904.41556,0.01534
902.35539,0.01554
900.29522,0.01574
898.23504,0.01577
896.17487,0.01591
894.11470,0.01640
892.05453,0.01696
889.99435,0.01736
887.93418,0.01774
885.87401,0.01836
883.81384,0.01926
881.75367,0.02018
879.69349,0.02069
877.63332,0.02090
875.57315,0.02140
873.51298,0.02235
871.45281,0.02320
869.39263,0.02364
867.33246,0.02404
865.27229,0.02458
863.21212,0.02498
861.15194,0.02518
859.09177,0.02528
857.03160,0.02542
854.97143,0.02571
852.91126,0.02588
850.85108,0.02552
848.79091,0.02505
846.73074,0.02501
844.67057,0.02517
842.61040,0.02505
840.55022,0.02461
838.49005,0.02410
836.42988,0.02351
834.36971,0.02269
832.30954,0.02194
830.24936,0.02154
828.18919,0.02129
826.12902,0.02107
824.06885,0.02081
822.00867,0.02046
819.94850,0.02001
817.88833,0.01943
815.82816,0.01883
813.76799,0.01853
811.70781,0.01855
809.64764,0.01851
807.58747,0.01840
805.52730,0.01811
803.46713,0.01756
801.40695,0.01727
799.34678,0.01715
797.28661,0.01692
795.22644,0.01684
793.16627,0.01692
791.10609,0.01691
789.04592,0.01678
786.98575,0.01681
784.92558,0.01708
782.86540,0.01709
780.80523,0.01677
778.74506,0.01659
776.68489,0.01668
774.62472,0.01678
772.56454,0.01694
770.50437,0.01717
768.44420,0.01720
766.38403,0.01706
764.32386,0.01679
762.26368,0.01656
760.20351,0.01671
758.14334,0.01684
756.08317,0.01664
754.02299,0.01626
751.96282,0.01584
749.90265,0.01571
747.84248,0.01590
745.78231,0.01619
743.72213,0.01637
741.66196,0.01644
739.60179,0.01667
737.54162,0.01692
735.48145,0.01680
733.42127,0.01646
731.36110,0.01625
729.30093,0.01615
727.24076,0.01607
725.18059,0.01635
723.12041,0.01757
721.06024,0.01659
719.00007,0.01773
716.93990,0.01748
714.87972,0.01708
712.81955,0.01718
710.75938,0.01754
708.69921,0.01801
706.63904,0.01842
704.57886,0.01900
702.51869,0.01949
700.45852,0.01977
698.39835,0.01996
696.33818,0.02030
694.27800,0.02103
692.21783,0.02191
690.15766,0.02251
688.09749,0.02281
686.03731,0.02326
683.97714,0.02427
681.91697,0.02554
679.85680,0.02640
677.79663,0.02627
675.73645,0.02503
673.67628,0.02692
671.61611,0.03804
669.55594,0.03216
667.49577,0.00000
665.43559,0.03262
663.37542,0.02962
661.31525,0.02119
659.25508,0.02001
657.19491,0.02060
655.13473,0.02033
653.07456,0.02013
651.01439,0.01980
648.95422,0.01786
646.89404,0.01731
644.83387,0.01587
642.77370,0.01423
640.71353,0.01276
638.65336,0.01130
636.59318,0.00987
634.53301,0.00875
632.47284,0.00786
630.41267,0.00697
628.35250,0.00566
626.29232,0.00437
624.23215,0.00344
622.17198,0.00301
620.11181,0.00295
618.05164,0.00270
615.99146,0.00207
613.93129,0.00156
611.87112,0.00053
609.81095,-0.00107
607.75077,-0.00263
605.69060,-0.00353
603.63043,-0.00289
601.57026,-0.00113
599.51009,0.00000
