3996.73391,0.00044
3994.67373,0.00041
3992.61356,0.00044
3990.55339,0.00060
3988.49322,0.00070
3986.43305,0.00053
3984.37287,0.00033
3982.31270,0.00042
3980.25253,0.00074
3978.19236,0.00095
3976.13219,0.00088
3974.07201,0.00071
3972.01184,0.00063
3969.95167,0.00079
3967.89150,0.00114
3965.83133,0.00134
3963.77115,0.00105
3961.71098,0.00053
3959.65081,0.00036
3957.59064,0.00060
3955.53046,0.00087
3953.47029,0.00088
3951.41012,0.00057
3949.34995,0.00016
3947.28978,0.00000
3945.22960,0.00012
3943.16943,0.00030
3941.10926,0.00054
3939.04909,0.00079
3936.98892,0.00087
3934.92874,0.00076
3932.86857,0.00056
3930.80840,0.00055
3928.74823,0.00092
3926.68805,0.00144
3924.62788,0.00175
3922.56771,0.00169
3920.50754,0.00142
3918.44737,0.00106
3916.38719,0.00089
3914.32702,0.00119
3912.26685,0.00164
3910.20668,0.00191
3908.14651,0.00194
3906.08633,0.00169
3904.02616,0.00109
3901.96599,0.00052
3899.90582,0.00047
3897.84565,0.00073
3895.78547,0.00086
3893.72530,0.00072
3891.66513,0.00048
3889.60496,0.00049
3887.54478,0.00066
3885.48461,0.00073
3883.42444,0.00064
3881.36427,0.00056
3879.30410,0.00074
3877.24392,0.00098
3875.18375,0.00091
3873.12358,0.00053
3871.06341,0.00013
3869.00324,0.00002
3866.94306,0.00014
3864.88289,0.00024
3862.82272,0.00036
3860.76255,0.00063
3858.70237,0.00076
3856.64220,0.00047
3854.58203,0.00000
3852.52186,0.00006
3850.46169,0.00088
3848.40151,0.00139
3846.34134,0.00141
3844.28117,0.00127
3842.22100,0.00109
3840.16083,0.00087
3838.10065,0.00061
3836.04048,0.00049
3833.98031,0.00080
3831.92014,0.00129
3829.85997,0.00160
3827.79979,0.00159
3825.73962,0.00140
3823.67945,0.00141
3821.61928,0.00171
3819.55910,0.00188
3817.49893,0.00190
3815.43876,0.00204
3813.37859,0.00227
3811.31842,0.00237
3809.25824,0.00236
3807.19807,0.00220
3805.13790,0.00204
3803.07773,0.00219
3801.01756,0.00248
3798.95738,0.00255
3796.89721,0.00244
3794.83704,0.00242
3792.77687,0.00248
3790.71670,0.00245
3788.65652,0.00242
3786.59635,0.00254
3784.53618,0.00274
3782.47601,0.00292
3780.41583,0.00296
3778.35566,0.00272
3776.29549,0.00244
3774.23532,0.00234
3772.17515,0.00235
3770.11497,0.00223
3768.05480,0.00201
3765.99463,0.00188
3763.93446,0.00183
3761.87429,0.00175
3759.81411,0.00166
3757.75394,0.00157
3755.69377,0.00143
3753.63360,0.00113
3751.57342,0.00064
3749.51325,0.00025
3747.45308,0.00022
3745.39291,0.00006
3743.33274,0.00000
3741.27256,0.00030
3739.21239,0.00049
3737.15222,0.00046
3735.09205,0.00032
3733.03188,0.00038
3730.97170,0.00077
3728.91153,0.00117
3726.85136,0.00122
3724.79119,0.00102
3722.73102,0.00100
3720.67084,0.00143
3718.61067,0.00186
3716.55050,0.00184
3714.49033,0.00173
3712.43015,0.00196
3710.36998,0.00212
3708.30981,0.00227
3706.24964,0.00257
3704.18947,0.00268
3702.12929,0.00251
3700.06912,0.00244
3698.00895,0.00257
3695.94878,0.00269
3693.88861,0.00288
3691.82843,0.00307
3689.76826,0.00284
3687.70809,0.00244
3685.64792,0.00248
3683.58775,0.00270
3681.52757,0.00285
3679.46740,0.00285
3677.40723,0.00258
3675.34706,0.00210
3673.28688,0.00188
3671.22671,0.00192
3669.16654,0.00207
3667.10637,0.00231
3665.04620,0.00245
3662.98602,0.00254
3660.92585,0.00274
3658.86568,0.00298
3656.80551,0.00301
3654.74534,0.00287
3652.68516,0.00275
3650.62499,0.00271
3648.56482,0.00285
3646.50465,0.00333
3644.44447,0.00360
3642.38430,0.00355
3640.32413,0.00354
3638.26396,0.00363
3636.20379,0.00357
3634.14361,0.00334
3632.08344,0.00320
3630.02327,0.00315
3627.96310,0.00319
3625.90293,0.00363
3623.84275,0.00403
3621.78258,0.00403
3619.72241,0.00391
3617.66224,0.00409
3615.60207,0.00439
3613.54189,0.00435
3611.48172,0.00425
3609.42155,0.00444
3607.36138,0.00479
3605.30120,0.00514
3603.24103,0.00554
3601.18086,0.00593
3599.12069,0.00616
3597.06052,0.00625
3595.00034,0.00626
3592.94017,0.00621
3590.88000,0.00602
3588.81983,0.00579
3586.75966,0.00593
3584.69948,0.00646
3582.63931,0.00683
3580.57914,0.00704
3578.51897,0.00741
3576.45879,0.00792
3574.39862,0.00823
3572.33845,0.00820
3570.27828,0.00788
3568.21811,0.00734
3566.15793,0.00710
3564.09776,0.00767
3562.03759,0.00849
3559.97742,0.00905
3557.91725,0.00931
3555.85707,0.00923
3553.79690,0.00910
3551.73673,0.00930
3549.67656,0.00945
3547.61639,0.00919
3545.55621,0.00925
3543.49604,0.01010
3541.43587,0.01105
3539.37570,0.01142
3537.31552,0.01125
3535.25535,0.01099
3533.19518,0.01100
3531.13501,0.01130
3529.07484,0.01159
3527.01466,0.01155
3524.95449,0.01132
3522.89432,0.01128
3520.83415,0.01153
3518.77398,0.01188
3516.71380,0.01227
3514.65363,0.01271
3512.59346,0.01309
3510.53329,0.01322
3508.47312,0.01314
3506.41294,0.01305
3504.35277,0.01298
3502.29260,0.01290
3500.23243,0.01314
3498.17225,0.01371
3496.11208,0.01414
3494.05191,0.01432
3491.99174,0.01447
3489.93157,0.01467
3487.87139,0.01477
3485.81122,0.01467
3483.75105,0.01458
3481.69088,0.01474
3479.63071,0.01514
3477.57053,0.01548
3475.51036,0.01570
3473.45019,0.01597
3471.39002,0.01621
3469.32984,0.01626
3467.26967,0.01620
3465.20950,0.01614
3463.14933,0.01619
3461.08916,0.01643
3459.02898,0.01668
3456.96881,0.01669
3454.90864,0.01658
3452.84847,0.01655
3450.78830,0.01660
3448.72812,0.01669
3446.66795,0.01687
3444.60778,0.01704
3442.54761,0.01714
3440.48744,0.01719
3438.42726,0.01729
3436.36709,0.01753
3434.30692,0.01785
3432.24675,0.01807
3430.18657,0.01813
3428.12640,0.01815
3426.06623,0.01816
3424.00606,0.01809
3421.94589,0.01792
3419.88571,0.01784
3417.82554,0.01816
3415.76537,0.01868
3413.70520,0.01895
3411.64503,0.01905
3409.58485,0.01926
3407.52468,0.01955
3405.46451,0.01970
3403.40434,0.01966
3401.34416,0.01951
3399.28399,0.01889
3397.22382,0.01877
3395.16365,0.01880
3393.10348,0.01877
3391.04330,0.01881
3388.98313,0.01887
3386.92296,0.01892
3384.86279,0.01910
3382.80262,0.01949
3380.74244,0.01990
3378.68227,0.02018
3376.62210,0.02022
3374.56193,0.02012
3372.50176,0.02006
3370.44158,0.02012
3368.38141,0.02024
3366.32124,0.02032
3364.26107,0.02038
3362.20089,0.02046
3360.14072,0.02064
3358.08055,0.02083
3356.02038,0.02081
3353.96021,0.02066
3351.90003,0.02058
3349.83986,0.02059
3347.77969,0.02072
3345.71952,0.02098
3343.65935,0.02118
3341.59917,0.02128
3339.53900,0.02125
3337.47883,0.02110
3335.41866,0.02101
3333.35849,0.02103
3331.29831,0.02106
3329.23814,0.02110
3327.17797,0.02113
3325.11780,0.02115
3323.05762,0.02122
3320.99745,0.02123
3318.93728,0.02119
3316.87711,0.02124
3314.81694,0.02135
3312.75676,0.02135
3310.69659,0.02128
3308.63642,0.02137
3306.57625,0.02155
3304.51608,0.02163
3302.45590,0.02161
3300.39573,0.02150
3298.33556,0.02144
3296.27539,0.02151
3294.21521,0.02152
3292.15504,0.02146
3290.09487,0.02165
3288.03470,0.02200
3285.97453,0.02213
3283.91435,0.02198
3281.85418,0.02177
3279.79401,0.02177
3277.73384,0.02195
3275.67367,0.02197
3273.61349,0.02188
3271.55332,0.02194
3269.49315,0.02201
3267.43298,0.02189
3265.37281,0.02177
3263.31263,0.02185
3261.25246,0.02199
3259.19229,0.02202
3257.13212,0.02196
3255.07194,0.02181
3253.01177,0.02168
3250.95160,0.02162
3248.89143,0.02148
3246.83126,0.02133
3244.77108,0.02131
3242.71091,0.02132
3240.65074,0.02135
3238.59057,0.02147
3236.53040,0.02152
3234.47022,0.02143
3232.41005,0.02132
3230.34988,0.02122
3228.28971,0.02120
3226.22954,0.02138
3224.16936,0.02152
3222.10919,0.02137
3220.04902,0.02120
3217.98885,0.02129
3215.92867,0.02145
3213.86850,0.02140
3211.80833,0.02119
3209.74816,0.02106
3207.68799,0.02103
3205.62781,0.02103
3203.56764,0.02106
3201.50747,0.02098
3199.44730,0.02082
3197.38713,0.02089
3195.32695,0.02106
3193.26678,0.02100
3191.20661,0.02073
3189.14644,0.02060
3187.08626,0.02073
3185.02609,0.02085
3182.96592,0.02082
3180.90575,0.02072
3178.84558,0.02055
3176.78540,0.02033
3174.72523,0.02024
3172.66506,0.02039
3170.60489,0.02056
3168.54472,0.02057
3166.48454,0.02046
3164.42437,0.02029
3162.36420,0.02016
3160.30403,0.02002
3158.24386,0.01985
3156.18368,0.01976
3154.12351,0.01979
3152.06334,0.01987
3150.00317,0.01990
3147.94299,0.01987
3145.88282,0.01975
3143.82265,0.01961
3141.76248,0.01957
3139.70231,0.01957
3137.64213,0.01948
3135.58196,0.01937
3133.52179,0.01940
3131.46162,0.01953
3129.40145,0.01952
3127.34127,0.01928
3125.28110,0.01901
3123.22093,0.01882
3121.16076,0.01873
3119.10058,0.01862
3117.04041,0.01849
3114.98024,0.01849
3112.92007,0.01861
3110.85990,0.01869
3108.79972,0.01874
3106.73955,0.01879
3104.67938,0.01883
3102.61921,0.01878
3100.55904,0.01860
3098.49886,0.01840
3096.43869,0.01836
3094.37852,0.01844
3092.31835,0.01845
3090.25818,0.01830
3088.19800,0.01806
3086.13783,0.01795
3084.07766,0.01800
3082.01749,0.01800
3079.95731,0.01793
3077.89714,0.01789
3075.83697,0.01789
3073.77680,0.01799
3071.71663,0.01810
3069.65645,0.01800
3067.59628,0.01774
3065.53611,0.01762
3063.47594,0.01762
3061.41577,0.01750
3059.35559,0.01725
3057.29542,0.01711
3055.23525,0.01712
3053.17508,0.01710
3051.11491,0.01695
3049.05473,0.01683
3046.99456,0.01685
3044.93439,0.01693
3042.87422,0.01701
3040.81404,0.01700
3038.75387,0.01685
3036.69370,0.01661
3034.63353,0.01638
3032.57336,0.01615
3030.51318,0.01603
3028.45301,0.01611
3026.39284,0.01623
3024.33267,0.01621
3022.27250,0.01602
3020.21232,0.01581
3018.15215,0.01569
3016.09198,0.01560
3014.03181,0.01553
3011.97163,0.01561
3009.91146,0.01568
3007.85129,0.01554
3005.79112,0.01549
3003.73095,0.01559
3001.67077,0.01552
2999.61060,0.01545
2997.55043,0.01556
2995.49026,0.01557
2993.43009,0.01530
2991.36991,0.01509
2989.30974,0.01502
2987.24957,0.01499
2985.18940,0.01500
2983.12923,0.01512
2981.06905,0.01532
2979.00888,0.01545
2976.94871,0.01550
2974.88854,0.01552
2972.82836,0.01550
2970.76819,0.01547
2968.70802,0.01547
2966.64785,0.01546
2964.58768,0.01544
2962.52750,0.01546
2960.46733,0.01552
2958.40716,0.01560
2956.34699,0.01566
2954.28682,0.01576
2952.22664,0.01587
2950.16647,0.01586
2948.10630,0.01582
2946.04613,0.01590
2943.98596,0.01598
2941.92578,0.01601
2939.86561,0.01602
2937.80544,0.01601
2935.74527,0.01605
2933.68509,0.01619
2931.62492,0.01632
2929.56475,0.01629
2927.50458,0.01613
2925.44441,0.01592
2923.38423,0.01575
2921.32406,0.01561
2919.26389,0.01550
2917.20372,0.01549
2915.14355,0.01552
2913.08337,0.01552
2911.02320,0.01552
2908.96303,0.01545
2906.90286,0.01534
2904.84268,0.01529
2902.78251,0.01526
2900.72234,0.01530
2898.66217,0.01538
2896.60200,0.01536
2894.54182,0.01523
2892.48165,0.01511
2890.42148,0.01498
2888.36131,0.01486
2886.30114,0.01489
2884.24096,0.01516
2882.18079,0.01543
2880.12062,0.01549
2878.06045,0.01538
2876.00028,0.01534
2873.94010,0.01539
2871.87993,0.01529
2869.81976,0.01501
2867.75959,0.01472
2865.69941,0.01462
2863.63924,0.01472
2861.57907,0.01479
2859.51890,0.01467
2857.45873,0.01453
2855.39855,0.01440
2853.33838,0.01424
2851.27821,0.01405
2849.21804,0.01385
2847.15787,0.01366
2845.09769,0.01351
2843.03752,0.01346
2840.97735,0.01343
2838.91718,0.01340
2836.85700,0.01348
2834.79683,0.01352
2832.73666,0.01337
2830.67649,0.01317
2828.61632,0.01307
2826.55614,0.01306
2824.49597,0.01306
2822.43580,0.01299
2820.37563,0.01292
2818.31546,0.01287
2816.25528,0.01268
2814.19511,0.01247
2812.13494,0.01241
2810.07477,0.01242
2808.01460,0.01242
2805.95442,0.01241
2803.89425,0.01243
2801.83408,0.01244
2799.77391,0.01235
2797.71373,0.01224
2795.65356,0.01215
2793.59339,0.01209
2791.53322,0.01211
2789.47305,0.01213
2787.41287,0.01195
2785.35270,0.01174
2783.29253,0.01169
2781.23236,0.01168
2779.17219,0.01161
2777.11201,0.01158
2775.05184,0.01160
2772.99167,0.01154
2770.93150,0.01140
2768.87133,0.01131
2766.81115,0.01133
2764.75098,0.01138
2762.69081,0.01133
2760.63064,0.01123
2758.57046,0.01109
2756.51029,0.01092
2754.45012,0.01078
2752.38995,0.01083
2750.32978,0.01100
2748.26960,0.01104
2746.20943,0.01087
2744.14926,0.01061
2742.08909,0.01047
2740.02892,0.01051
2737.96874,0.01050
2735.90857,0.01036
2733.84840,0.01027
2731.78823,0.01026
2729.72805,0.01026
2727.66788,0.01024
2725.60771,0.01024
2723.54754,0.01024
2721.48737,0.01019
2719.42719,0.01009
2717.36702,0.01001
2715.30685,0.00996
2713.24668,0.00992
2711.18651,0.00985
2709.12633,0.00978
2707.06616,0.00980
2705.00599,0.00987
2702.94582,0.00995
2700.88565,0.00995
2698.82547,0.00979
2696.76530,0.00958
2694.70513,0.00950
2692.64496,0.00951
2690.58478,0.00952
2688.52461,0.00947
2686.46444,0.00946
2684.40427,0.00955
2682.34410,0.00953
2680.28392,0.00945
2678.22375,0.00945
2676.16358,0.00942
2674.10341,0.00936
2672.04324,0.00928
2669.98306,0.00921
2667.92289,0.00911
2665.86272,0.00904
2663.80255,0.00915
2661.74238,0.00931
2659.68220,0.00931
2657.62203,0.00922
2655.56186,0.00917
2653.50169,0.00920
2651.44151,0.00925
2649.38134,0.00919
2647.32117,0.00899
2645.26100,0.00889
2643.20083,0.00901
2641.14065,0.00918
2639.08048,0.00920
2637.02031,0.00916
2634.96014,0.00913
2632.89997,0.00895
2630.83979,0.00869
2628.77962,0.00858
2626.71945,0.00864
2624.65928,0.00870
2622.59910,0.00871
2620.53893,0.00870
2618.47876,0.00863
2616.41859,0.00849
2614.35842,0.00834
2612.29824,0.00819
2610.23807,0.00813
2608.17790,0.00812
2606.11773,0.00809
2604.05756,0.00811
2601.99738,0.00817
2599.93721,0.00819
2597.87704,0.00823
2595.81687,0.00822
2593.75670,0.00816
2591.69652,0.00827
2589.63635,0.00842
2587.57618,0.00837
2585.51601,0.00825
2583.45583,0.00818
2581.39566,0.00808
2579.33549,0.00801
2577.27532,0.00803
2575.21515,0.00810
2573.15497,0.00807
2571.09480,0.00795
2569.03463,0.00797
2566.97446,0.00807
2564.91429,0.00808
2562.85411,0.00817
2560.79394,0.00816
2558.73377,0.00791
2556.67360,0.00778
2554.61342,0.00787
2552.55325,0.00798
2550.49308,0.00799
2548.43291,0.00796
2546.37274,0.00795
2544.31256,0.00786
2542.25239,0.00775
2540.19222,0.00780
2538.13205,0.00783
2536.07188,0.00764
2534.01170,0.00750
2531.95153,0.00764
2529.89136,0.00784
2527.83119,0.00792
2525.77102,0.00773
2523.71084,0.00758
2521.65067,0.00787
2519.59050,0.00814
2517.53033,0.00808
2515.47015,0.00803
2513.40998,0.00813
2511.34981,0.00824
2509.28964,0.00827
2507.22947,0.00822
2505.16929,0.00821
2503.10912,0.00829
2501.04895,0.00824
2498.98878,0.00798
2496.92861,0.00793
2494.86843,0.00823
2492.80826,0.00841
2490.74809,0.00838
2488.68792,0.00847
2486.62775,0.00859
2484.56757,0.00849
2482.50740,0.00838
2480.44723,0.00845
2478.38706,0.00858
2476.32688,0.00857
2474.26671,0.00847
2472.20654,0.00862
2470.14637,0.00895
2468.08620,0.00908
2466.02602,0.00893
2463.96585,0.00882
2461.90568,0.00889
2459.84551,0.00899
2457.78534,0.00907
2455.72516,0.00915
2453.66499,0.00908
2451.60482,0.00881
2449.54465,0.00854
2447.48447,0.00840
2445.42430,0.00846
2443.36413,0.00874
2441.30396,0.00896
2439.24379,0.00889
2437.18361,0.00868
2435.12344,0.00855
2433.06327,0.00850
2431.00310,0.00846
2428.94293,0.00850
2426.88275,0.00860
2424.82258,0.00869
2422.76241,0.00870
2420.70224,0.00866
2418.64207,0.00846
2416.58189,0.00829
2414.52172,0.00847
2412.46155,0.00871
2410.40138,0.00864
2408.34120,0.00839
2406.28103,0.00824
2404.22086,0.00828
2402.16069,0.00840
2400.10052,0.00846
2398.04034,0.00839
2395.98017,0.00825
2393.92000,0.00825
2391.85983,0.00833
2389.79966,0.00829
2387.73948,0.00809
2385.67931,0.00772
2383.61914,0.00731
2381.55897,0.00712
2379.49880,0.00724
2377.43862,0.00744
2375.37845,0.00764
2373.31828,0.00760
2371.25811,0.00744
2369.19793,0.00779
2367.13776,0.00869
2365.07759,0.00944
2363.01742,0.00981
2360.95725,0.00959
2358.89707,0.00970
2356.83690,0.00950
2354.77673,0.00898
2352.71656,0.00851
2350.65639,0.00780
2348.59621,0.00750
2346.53604,0.00868
2344.47587,0.00911
2342.41570,0.00911
2340.35552,0.00903
2338.29535,0.00892
2336.23518,0.00885
2334.17501,0.00855
2332.11484,0.00810
2330.05466,0.00784
2327.99449,0.00819
2325.93432,0.00857
2323.87415,0.00878
2321.81398,0.00824
2319.75380,0.00757
2317.69363,0.00694
2315.63346,0.00670
2313.57329,0.00675
2311.51312,0.00688
2309.45294,0.00698
2307.39277,0.00696
2305.33260,0.00697
2303.27243,0.00707
2301.21225,0.00718
2299.15208,0.00721
2297.09191,0.00725
2295.03174,0.00727
2292.97157,0.00738
2290.91139,0.00772
2288.85122,0.00798
2286.79105,0.00778
2284.73088,0.00732
2282.67071,0.00706
2280.61053,0.00719
2278.55036,0.00742
2276.49019,0.00747
2274.43002,0.00736
2272.36984,0.00719
2270.30967,0.00705
2268.24950,0.00717
2266.18933,0.00733
2264.12916,0.00708
2262.06898,0.00669
2260.00881,0.00640
2257.94864,0.00596
2255.88847,0.00568
2253.82830,0.00603
2251.76812,0.00655
2249.70795,0.00657
2247.64778,0.00613
2245.58761,0.00590
2243.52744,0.00589
2241.46726,0.00597
2239.40709,0.00592
2237.34692,0.00545
2235.28675,0.00494
2233.22657,0.00486
2231.16640,0.00526
2229.10623,0.00577
2227.04606,0.00619
2224.98589,0.00639
2222.92571,0.00610
2220.86554,0.00549
2218.80537,0.00524
2216.74520,0.00526
2214.68503,0.00506
2212.62485,0.00493
2210.56468,0.00502
2208.50451,0.00509
2206.44434,0.00508
2204.38417,0.00513
2202.32399,0.00513
2200.26382,0.00504
2198.20365,0.00519
2196.14348,0.00533
2194.08330,0.00526
2192.02313,0.00520
2189.96296,0.00521
2187.90279,0.00503
2185.84262,0.00420
2183.78244,0.00356
2181.72227,0.00418
2179.66210,0.00479
2177.60193,0.00444
2175.54176,0.00409
2173.48158,0.00423
2171.42141,0.00451
2169.36124,0.00461
2167.30107,0.00423
2165.24089,0.00355
2163.18072,0.00313
2161.12055,0.00230
2159.06038,0.00078
2157.00021,0.00012
2154.94003,0.00079
2152.87986,0.00157
2150.81969,0.00104
2148.75952,0.00000
2146.69935,0.00059
2144.63917,0.00209
2142.57900,0.00259
2140.51883,0.00251
2138.45866,0.00259
2136.39849,0.00261
2134.33831,0.00247
2132.27814,0.00238
2130.21797,0.00250
2128.15780,0.00276
2126.09762,0.00315
2124.03745,0.00353
2121.97728,0.00366
2119.91711,0.00376
2117.85694,0.00399
2115.79676,0.00424
2113.73659,0.00459
2111.67642,0.00472
2109.61625,0.00433
2107.55608,0.00395
2105.49590,0.00392
2103.43573,0.00390
2101.37556,0.00354
2099.31539,0.00295
2097.25521,0.00244
2095.19504,0.00246
2093.13487,0.00267
2091.07470,0.00277
2089.01453,0.00305
2086.95435,0.00333
2084.89418,0.00353
2082.83401,0.00396
2080.77384,0.00436
2078.71367,0.00440
2076.65349,0.00437
2074.59332,0.00431
2072.53315,0.00414
2070.47298,0.00402
2068.41281,0.00381
2066.35263,0.00320
2064.29246,0.00225
2062.23229,0.00152
2060.17212,0.00157
2058.11194,0.00212
2056.05177,0.00280
2053.99160,0.00362
2051.93143,0.00411
2049.87126,0.00400
2047.81108,0.00379
2045.75091,0.00356
2043.69074,0.00332
2041.63057,0.00354
2039.57040,0.00414
2037.51022,0.00443
2035.45005,0.00404
2033.38988,0.00327
2031.32971,0.00277
2029.26954,0.00272
2027.20936,0.00256
2025.14919,0.00229
2023.08902,0.00229
2021.02885,0.00253
2018.96867,0.00285
2016.90850,0.00314
2014.84833,0.00341
2012.78816,0.00367
2010.72799,0.00369
2008.66781,0.00314
2006.60764,0.00238
2004.54747,0.00196
2002.48730,0.00174
2000.42713,0.00156
1998.36695,0.00120
1996.30678,0.00070
1994.24661,0.00065
1992.18644,0.00130
1990.12626,0.00199
1988.06609,0.00209
1986.00592,0.00215
1983.94575,0.00276
1981.88558,0.00321
1979.82540,0.00288
1977.76523,0.00249
1975.70506,0.00261
1973.64489,0.00286
1971.58472,0.00311
1969.52454,0.00345
1967.46437,0.00339
1965.40420,0.00272
1963.34403,0.00203
1961.28386,0.00170
1959.22368,0.00164
1957.16351,0.00156
1955.10334,0.00154
1953.04317,0.00178
1950.98299,0.00222
1948.92282,0.00232
1946.86265,0.00216
1944.80248,0.00235
1942.74231,0.00259
1940.68213,0.00245
1938.62196,0.00242
1936.56179,0.00269
1934.50162,0.00300
1932.44145,0.00315
1930.38127,0.00304
1928.32110,0.00286
1926.26093,0.00292
1924.20076,0.00291
1922.14059,0.00256
1920.08041,0.00228
1918.02024,0.00244
1915.96007,0.00287
1913.89990,0.00317
1911.83972,0.00308
1909.77955,0.00289
1907.71938,0.00301
1905.65921,0.00325
1903.59904,0.00332
1901.53886,0.00328
1899.47869,0.00325
1897.41852,0.00338
1895.35835,0.00370
1893.29818,0.00388
1891.23800,0.00384
1889.17783,0.00380
1887.11766,0.00382
1885.05749,0.00386
1882.99731,0.00388
1880.93714,0.00382
1878.87697,0.00369
1876.81680,0.00364
1874.75663,0.00364
1872.69645,0.00359
1870.63628,0.00350
1868.57611,0.00352
1866.51594,0.00363
1864.45577,0.00371
1862.39559,0.00371
1860.33542,0.00370
1858.27525,0.00382
1856.21508,0.00406
1854.15491,0.00431
1852.09473,0.00439
1850.03456,0.00413
1847.97439,0.00365
1845.91422,0.00334
1843.85404,0.00348
1841.79387,0.00395
1839.73370,0.00433
1837.67353,0.00440
1835.61336,0.00425
1833.55318,0.00421
1831.49301,0.00441
1829.43284,0.00463
1827.37267,0.00469
1825.31250,0.00462
1823.25232,0.00446
1821.19215,0.00428
1819.13198,0.00420
1817.07181,0.00426
1815.01163,0.00431
1812.95146,0.00420
1810.89129,0.00407
1808.83112,0.00412
1806.77095,0.00427
1804.71077,0.00430
1802.65060,0.00412
1800.59043,0.00396
1798.53026,0.00399
1796.47009,0.00403
1794.40991,0.00404
1792.34974,0.00410
1790.28957,0.00416
1788.22940,0.00423
1786.16923,0.00427
1784.10905,0.00431
1782.04888,0.00442
1779.98871,0.00445
1777.92854,0.00430
1775.86836,0.00419
1773.80819,0.00430
1771.74802,0.00436
1769.68785,0.00416
1767.62768,0.00412
1765.56750,0.00444
1763.50733,0.00476
1761.44716,0.00478
1759.38699,0.00463
1757.32682,0.00463
1755.26664,0.00484
1753.20647,0.00503
1751.14630,0.00505
1749.08613,0.00505
1747.02596,0.00520
1744.96578,0.00540
1742.90561,0.00554
1740.84544,0.00559
1738.78527,0.00552
1736.72509,0.00540
1734.66492,0.00525
1732.60475,0.00521
1730.54458,0.00547
1728.48441,0.00566
1726.42423,0.00556
1724.36406,0.00533
1722.30389,0.00522
1720.24372,0.00523
1718.18355,0.00513
1716.12337,0.00476
1714.06320,0.00456
1712.00303,0.00455
1709.94286,0.00466
1707.88268,0.00473
1705.82251,0.00457
1703.76234,0.00443
1701.70217,0.00474
1699.64200,0.00527
1697.58182,0.00560
1695.52165,0.00596
1693.46148,0.00639
1691.40131,0.00665
1689.34114,0.00686
1687.28096,0.00725
1685.22079,0.00799
1683.16062,0.00872
1681.10045,0.00919
1679.04028,0.00965
1676.98010,0.01026
1674.91993,0.01094
1672.85976,0.01158
1670.79959,0.01219
1668.73941,0.01276
1666.67924,0.01315
1664.61907,0.01339
1662.55890,0.01355
1660.49873,0.01349
1658.43855,0.01335
1656.37838,0.01339
1654.31821,0.01366
1652.25804,0.01382
1650.19787,0.01375
1648.13769,0.01369
1646.07752,0.01382
1644.01735,0.01374
1641.95718,0.01349
1639.89701,0.01342
1637.83683,0.01349
1635.77666,0.01343
1633.71649,0.01322
1631.65632,0.01293
1629.59614,0.01268
1627.53597,0.01253
1625.47580,0.01241
1623.41563,0.01224
1621.35546,0.01199
1619.29528,0.01193
1617.23511,0.01214
1615.17494,0.01223
1613.11477,0.01205
1611.05460,0.01181
1608.99442,0.01163
1606.93425,0.01152
1604.87408,0.01146
1602.81391,0.01141
1600.75373,0.01131
1598.69356,0.01109
1596.63339,0.01078
1594.57322,0.01049
1592.51305,0.01024
1590.45287,0.00998
1588.39270,0.00977
1586.33253,0.00962
1584.27236,0.00938
1582.21219,0.00900
1580.15201,0.00871
1578.09184,0.00859
1576.03167,0.00840
1573.97150,0.00802
1571.91133,0.00767
1569.85115,0.00752
1567.79098,0.00732
1565.73081,0.00696
1563.67064,0.00665
1561.61046,0.00668
1559.55029,0.00677
1557.49012,0.00629
1555.42995,0.00575
1553.36978,0.00552
1551.30960,0.00551
1549.24943,0.00550
1547.18926,0.00531
1545.12909,0.00492
1543.06892,0.00473
1541.00874,0.00511
1538.94857,0.00534
1536.88840,0.00493
1534.82823,0.00446
1532.76805,0.00436
1530.70788,0.00438
1528.64771,0.00420
1526.58754,0.00380
1524.52737,0.00346
1522.46719,0.00334
1520.40702,0.00324
1518.34685,0.00316
1516.28668,0.00315
1514.22651,0.00304
1512.16633,0.00280
1510.10616,0.00254
1508.04599,0.00255
1505.98582,0.00295
1503.92565,0.00314
1501.86547,0.00297
1499.80530,0.00293
1497.74513,0.00310
1495.68496,0.00325
1493.62478,0.00328
1491.56461,0.00318
1489.50444,0.00305
1487.44427,0.00319
1485.38410,0.00354
1483.32392,0.00380
1481.26375,0.00385
1479.20358,0.00373
1477.14341,0.00357
1475.08324,0.00356
1473.02306,0.00383
1470.96289,0.00424
1468.90272,0.00447
1466.84255,0.00457
1464.78238,0.00474
1462.72220,0.00491
1460.66203,0.00509
1458.60186,0.00519
1456.54169,0.00512
1454.48151,0.00516
1452.42134,0.00527
1450.36117,0.00545
1448.30100,0.00571
1446.24083,0.00605
1444.18065,0.00635
1442.12048,0.00645
1440.06031,0.00632
1438.00014,0.00609
1435.93997,0.00596
1433.87979,0.00606
1431.81962,0.00634
1429.75945,0.00668
1427.69928,0.00692
1425.63910,0.00706
1423.57893,0.00715
1421.51876,0.00716
1419.45859,0.00716
1417.39842,0.00738
1415.33824,0.00778
1413.27807,0.00815
1411.21790,0.00842
1409.15773,0.00857
1407.09756,0.00867
1405.03738,0.00875
1402.97721,0.00877
1400.91704,0.00863
1398.85687,0.00832
1396.79670,0.00808
1394.73652,0.00814
1392.67635,0.00830
1390.61618,0.00834
1388.55601,0.00836
1386.49583,0.00856
1384.43566,0.00884
1382.37549,0.00898
1380.31532,0.00895
1378.25515,0.00890
1376.19497,0.00887
1374.13480,0.00882
1372.07463,0.00887
1370.01446,0.00906
1367.95429,0.00918
1365.89411,0.00909
1363.83394,0.00879
1361.77377,0.00855
1359.71360,0.00855
1357.65343,0.00861
1355.59325,0.00862
1353.53308,0.00861
1351.47291,0.00850
1349.41274,0.00825
1347.35256,0.00797
1345.29239,0.00778
1343.23222,0.00755
1341.17205,0.00708
1339.11188,0.00651
1337.05170,0.00634
1334.99153,0.00658
1332.93136,0.00679
1330.87119,0.00678
1328.81102,0.00672
1326.75084,0.00671
1324.69067,0.00667
1322.63050,0.00657
1320.57033,0.00642
1318.51015,0.00620
1316.44998,0.00603
1314.38981,0.00604
1312.32964,0.00618
1310.26947,0.00633
1308.20929,0.00643
1306.14912,0.00647
1304.08895,0.00651
1302.02878,0.00648
1299.96861,0.00635
1297.90843,0.00626
1295.84826,0.00630
1293.78809,0.00634
1291.72792,0.00622
1289.66775,0.00602
1287.60757,0.00588
1285.54740,0.00588
1283.48723,0.00602
1281.42706,0.00616
1279.36688,0.00619
1277.30671,0.00614
1275.24654,0.00611
1273.18637,0.00610
1271.12620,0.00607
1269.06602,0.00599
1267.00585,0.00593
1264.94568,0.00594
1262.88551,0.00603
1260.82534,0.00615
1258.76516,0.00622
1256.70499,0.00625
1254.64482,0.00633
1252.58465,0.00645
1250.52447,0.00651
1248.46430,0.00641
1246.40413,0.00619
1244.34396,0.00605
1242.28379,0.00605
1240.22361,0.00604
1238.16344,0.00597
1236.10327,0.00592
1234.04310,0.00588
1231.98293,0.00573
1229.92275,0.00548
1227.86258,0.00528
1225.80241,0.00514
1223.74224,0.00503
1221.68207,0.00494
1219.62189,0.00487
1217.56172,0.00488
1215.50155,0.00489
1213.44138,0.00471
1211.38120,0.00450
1209.32103,0.00449
1207.26086,0.00470
1205.20069,0.00498
1203.14052,0.00520
1201.08034,0.00538
1199.02017,0.00558
1196.96000,0.00598
1194.89983,0.00661
1192.83966,0.00741
1190.77948,0.00826
1188.71931,0.00906
1186.65914,0.00992
1184.59897,0.01104
1182.53880,0.01223
1180.47862,0.01324
1178.41845,0.01414
1176.35828,0.01505
1174.29811,0.01595
1172.23793,0.01684
1170.17776,0.01767
1168.11759,0.01838
1166.05742,0.01907
1163.99725,0.01984
1161.93707,0.02066
1159.87690,0.02141
1157.81673,0.02206
1155.75656,0.02262
1153.69639,0.02315
1151.63621,0.02374
1149.57604,0.02441
1147.51587,0.02499
1145.45570,0.02533
1143.39552,0.02556
1141.33535,0.02575
1139.27518,0.02585
1137.21501,0.02590
1135.15484,0.02605
1133.09466,0.02634
1131.03449,0.02661
1128.97432,0.02690
1126.91415,0.02723
1124.85398,0.02754
1122.79380,0.02785
1120.73363,0.02828
1118.67346,0.02886
1116.61329,0.02948
1114.55312,0.03008
1112.49294,0.03077
1110.43277,0.03142
1108.37260,0.03197
1106.31243,0.03265
1104.25225,0.03345
1102.19208,0.03421
1100.13191,0.03492
1098.07174,0.03564
1096.01157,0.03640
1093.95139,0.03711
1091.89122,0.03772
1089.83105,0.03838
1087.77088,0.03915
1085.71071,0.03995
1083.65053,0.04062
1081.59036,0.04118
1079.53019,0.04171
1077.47002,0.04227
1075.40985,0.04271
1073.34967,0.04292
1071.28950,0.04300
1069.22933,0.04297
1067.16916,0.04278
1065.10898,0.04255
1063.04881,0.04231
1060.98864,0.04190
1058.92847,0.04130
1056.86830,0.04066
1054.80812,0.04000
1052.74795,0.03925
1050.68778,0.03838
1048.62761,0.03730
1046.56744,0.03601
1044.50726,0.03471
1042.44709,0.03357
1040.38692,0.03253
1038.32675,0.03144
1036.26657,0.03030
1034.20640,0.02918
1032.14623,0.02810
1030.08606,0.02714
1028.02589,0.02627
1025.96571,0.02546
1023.90554,0.02470
1021.84537,0.02393
1019.78520,0.02302
1017.72503,0.02221
1015.66485,0.02181
1013.60468,0.02166
1011.54451,0.02156
1009.48434,0.02151
1007.42417,0.02152
1005.36399,0.02172
1003.30382,0.02217
1001.24365,0.02277
999.18348,0.02338
997.12330,0.02398
995.06313,0.02449
993.00296,0.02480
990.94279,0.02502
988.88262,0.02538
986.82244,0.02587
984.76227,0.02621
982.70210,0.02627
980.64193,0.02625
978.58176,0.02639
976.52158,0.02649
974.46141,0.02629
972.40124,0.02599
970.34107,0.02571
968.28089,0.02547
966.22072,0.02537
964.16055,0.02528
962.10038,0.02502
960.04021,0.02464
957.98003,0.02427
955.91986,0.02391
953.85969,0.02357
951.79952,0.02325
949.73935,0.02296
947.67917,0.02263
945.61900,0.02228
943.55883,0.02192
941.49866,0.02138
939.43849,0.02069
937.37831,0.02008
935.31814,0.01948
933.25797,0.01875
931.19780,0.01795
929.13762,0.01715
927.07745,0.01658
925.01728,0.01612
922.95711,0.01547
920.89694,0.01475
918.83676,0.01421
916.77659,0.01378
914.71642,0.01328
912.65625,0.01275
910.59608,0.01229
908.53590,0.01185
906.47573,0.01142
904.41556,0.01117
902.35539,0.01114
900.29522,0.01110
898.23504,0.01102
896.17487,0.01107
894.11470,0.01126
892.05453,0.01159
889.99435,0.01198
887.93418,0.01238
885.87401,0.01300
883.81384,0.01386
881.75367,0.01480
879.69349,0.01572
877.63332,0.01647
875.57315,0.01695
873.51298,0.01762
871.45281,0.01876
869.39263,0.01997
867.33246,0.02092
865.27229,0.02171
863.21212,0.02237
861.15194,0.02289
859.09177,0.02338
857.03160,0.02375
854.97143,0.02373
852.91126,0.02338
850.85108,0.02309
848.79091,0.02292
846.73074,0.02247
844.67057,0.02152
842.61040,0.02037
840.55022,0.01937
838.49005,0.01866
836.42988,0.01803
834.36971,0.01728
832.30954,0.01652
830.24936,0.01595
828.18919,0.01552
826.12902,0.01505
824.06885,0.01450
822.00867,0.01395
819.94850,0.01332
817.88833,0.01269
815.82816,0.01227
813.76799,0.01178
811.70781,0.01127
809.64764,0.01116
807.58747,0.01118
805.52730,0.01097
803.46713,0.01050
801.40695,0.00989
799.34678,0.00937
797.28661,0.00902
795.22644,0.00881
793.16627,0.00877
791.10609,0.00890
789.04592,0.00903
786.98575,0.00890
784.92558,0.00861
782.86540,0.00843
780.80523,0.00803
778.74506,0.00749
776.68489,0.00727
774.62472,0.00710
772.56454,0.00706
770.50437,0.00724
768.44420,0.00718
766.38403,0.00690
764.32386,0.00660
762.26368,0.00641
760.20351,0.00643
758.14334,0.00649
756.08317,0.00655
754.02299,0.00648
751.96282,0.00605
749.90265,0.00565
747.84248,0.00554
745.78231,0.00555
743.72213,0.00561
741.66196,0.00564
739.60179,0.00569
737.54162,0.00568
735.48145,0.00549
733.42127,0.00533
731.36110,0.00513
729.30093,0.00483
727.24076,0.00457
725.18059,0.00433
723.12041,0.00423
721.06024,0.00465
719.00007,0.00496
716.93990,0.00507
714.87972,0.00500
712.81955,0.00476
710.75938,0.00454
708.69921,0.00451
706.63904,0.00457
704.57886,0.00460
702.51869,0.00468
700.45852,0.00463
698.39835,0.00419
696.33818,0.00382
694.27800,0.00388
692.21783,0.00395
690.15766,0.00387
688.09749,0.00405
686.03731,0.00450
683.97714,0.00475
681.91697,0.00465
679.85680,0.00440
677.79663,0.00409
675.73645,0.00372
673.67628,0.00305
671.61611,0.00221
669.55594,0.00336
667.49577,0.00583
665.43559,0.00364
663.37542,0.00324
661.31525,0.00329
659.25508,0.00336
657.19491,0.00354
655.13473,0.00352
653.07456,0.00314
651.01439,0.00285
648.95422,0.00302
646.89404,0.00313
644.83387,0.00289
642.77370,0.00279
640.71353,0.00353
638.65336,0.00433
636.59318,0.00409
634.53301,0.00337
632.47284,0.00302
630.41267,0.00243
628.35250,0.00146
626.29232,0.00151
624.23215,0.00313
622.17198,0.00426
620.11181,0.00331
618.05164,0.00158
615.99146,0.00114
613.93129,0.00135
611.87112,0.00104
609.81095,0.00038
607.75077,0.00000
605.69060,0.00015
603.63043,0.00040
601.57026,-0.00006
599.51009,0.00000
