3996.73391,0.00000
3994.67373,0.00003
3992.61356,0.00014
3990.55339,0.00048
3988.49322,0.00105
3986.43305,0.00167
3984.37287,0.00199
3982.31270,0.00164
3980.25253,0.00109
3978.19236,0.00105
3976.13219,0.00150
3974.07201,0.00194
3972.01184,0.00205
3969.95167,0.00181
3967.89150,0.00125
3965.83133,0.00053
3963.77115,0.00023
3961.71098,0.00062
3959.65081,0.00123
3957.59064,0.00163
3955.53046,0.00179
3953.47029,0.00178
3951.41012,0.00171
3949.34995,0.00170
3947.28978,0.00170
3945.22960,0.00169
3943.16943,0.00168
3941.10926,0.00166
3939.04909,0.00160
3936.98892,0.00143
3934.92874,0.00128
3932.86857,0.00109
3930.80840,0.00054
3928.74823,0.00000
3926.68805,0.00018
3924.62788,0.00095
3922.56771,0.00159
3920.50754,0.00187
3918.44737,0.00185
3916.38719,0.00145
3914.32702,0.00085
3912.26685,0.00044
3910.20668,0.00029
3908.14651,0.00038
3906.08633,0.00074
3904.02616,0.00115
3901.96599,0.00123
3899.90582,0.00099
3897.84565,0.00076
3895.78547,0.00055
3893.72530,0.00052
3891.66513,0.00085
3889.60496,0.00117
3887.54478,0.00116
3885.48461,0.00115
3883.42444,0.00158
3881.36427,0.00213
3879.30410,0.00201
3877.24392,0.00181
3875.18375,0.00233
3873.12358,0.00280
3871.06341,0.00219
3869.00324,0.00112
3866.94306,0.00101
3864.88289,0.00169
3862.82272,0.00185
3860.76255,0.00120
3858.70237,0.00048
3856.64220,0.00016
3854.58203,0.00013
3852.52186,0.00014
3850.46169,0.00035
3848.40151,0.00069
3846.34134,0.00101
3844.28117,0.00121
3842.22100,0.00127
3840.16083,0.00147
3838.10065,0.00185
3836.04048,0.00186
3833.98031,0.00139
3831.92014,0.00120
3829.85997,0.00157
3827.79979,0.00196
3825.73962,0.00210
3823.67945,0.00195
3821.61928,0.00150
3819.55910,0.00127
3817.49893,0.00169
3815.43876,0.00195
3813.37859,0.00147
3811.31842,0.00079
3809.25824,0.00043
3807.19807,0.00034
3805.13790,0.00034
3803.07773,0.00032
3801.01756,0.00042
3798.95738,0.00066
3796.89721,0.00085
3794.83704,0.00132
3792.77687,0.00201
3790.71670,0.00197
3788.65652,0.00128
3786.59635,0.00097
3784.53618,0.00125
3782.47601,0.00168
3780.41583,0.00170
3778.35566,0.00102
3776.29549,0.00046
3774.23532,0.00074
3772.17515,0.00131
3770.11497,0.00170
3768.05480,0.00186
3765.99463,0.00174
3763.93446,0.00138
3761.87429,0.00091
3759.81411,0.00053
3757.75394,0.00064
3755.69377,0.00146
3753.63360,0.00233
3751.57342,0.00234
3749.51325,0.00159
3747.45308,0.00113
3745.39291,0.00126
3743.33274,0.00170
3741.27256,0.00186
3739.21239,0.00186
3737.15222,0.00238
3735.09205,0.00318
3733.03188,0.00323
3730.97170,0.00248
3728.91153,0.00191
3726.85136,0.00185
3724.79119,0.00198
3722.73102,0.00202
3720.67084,0.00164
3718.61067,0.00133
3716.55050,0.00148
3714.49033,0.00167
3712.43015,0.00133
3710.36998,0.00063
3708.30981,0.00065
3706.24964,0.00132
3704.18947,0.00192
3702.12929,0.00194
3700.06912,0.00157
3698.00895,0.00141
3695.94878,0.00157
3693.88861,0.00185
3691.82843,0.00162
3689.76826,0.00069
3687.70809,0.00000
3685.64792,0.00040
3683.58775,0.00134
3681.52757,0.00222
3679.46740,0.00264
3677.40723,0.00225
3675.34706,0.00131
3673.28688,0.00102
3671.22671,0.00149
3669.16654,0.00176
3667.10637,0.00166
3665.04620,0.00176
3662.98602,0.00230
3660.92585,0.00311
3658.86568,0.00367
3656.80551,0.00364
3654.74534,0.00331
3652.68516,0.00367
3650.62499,0.00517
3648.56482,0.00639
3646.50465,0.00577
3644.44447,0.00446
3642.38430,0.00330
3640.32413,0.00250
3638.26396,0.00266
3636.20379,0.00361
3634.14361,0.00438
3632.08344,0.00424
3630.02327,0.00334
3627.96310,0.00301
3625.90293,0.00368
3623.84275,0.00413
3621.78258,0.00427
3619.72241,0.00452
3617.66224,0.00484
3615.60207,0.00502
3613.54189,0.00459
3611.48172,0.00388
3609.42155,0.00366
3607.36138,0.00402
3605.30120,0.00452
3603.24103,0.00485
3601.18086,0.00518
3599.12069,0.00543
3597.06052,0.00538
3595.00034,0.00519
3592.94017,0.00543
3590.88000,0.00597
3588.81983,0.00636
3586.75966,0.00644
3584.69948,0.00642
3582.63931,0.00629
3580.57914,0.00600
3578.51897,0.00592
3576.45879,0.00619
3574.39862,0.00651
3572.33845,0.00665
3570.27828,0.00696
3568.21811,0.00768
3566.15793,0.00805
3564.09776,0.00765
3562.03759,0.00738
3559.97742,0.00764
3557.91725,0.00820
3555.85707,0.00885
3553.79690,0.00922
3551.73673,0.00902
3549.67656,0.00865
3547.61639,0.00843
3545.55621,0.00811
3543.49604,0.00768
3541.43587,0.00757
3539.37570,0.00796
3537.31552,0.00853
3535.25535,0.00880
3533.19518,0.00899
3531.13501,0.00954
3529.07484,0.01028
3527.01466,0.01054
3524.95449,0.01001
3522.89432,0.00928
3520.83415,0.00921
3518.77398,0.00974
3516.71380,0.01017
3514.65363,0.01019
3512.59346,0.01001
3510.53329,0.00969
3508.47312,0.00934
3506.41294,0.00926
3504.35277,0.00965
3502.29260,0.01021
3500.23243,0.01054
3498.17225,0.01072
3496.11208,0.01104
3494.05191,0.01145
3491.99174,0.01161
3489.93157,0.01129
3487.87139,0.01083
3485.81122,0.01089
3483.75105,0.01130
3481.69088,0.01150
3479.63071,0.01143
3477.57053,0.01128
3475.51036,0.01130
3473.45019,0.01150
3471.39002,0.01156
3469.32984,0.01155
3467.26967,0.01171
3465.20950,0.01198
3463.14933,0.01235
3461.08916,0.01276
3459.02898,0.01295
3456.96881,0.01292
3454.90864,0.01275
3452.84847,0.01247
3450.78830,0.01261
3448.72812,0.01345
3446.66795,0.01403
3444.60778,0.01366
3442.54761,0.01305
3440.48744,0.01304
3438.42726,0.01353
3436.36709,0.01411
3434.30692,0.01448
3432.24675,0.01444
3430.18657,0.01414
3428.12640,0.01370
3426.06623,0.01335
3424.00606,0.01367
3421.94589,0.01444
3419.88571,0.01472
3417.82554,0.01456
3415.76537,0.01451
3413.70520,0.01441
3411.64503,0.01430
3409.58485,0.01432
3407.52468,0.01432
3405.46451,0.01436
3403.40434,0.01450
3401.34416,0.01473
3399.28399,0.01491
3397.22382,0.01495
3395.16365,0.01493
3393.10348,0.01506
3391.04330,0.01534
3388.98313,0.01559
3386.92296,0.01551
3384.86279,0.01517
3382.80262,0.01528
3380.74244,0.01590
3378.68227,0.01623
3376.62210,0.01609
3374.56193,0.01621
3372.50176,0.01669
3370.44158,0.01696
3368.38141,0.01684
3366.32124,0.01640
3364.26107,0.01582
3362.20089,0.01557
3360.14072,0.01563
3358.08055,0.01587
3356.02038,0.01633
3353.96021,0.01687
3351.90003,0.01720
3349.83986,0.01707
3347.77969,0.01668
3345.71952,0.01623
3343.65935,0.01582
3341.59917,0.01593
3339.53900,0.01658
3337.47883,0.01699
3335.41866,0.01686
3333.35849,0.01682
3331.29831,0.01698
3329.23814,0.01678
3327.17797,0.01631
3325.11780,0.01594
3323.05762,0.01575
3320.99745,0.01594
3318.93728,0.01620
3316.87711,0.01602
3314.81694,0.01608
3312.75676,0.01676
3310.69659,0.01724
3308.63642,0.01713
3306.57625,0.01690
3304.51608,0.01688
3302.45590,0.01676
3300.39573,0.01645
3298.33556,0.01621
3296.27539,0.01611
3294.21521,0.01645
3292.15504,0.01711
3290.09487,0.01725
3288.03470,0.01704
3285.97453,0.01703
3283.91435,0.01700
3281.85418,0.01696
3279.79401,0.01703
3277.73384,0.01684
3275.67367,0.01640
3273.61349,0.01636
3271.55332,0.01676
3269.49315,0.01706
3267.43298,0.01716
3265.37281,0.01709
3263.31263,0.01676
3261.25246,0.01650
3259.19229,0.01647
3257.13212,0.01643
3255.07194,0.01659
3253.01177,0.01695
3250.95160,0.01701
3248.89143,0.01675
3246.83126,0.01651
3244.77108,0.01644
3242.71091,0.01653
3240.65074,0.01674
3238.59057,0.01691
3236.53040,0.01701
3234.47022,0.01715
3232.41005,0.01725
3230.34988,0.01705
3228.28971,0.01679
3226.22954,0.01685
3224.16936,0.01703
3222.10919,0.01711
3220.04902,0.01703
3217.98885,0.01670
3215.92867,0.01632
3213.86850,0.01640
3211.80833,0.01684
3209.74816,0.01698
3207.68799,0.01678
3205.62781,0.01658
3203.56764,0.01663
3201.50747,0.01679
3199.44730,0.01676
3197.38713,0.01666
3195.32695,0.01672
3193.26678,0.01684
3191.20661,0.01669
3189.14644,0.01615
3187.08626,0.01592
3185.02609,0.01628
3182.96592,0.01636
3180.90575,0.01607
3178.84558,0.01617
3176.78540,0.01645
3174.72523,0.01640
3172.66506,0.01634
3170.60489,0.01647
3168.54472,0.01644
3166.48454,0.01627
3164.42437,0.01624
3162.36420,0.01632
3160.30403,0.01638
3158.24386,0.01639
3156.18368,0.01619
3154.12351,0.01584
3152.06334,0.01567
3150.00317,0.01555
3147.94299,0.01538
3145.88282,0.01541
3143.82265,0.01564
3141.76248,0.01581
3139.70231,0.01576
3137.64213,0.01550
3135.58196,0.01531
3133.52179,0.01538
3131.46162,0.01548
3129.40145,0.01535
3127.34127,0.01518
3125.28110,0.01523
3123.22093,0.01546
3121.16076,0.01576
3119.10058,0.01604
3117.04041,0.01611
3114.98024,0.01590
3112.92007,0.01541
3110.85990,0.01487
3108.79972,0.01451
3106.73955,0.01435
3104.67938,0.01435
3102.61921,0.01455
3100.55904,0.01483
3098.49886,0.01496
3096.43869,0.01495
3094.37852,0.01498
3092.31835,0.01493
3090.25818,0.01463
3088.19800,0.01431
3086.13783,0.01415
3084.07766,0.01410
3082.01749,0.01424
3079.95731,0.01452
3077.89714,0.01448
3075.83697,0.01403
3073.77680,0.01380
3071.71663,0.01401
3069.65645,0.01402
3067.59628,0.01373
3065.53611,0.01363
3063.47594,0.01371
3061.41577,0.01388
3059.35559,0.01418
3057.29542,0.01425
3055.23525,0.01392
3053.17508,0.01353
3051.11491,0.01343
3049.05473,0.01358
3046.99456,0.01361
3044.93439,0.01350
3042.87422,0.01342
3040.81404,0.01338
3038.75387,0.01356
3036.69370,0.01369
3034.63353,0.01341
3032.57336,0.01303
3030.51318,0.01275
3028.45301,0.01243
3026.39284,0.01217
3024.33267,0.01216
3022.27250,0.01233
3020.21232,0.01253
3018.15215,0.01267
3016.09198,0.01266
3014.03181,0.01256
3011.97163,0.01243
3009.91146,0.01226
3007.85129,0.01224
3005.79112,0.01228
3003.73095,0.01215
3001.67077,0.01213
2999.61060,0.01245
2997.55043,0.01271
2995.49026,0.01264
2993.43009,0.01237
2991.36991,0.01200
2989.30974,0.01183
2987.24957,0.01202
2985.18940,0.01223
2983.12923,0.01231
2981.06905,0.01235
2979.00888,0.01220
2976.94871,0.01194
2974.88854,0.01179
2972.82836,0.01188
2970.76819,0.01202
2968.70802,0.01212
2966.64785,0.01225
2964.58768,0.01206
2962.52750,0.01151
2960.46733,0.01123
2958.40716,0.01134
2956.34699,0.01141
2954.28682,0.01137
2952.22664,0.01140
2950.16647,0.01138
2948.10630,0.01139
2946.04613,0.01150
2943.98596,0.01161
2941.92578,0.01178
2939.86561,0.01197
2937.80544,0.01191
2935.74527,0.01164
2933.68509,0.01153
2931.62492,0.01161
2929.56475,0.01150
2927.50458,0.01140
2925.44441,0.01167
2923.38423,0.01189
2921.32406,0.01177
2919.26389,0.01171
2917.20372,0.01164
2915.14355,0.01134
2913.08337,0.01124
2911.02320,0.01141
2908.96303,0.01145
2906.90286,0.01122
2904.84268,0.01084
2902.78251,0.01075
2900.72234,0.01101
2898.66217,0.01125
2896.60200,0.01134
2894.54182,0.01126
2892.48165,0.01099
2890.42148,0.01081
2888.36131,0.01061
2886.30114,0.01034
2884.24096,0.01054
2882.18079,0.01097
2880.12062,0.01087
2878.06045,0.01058
2876.00028,0.01059
2873.94010,0.01063
2871.87993,0.01048
2869.81976,0.01044
2867.75959,0.01065
2865.69941,0.01080
2863.63924,0.01064
2861.57907,0.01043
2859.51890,0.01035
2857.45873,0.01014
2855.39855,0.01002
2853.33838,0.01015
2851.27821,0.01024
2849.21804,0.01009
2847.15787,0.00974
2845.09769,0.00960
2843.03752,0.00976
2840.97735,0.00982
2838.91718,0.00978
2836.85700,0.00974
2834.79683,0.00963
2832.73666,0.00945
2830.67649,0.00929
2828.61632,0.00926
2826.55614,0.00924
2824.49597,0.00918
2822.43580,0.00916
2820.37563,0.00902
2818.31546,0.00887
2816.25528,0.00890
2814.19511,0.00880
2812.13494,0.00852
2810.07477,0.00834
2808.01460,0.00827
2805.95442,0.00836
2803.89425,0.00866
2801.83408,0.00880
2799.77391,0.00858
2797.71373,0.00851
2795.65356,0.00860
2793.59339,0.00846
2791.53322,0.00824
2789.47305,0.00816
2787.41287,0.00838
2785.35270,0.00858
2783.29253,0.00837
2781.23236,0.00805
2779.17219,0.00789
2777.11201,0.00780
2775.05184,0.00797
2772.99167,0.00825
2770.93150,0.00805
2768.87133,0.00757
2766.81115,0.00743
2764.75098,0.00762
2762.69081,0.00781
2760.63064,0.00790
2758.57046,0.00801
2756.51029,0.00814
2754.45012,0.00805
2752.38995,0.00782
2750.32978,0.00771
2748.26960,0.00772
2746.20943,0.00774
2744.14926,0.00770
2742.08909,0.00756
2740.02892,0.00740
2737.96874,0.00729
2735.90857,0.00734
2733.84840,0.00759
2731.78823,0.00776
2729.72805,0.00775
2727.66788,0.00755
2725.60771,0.00695
2723.54754,0.00640
2721.48737,0.00649
2719.42719,0.00687
2717.36702,0.00695
2715.30685,0.00700
2713.24668,0.00715
2711.18651,0.00697
2709.12633,0.00677
2707.06616,0.00701
2705.00599,0.00724
2702.94582,0.00715
2700.88565,0.00685
2698.82547,0.00652
2696.76530,0.00629
2694.70513,0.00609
2692.64496,0.00602
2690.58478,0.00624
2688.52461,0.00653
2686.46444,0.00661
2684.40427,0.00647
2682.34410,0.00609
2680.28392,0.00563
2678.22375,0.00542
2676.16358,0.00552
2674.10341,0.00576
2672.04324,0.00582
2669.98306,0.00571
2667.92289,0.00585
2665.86272,0.00610
2663.80255,0.00610
2661.74238,0.00598
2659.68220,0.00587
2657.62203,0.00573
2655.56186,0.00558
2653.50169,0.00568
2651.44151,0.00610
2649.38134,0.00623
2647.32117,0.00605
2645.26100,0.00594
2643.20083,0.00571
2641.14065,0.00546
2639.08048,0.00540
2637.02031,0.00539
2634.96014,0.00546
2632.89997,0.00558
2630.83979,0.00549
2628.77962,0.00532
2626.71945,0.00543
2624.65928,0.00572
2622.59910,0.00574
2620.53893,0.00548
2618.47876,0.00530
2616.41859,0.00537
2614.35842,0.00548
2612.29824,0.00543
2610.23807,0.00529
2608.17790,0.00517
2606.11773,0.00502
2604.05756,0.00472
2601.99738,0.00443
2599.93721,0.00460
2597.87704,0.00506
2595.81687,0.00534
2593.75670,0.00536
2591.69652,0.00527
2589.63635,0.00519
2587.57618,0.00515
2585.51601,0.00515
2583.45583,0.00511
2581.39566,0.00509
2579.33549,0.00527
2577.27532,0.00544
2575.21515,0.00523
2573.15497,0.00513
2571.09480,0.00568
2569.03463,0.00605
2566.97446,0.00585
2564.91429,0.00568
2562.85411,0.00568
2560.79394,0.00558
2558.73377,0.00527
2556.67360,0.00484
2554.61342,0.00458
2552.55325,0.00452
2550.49308,0.00442
2548.43291,0.00426
2546.37274,0.00418
2544.31256,0.00432
2542.25239,0.00465
2540.19222,0.00493
2538.13205,0.00536
2536.07188,0.00572
2534.01170,0.00545
2531.95153,0.00493
2529.89136,0.00491
2527.83119,0.00516
2525.77102,0.00499
2523.71084,0.00465
2521.65067,0.00475
2519.59050,0.00513
2517.53033,0.00533
2515.47015,0.00532
2513.40998,0.00536
2511.34981,0.00527
2509.28964,0.00511
2507.22947,0.00523
2505.16929,0.00529
2503.10912,0.00528
2501.04895,0.00564
2498.98878,0.00593
2496.92861,0.00563
2494.86843,0.00528
2492.80826,0.00523
2490.74809,0.00515
2488.68792,0.00484
2486.62775,0.00453
2484.56757,0.00427
2482.50740,0.00424
2480.44723,0.00457
2478.38706,0.00487
2476.32688,0.00502
2474.26671,0.00492
2472.20654,0.00453
2470.14637,0.00460
2468.08620,0.00529
2466.02602,0.00576
2463.96585,0.00551
2461.90568,0.00496
2459.84551,0.00497
2457.78534,0.00563
2455.72516,0.00573
2453.66499,0.00511
2451.60482,0.00492
2449.54465,0.00527
2447.48447,0.00561
2445.42430,0.00563
2443.36413,0.00545
2441.30396,0.00540
2439.24379,0.00549
2437.18361,0.00576
2435.12344,0.00588
2433.06327,0.00566
2431.00310,0.00551
2428.94293,0.00531
2426.88275,0.00504
2424.82258,0.00527
2422.76241,0.00574
2420.70224,0.00571
2418.64207,0.00529
2416.58189,0.00520
2414.52172,0.00551
2412.46155,0.00563
2410.40138,0.00510
2408.34120,0.00432
2406.28103,0.00423
2404.22086,0.00474
2402.16069,0.00518
2400.10052,0.00549
2398.04034,0.00543
2395.98017,0.00525
2393.92000,0.00522
2391.85983,0.00530
2389.79966,0.00516
2387.73948,0.00482
2385.67931,0.00474
2383.61914,0.00523
2381.55897,0.00601
2379.49880,0.00673
2377.43862,0.00695
2375.37845,0.00650
2373.31828,0.00547
2371.25811,0.00522
2369.19793,0.00602
2367.13776,0.00522
2365.07759,0.00310
2363.01742,0.00339
2360.95725,0.00333
2358.89707,0.00469
2356.83690,0.00629
2354.77673,0.00796
2352.71656,0.00882
2350.65639,0.00492
2348.59621,0.00257
2346.53604,0.00791
2344.47587,0.00791
2342.41570,0.00486
2340.35552,0.00379
2338.29535,0.00451
2336.23518,0.00553
2334.17501,0.00518
2332.11484,0.00542
2330.05466,0.00666
2327.99449,0.00803
2325.93432,0.00704
2323.87415,0.00584
2321.81398,0.00484
2319.75380,0.00487
2317.69363,0.00432
2315.63346,0.00486
2313.57329,0.00610
2311.51312,0.00646
2309.45294,0.00600
2307.39277,0.00557
2305.33260,0.00578
2303.27243,0.00625
2301.21225,0.00627
2299.15208,0.00533
2297.09191,0.00448
2295.03174,0.00427
2292.97157,0.00433
2290.91139,0.00479
2288.85122,0.00557
2286.79105,0.00588
2284.73088,0.00547
2282.67071,0.00499
2280.61053,0.00503
2278.55036,0.00540
2276.49019,0.00587
2274.43002,0.00623
2272.36984,0.00597
2270.30967,0.00500
2268.24950,0.00423
2266.18933,0.00447
2264.12916,0.00529
2262.06898,0.00577
2260.00881,0.00558
2257.94864,0.00474
2255.88847,0.00401
2253.82830,0.00414
2251.76812,0.00490
2249.70795,0.00547
2247.64778,0.00545
2245.58761,0.00507
2243.52744,0.00435
2241.46726,0.00332
2239.40709,0.00271
2237.34692,0.00287
2235.28675,0.00317
2233.22657,0.00364
2231.16640,0.00439
2229.10623,0.00422
2227.04606,0.00294
2224.98589,0.00217
2222.92571,0.00254
2220.86554,0.00302
2218.80537,0.00351
2216.74520,0.00479
2214.68503,0.00571
2212.62485,0.00487
2210.56468,0.00319
2208.50451,0.00297
2206.44434,0.00447
2204.38417,0.00548
2202.32399,0.00471
2200.26382,0.00273
2198.20365,0.00090
2196.14348,0.00070
2194.08330,0.00218
2192.02313,0.00318
2189.96296,0.00354
2187.90279,0.00502
2185.84262,0.00566
2183.78244,0.00385
2181.72227,0.00203
2179.66210,0.00209
2177.60193,0.00290
2175.54176,0.00273
2173.48158,0.00205
2171.42141,0.00247
2169.36124,0.00381
2167.30107,0.00427
2165.24089,0.00397
2163.18072,0.00380
2161.12055,0.00372
2159.06038,0.00460
2157.00021,0.00564
2154.94003,0.00504
2152.87986,0.00392
2150.81969,0.00393
2148.75952,0.00355
2146.69935,0.00239
2144.63917,0.00283
2142.57900,0.00367
2140.51883,0.00283
2138.45866,0.00166
2136.39849,0.00129
2134.33831,0.00174
2132.27814,0.00250
2130.21797,0.00292
2128.15780,0.00342
2126.09762,0.00410
2124.03745,0.00462
2121.97728,0.00510
2119.91711,0.00544
2117.85694,0.00526
2115.79676,0.00454
2113.73659,0.00357
2111.67642,0.00275
2109.61625,0.00254
2107.55608,0.00297
2105.49590,0.00331
2103.43573,0.00311
2101.37556,0.00306
2099.31539,0.00288
2097.25521,0.00172
2095.19504,0.00039
2093.13487,0.00035
2091.07470,0.00141
2089.01453,0.00201
2086.95435,0.00198
2084.89418,0.00260
2082.83401,0.00370
2080.77384,0.00419
2078.71367,0.00390
2076.65349,0.00336
2074.59332,0.00309
2072.53315,0.00274
2070.47298,0.00175
2068.41281,0.00094
2066.35263,0.00134
2064.29246,0.00200
2062.23229,0.00178
2060.17212,0.00132
2058.11194,0.00163
2056.05177,0.00322
2053.99160,0.00516
2051.93143,0.00588
2049.87126,0.00523
2047.81108,0.00416
2045.75091,0.00373
2043.69074,0.00329
2041.63057,0.00274
2039.57040,0.00358
2037.51022,0.00480
2035.45005,0.00457
2033.38988,0.00321
2031.32971,0.00198
2029.26954,0.00109
2027.20936,0.00019
2025.14919,0.00081
2023.08902,0.00324
2021.02885,0.00482
2018.96867,0.00369
2016.90850,0.00108
2014.84833,0.00000
2012.78816,0.00080
2010.72799,0.00179
2008.66781,0.00244
2006.60764,0.00229
2004.54747,0.00186
2002.48730,0.00312
2000.42713,0.00535
1998.36695,0.00579
1996.30678,0.00447
1994.24661,0.00374
1992.18644,0.00386
1990.12626,0.00382
1988.06609,0.00357
1986.00592,0.00361
1983.94575,0.00380
1981.88558,0.00382
1979.82540,0.00426
1977.76523,0.00520
1975.70506,0.00559
1973.64489,0.00443
1971.58472,0.00227
1969.52454,0.00106
1967.46437,0.00151
1965.40420,0.00262
1963.34403,0.00353
1961.28386,0.00353
1959.22368,0.00281
1957.16351,0.00264
1955.10334,0.00312
1953.04317,0.00368
1950.98299,0.00372
1948.92282,0.00268
1946.86265,0.00149
1944.80248,0.00117
1942.74231,0.00159
1940.68213,0.00220
1938.62196,0.00238
1936.56179,0.00212
1934.50162,0.00203
1932.44145,0.00259
1930.38127,0.00339
1928.32110,0.00357
1926.26093,0.00308
1924.20076,0.00276
1922.14059,0.00301
1920.08041,0.00319
1918.02024,0.00290
1915.96007,0.00247
1913.89990,0.00224
1911.83972,0.00228
1909.77955,0.00234
1907.71938,0.00229
1905.65921,0.00245
1903.59904,0.00289
1901.53886,0.00327
1899.47869,0.00339
1897.41852,0.00332
1895.35835,0.00318
1893.29818,0.00287
1891.23800,0.00255
1889.17783,0.00287
1887.11766,0.00359
1885.05749,0.00405
1882.99731,0.00427
1880.93714,0.00423
1878.87697,0.00376
1876.81680,0.00318
1874.75663,0.00276
1872.69645,0.00263
1870.63628,0.00285
1868.57611,0.00322
1866.51594,0.00363
1864.45577,0.00383
1862.39559,0.00347
1860.33542,0.00295
1858.27525,0.00279
1856.21508,0.00265
1854.15491,0.00252
1852.09473,0.00280
1850.03456,0.00331
1847.97439,0.00364
1845.91422,0.00360
1843.85404,0.00355
1841.79387,0.00393
1839.73370,0.00420
1837.67353,0.00390
1835.61336,0.00364
1833.55318,0.00393
1831.49301,0.00428
1829.43284,0.00430
1827.37267,0.00426
1825.31250,0.00412
1823.25232,0.00369
1821.19215,0.00334
1819.13198,0.00320
1817.07181,0.00316
1815.01163,0.00330
1812.95146,0.00359
1810.89129,0.00391
1808.83112,0.00413
1806.77095,0.00408
1804.71077,0.00380
1802.65060,0.00360
1800.59043,0.00360
1798.53026,0.00376
1796.47009,0.00397
1794.40991,0.00404
1792.34974,0.00396
1790.28957,0.00401
1788.22940,0.00431
1786.16923,0.00461
1784.10905,0.00454
1782.04888,0.00419
1779.98871,0.00391
1777.92854,0.00395
1775.86836,0.00434
1773.80819,0.00471
1771.74802,0.00473
1769.68785,0.00452
1767.62768,0.00439
1765.56750,0.00434
1763.50733,0.00425
1761.44716,0.00406
1759.38699,0.00390
1757.32682,0.00404
1755.26664,0.00452
1753.20647,0.00501
1751.14630,0.00541
1749.08613,0.00584
1747.02596,0.00601
1744.96578,0.00569
1742.90561,0.00525
1740.84544,0.00501
1738.78527,0.00495
1736.72509,0.00510
1734.66492,0.00543
1732.60475,0.00569
1730.54458,0.00570
1728.48441,0.00551
1726.42423,0.00528
1724.36406,0.00523
1722.30389,0.00529
1720.24372,0.00538
1718.18355,0.00562
1716.12337,0.00592
1714.06320,0.00608
1712.00303,0.00630
1709.94286,0.00670
1707.88268,0.00699
1705.82251,0.00694
1703.76234,0.00680
1701.70217,0.00699
1699.64200,0.00746
1697.58182,0.00766
1695.52165,0.00740
1693.46148,0.00712
1691.40131,0.00722
1689.34114,0.00769
1687.28096,0.00824
1685.22079,0.00863
1683.16062,0.00869
1681.10045,0.00861
1679.04028,0.00874
1676.98010,0.00904
1674.91993,0.00922
1672.85976,0.00923
1670.79959,0.00932
1668.73941,0.00953
1666.67924,0.00986
1664.61907,0.01026
1662.55890,0.01043
1660.49873,0.01034
1658.43855,0.01051
1656.37838,0.01102
1654.31821,0.01131
1652.25804,0.01100
1650.19787,0.01089
1648.13769,0.01110
1646.07752,0.01097
1644.01735,0.01049
1641.95718,0.01016
1639.89701,0.01028
1637.83683,0.01071
1635.77666,0.01078
1633.71649,0.01018
1631.65632,0.00965
1629.59614,0.00947
1627.53597,0.00946
1625.47580,0.00953
1623.41563,0.00954
1621.35546,0.00929
1619.29528,0.00897
1617.23511,0.00873
1615.17494,0.00858
1613.11477,0.00851
1611.05460,0.00845
1608.99442,0.00833
1606.93425,0.00812
1604.87408,0.00795
1602.81391,0.00790
1600.75373,0.00786
1598.69356,0.00776
1596.63339,0.00769
1594.57322,0.00759
1592.51305,0.00742
1590.45287,0.00726
1588.39270,0.00714
1586.33253,0.00705
1584.27236,0.00711
1582.21219,0.00728
1580.15201,0.00744
1578.09184,0.00748
1576.03167,0.00724
1573.97150,0.00686
1571.91133,0.00672
1569.85115,0.00684
1567.79098,0.00707
1565.73081,0.00719
1563.67064,0.00701
1561.61046,0.00663
1559.55029,0.00644
1557.49012,0.00659
1555.42995,0.00677
1553.36978,0.00687
1551.30960,0.00696
1549.24943,0.00696
1547.18926,0.00696
1545.12909,0.00725
1543.06892,0.00771
1541.00874,0.00782
1538.94857,0.00730
1536.88840,0.00670
1534.82823,0.00638
1532.76805,0.00623
1530.70788,0.00608
1528.64771,0.00591
1526.58754,0.00587
1524.52737,0.00610
1522.46719,0.00656
1520.40702,0.00681
1518.34685,0.00657
1516.28668,0.00608
1514.22651,0.00570
1512.16633,0.00570
1510.10616,0.00604
1508.04599,0.00617
1505.98582,0.00540
1503.92565,0.00458
1501.86547,0.00440
1499.80530,0.00448
1497.74513,0.00452
1495.68496,0.00460
1493.62478,0.00484
1491.56461,0.00509
1489.50444,0.00517
1487.44427,0.00496
1485.38410,0.00463
1483.32392,0.00459
1481.26375,0.00492
1479.20358,0.00529
1477.14341,0.00546
1475.08324,0.00535
1473.02306,0.00505
1470.96289,0.00482
1468.90272,0.00485
1466.84255,0.00505
1464.78238,0.00517
1462.72220,0.00506
1460.66203,0.00513
1458.60186,0.00556
1456.54169,0.00582
1454.48151,0.00559
1452.42134,0.00532
1450.36117,0.00525
1448.30100,0.00535
1446.24083,0.00546
1444.18065,0.00542
1442.12048,0.00527
1440.06031,0.00521
1438.00014,0.00533
1435.93997,0.00555
1433.87979,0.00576
1431.81962,0.00595
1429.75945,0.00600
1427.69928,0.00594
1425.63910,0.00594
1423.57893,0.00606
1421.51876,0.00626
1419.45859,0.00642
1417.39842,0.00631
1415.33824,0.00609
1413.27807,0.00603
1411.21790,0.00609
1409.15773,0.00613
1407.09756,0.00607
1405.03738,0.00605
1402.97721,0.00626
1400.91704,0.00660
1398.85687,0.00682
1396.79670,0.00674
1394.73652,0.00647
1392.67635,0.00615
1390.61618,0.00585
1388.55601,0.00562
1386.49583,0.00552
1384.43566,0.00555
1382.37549,0.00566
1380.31532,0.00579
1378.25515,0.00601
1376.19497,0.00635
1374.13480,0.00659
1372.07463,0.00657
1370.01446,0.00645
1367.95429,0.00634
1365.89411,0.00626
1363.83394,0.00624
1361.77377,0.00622
1359.71360,0.00611
1357.65343,0.00593
1355.59325,0.00581
1353.53308,0.00578
1351.47291,0.00572
1349.41274,0.00565
1347.35256,0.00569
1345.29239,0.00588
1343.23222,0.00606
1341.17205,0.00610
1339.11188,0.00595
1337.05170,0.00566
1334.99153,0.00529
1332.93136,0.00501
1330.87119,0.00506
1328.81102,0.00534
1326.75084,0.00543
1324.69067,0.00535
1322.63050,0.00531
1320.57033,0.00531
1318.51015,0.00536
1316.44998,0.00552
1314.38981,0.00562
1312.32964,0.00543
1310.26947,0.00502
1308.20929,0.00480
1306.14912,0.00488
1304.08895,0.00500
1302.02878,0.00498
1299.96861,0.00487
1297.90843,0.00491
1295.84826,0.00502
1293.78809,0.00494
1291.72792,0.00485
1289.66775,0.00506
1287.60757,0.00525
1285.54740,0.00506
1283.48723,0.00481
1281.42706,0.00474
1279.36688,0.00474
1277.30671,0.00482
1275.24654,0.00496
1273.18637,0.00506
1271.12620,0.00509
1269.06602,0.00494
1267.00585,0.00468
1264.94568,0.00464
1262.88551,0.00482
1260.82534,0.00502
1258.76516,0.00505
1256.70499,0.00493
1254.64482,0.00483
1252.58465,0.00481
1250.52447,0.00481
1248.46430,0.00491
1246.40413,0.00516
1244.34396,0.00525
1242.28379,0.00510
1240.22361,0.00498
1238.16344,0.00503
1236.10327,0.00504
1234.04310,0.00478
1231.98293,0.00441
1229.92275,0.00433
1227.86258,0.00448
1225.80241,0.00444
1223.74224,0.00420
1221.68207,0.00413
1219.62189,0.00414
1217.56172,0.00407
1215.50155,0.00410
1213.44138,0.00416
1211.38120,0.00414
1209.32103,0.00416
1207.26086,0.00428
1205.20069,0.00440
1203.14052,0.00434
1201.08034,0.00397
1199.02017,0.00365
1196.96000,0.00374
1194.89983,0.00405
1192.83966,0.00431
1190.77948,0.00464
1188.71931,0.00500
1186.65914,0.00514
1184.59897,0.00521
1182.53880,0.00535
1180.47862,0.00562
1178.41845,0.00622
1176.35828,0.00680
1174.29811,0.00713
1172.23793,0.00751
1170.17776,0.00799
1168.11759,0.00835
1166.05742,0.00840
1163.99725,0.00841
1161.93707,0.00871
1159.87690,0.00918
1157.81673,0.00962
1155.75656,0.01000
1153.69639,0.01041
1151.63621,0.01083
1149.57604,0.01110
1147.51587,0.01124
1145.45570,0.01134
1143.39552,0.01146
1141.33535,0.01166
1139.27518,0.01188
1137.21501,0.01221
1135.15484,0.01267
1133.09466,0.01318
1131.03449,0.01356
1128.97432,0.01384
1126.91415,0.01432
1124.85398,0.01500
1122.79380,0.01558
1120.73363,0.01597
1118.67346,0.01634
1116.61329,0.01679
1114.55312,0.01735
1112.49294,0.01792
1110.43277,0.01830
1108.37260,0.01851
1106.31243,0.01867
1104.25225,0.01897
1102.19208,0.01967
1100.13191,0.02038
1098.07174,0.02087
1096.01157,0.02134
1093.95139,0.02176
1091.89122,0.02208
1089.83105,0.02234
1087.77088,0.02264
1085.71071,0.02314
1083.65053,0.02378
1081.59036,0.02424
1079.53019,0.02424
1077.47002,0.02402
1075.40985,0.02415
1073.34967,0.02459
1071.28950,0.02508
1069.22933,0.02569
1067.16916,0.02620
1065.10898,0.02614
1063.04881,0.02574
1060.98864,0.02553
1058.92847,0.02536
1056.86830,0.02503
1054.80812,0.02458
1052.74795,0.02420
1050.68778,0.02394
1048.62761,0.02338
1046.56744,0.02247
1044.50726,0.02150
1042.44709,0.02063
1040.38692,0.02000
1038.32675,0.01956
1036.26657,0.01905
1034.20640,0.01836
1032.14623,0.01771
1030.08606,0.01723
1028.02589,0.01671
1025.96571,0.01602
1023.90554,0.01527
1021.84537,0.01459
1019.78520,0.01419
1017.72503,0.01419
1015.66485,0.01419
1013.60468,0.01393
1011.54451,0.01353
1009.48434,0.01328
1007.42417,0.01312
1005.36399,0.01304
1003.30382,0.01347
1001.24365,0.01443
999.18348,0.01522
997.12330,0.01537
995.06313,0.01550
993.00296,0.01605
990.94279,0.01660
988.88262,0.01706
986.82244,0.01767
984.76227,0.01790
982.70210,0.01754
980.64193,0.01733
978.58176,0.01765
976.52158,0.01788
974.46141,0.01765
972.40124,0.01735
970.34107,0.01712
968.28089,0.01679
966.22072,0.01640
964.16055,0.01618
962.10038,0.01597
960.04021,0.01531
957.98003,0.01477
955.91986,0.01491
953.85969,0.01491
951.79952,0.01435
949.73935,0.01387
947.67917,0.01367
945.61900,0.01323
943.55883,0.01262
941.49866,0.01223
939.43849,0.01218
937.37831,0.01235
935.31814,0.01238
933.25797,0.01207
931.19780,0.01153
929.13762,0.01107
927.07745,0.01095
925.01728,0.01066
922.95711,0.01008
920.89694,0.00985
918.83676,0.00981
916.77659,0.00968
914.71642,0.00925
912.65625,0.00849
910.59608,0.00828
908.53590,0.00855
906.47573,0.00839
904.41556,0.00817
902.35539,0.00839
900.29522,0.00860
898.23504,0.00864
896.17487,0.00858
894.11470,0.00854
892.05453,0.00887
889.99435,0.00950
887.93418,0.00999
885.87401,0.01001
883.81384,0.00994
881.75367,0.01019
879.69349,0.01073
877.63332,0.01140
875.57315,0.01194
873.51298,0.01237
871.45281,0.01292
869.39263,0.01336
867.33246,0.01355
865.27229,0.01339
863.21212,0.01294
861.15194,0.01250
859.09177,0.01249
857.03160,0.01300
854.97143,0.01382
852.91126,0.01457
850.85108,0.01468
848.79091,0.01408
846.73074,0.01340
844.67057,0.01316
842.61040,0.01289
840.55022,0.01250
838.49005,0.01278
836.42988,0.01335
834.36971,0.01346
832.30954,0.01312
830.24936,0.01245
828.18919,0.01171
826.12902,0.01113
824.06885,0.01058
822.00867,0.00984
819.94850,0.00957
817.88833,0.00973
815.82816,0.00938
813.76799,0.00895
811.70781,0.00920
809.64764,0.00966
807.58747,0.00930
805.52730,0.00846
803.46713,0.00873
801.40695,0.00998
799.34678,0.01045
797.28661,0.00971
795.22644,0.00890
793.16627,0.00848
791.10609,0.00818
789.04592,0.00787
786.98575,0.00716
784.92558,0.00654
782.86540,0.00695
780.80523,0.00781
778.74506,0.00828
776.68489,0.00836
774.62472,0.00853
772.56454,0.00865
770.50437,0.00817
768.44420,0.00778
766.38403,0.00817
764.32386,0.00891
762.26368,0.00910
760.20351,0.00825
758.14334,0.00722
756.08317,0.00741
754.02299,0.00825
751.96282,0.00790
749.90265,0.00675
747.84248,0.00641
745.78231,0.00703
743.72213,0.00796
741.66196,0.00858
739.60179,0.00907
737.54162,0.00931
735.48145,0.00867
733.42127,0.00796
731.36110,0.00775
729.30093,0.00733
727.24076,0.00694
725.18059,0.00735
723.12041,0.00786
721.06024,0.00841
719.00007,0.00738
716.93990,0.00656
714.87972,0.00686
712.81955,0.00714
710.75938,0.00664
708.69921,0.00603
706.63904,0.00616
704.57886,0.00649
702.51869,0.00642
700.45852,0.00634
698.39835,0.00689
696.33818,0.00777
694.27800,0.00797
692.21783,0.00753
690.15766,0.00738
688.09749,0.00750
686.03731,0.00744
683.97714,0.00709
681.91697,0.00695
679.85680,0.00778
677.79663,0.00912
675.73645,0.00958
673.67628,0.00730
671.61611,0.00294
669.55594,0.00679
667.49577,0.01114
665.43559,0.00000
663.37542,0.00092
661.31525,0.00398
659.25508,0.00591
657.19491,0.00686
655.13473,0.00564
653.07456,0.00372
651.01439,0.00424
648.95422,0.00708
646.89404,0.00784
644.83387,0.00547
642.77370,0.00276
640.71353,0.00248
638.65336,0.00396
636.59318,0.00556
634.53301,0.00573
632.47284,0.00389
630.41267,0.00238
628.35250,0.00335
626.29232,0.00485
624.23215,0.00275
622.17198,0.00009
620.11181,0.00060
618.05164,0.00171
615.99146,0.00184
613.93129,0.00155
611.87112,0.00233
609.81095,0.00341
607.75077,0.00238
605.69060,0.00067
603.63043,-0.00059
601.57026,-0.00098
599.51009,0.00000
