3996.73391,0.00009
3994.67373,0.00031
3992.61356,0.00040
3990.55339,0.00012
3988.49322,0.00000
3986.43305,0.00034
3984.37287,0.00078
3982.31270,0.00103
3980.25253,0.00117
3978.19236,0.00144
3976.13219,0.00161
3974.07201,0.00142
3972.01184,0.00129
3969.95167,0.00153
3967.89150,0.00176
3965.83133,0.00151
3963.77115,0.00099
3961.71098,0.00072
3959.65081,0.00065
3957.59064,0.00051
3955.53046,0.00042
3953.47029,0.00050
3951.41012,0.00073
3949.34995,0.00106
3947.28978,0.00147
3945.22960,0.00179
3943.16943,0.00178
3941.10926,0.00155
3939.04909,0.00132
3936.98892,0.00109
3934.92874,0.00100
3932.86857,0.00102
3930.80840,0.00072
3928.74823,0.00026
3926.68805,0.00032
3924.62788,0.00075
3922.56771,0.00100
3920.50754,0.00105
3918.44737,0.00112
3916.38719,0.00100
3914.32702,0.00071
3912.26685,0.00081
3910.20668,0.00134
3908.14651,0.00169
3906.08633,0.00147
3904.02616,0.00100
3901.96599,0.00097
3899.90582,0.00136
3897.84565,0.00153
3895.78547,0.00128
3893.72530,0.00103
3891.66513,0.00104
3889.60496,0.00109
3887.54478,0.00119
3885.48461,0.00145
3883.42444,0.00170
3881.36427,0.00181
3879.30410,0.00163
3877.24392,0.00159
3875.18375,0.00226
3873.12358,0.00313
3871.06341,0.00295
3869.00324,0.00183
3866.94306,0.00113
3864.88289,0.00117
3862.82272,0.00128
3860.76255,0.00133
3858.70237,0.00138
3856.64220,0.00121
3854.58203,0.00056
3852.52186,0.00000
3850.46169,0.00058
3848.40151,0.00164
3846.34134,0.00237
3844.28117,0.00262
3842.22100,0.00240
3840.16083,0.00206
3838.10065,0.00205
3836.04048,0.00201
3833.98031,0.00157
3831.92014,0.00125
3829.85997,0.00153
3827.79979,0.00206
3825.73962,0.00234
3823.67945,0.00222
3821.61928,0.00201
3819.55910,0.00236
3817.49893,0.00287
3815.43876,0.00264
3813.37859,0.00209
3811.31842,0.00195
3809.25824,0.00203
3807.19807,0.00219
3805.13790,0.00262
3803.07773,0.00280
3801.01756,0.00213
3798.95738,0.00134
3796.89721,0.00130
3794.83704,0.00182
3792.77687,0.00236
3790.71670,0.00254
3788.65652,0.00247
3786.59635,0.00242
3784.53618,0.00241
3782.47601,0.00245
3780.41583,0.00244
3778.35566,0.00210
3776.29549,0.00182
3774.23532,0.00212
3772.17515,0.00269
3770.11497,0.00307
3768.05480,0.00323
3765.99463,0.00322
3763.93446,0.00309
3761.87429,0.00311
3759.81411,0.00322
3757.75394,0.00326
3755.69377,0.00332
3753.63360,0.00334
3751.57342,0.00302
3749.51325,0.00238
3747.45308,0.00224
3745.39291,0.00291
3743.33274,0.00367
3741.27256,0.00382
3739.21239,0.00372
3737.15222,0.00374
3735.09205,0.00344
3733.03188,0.00263
3730.97170,0.00206
3728.91153,0.00212
3726.85136,0.00248
3724.79119,0.00282
3722.73102,0.00304
3720.67084,0.00297
3718.61067,0.00264
3716.55050,0.00258
3714.49033,0.00269
3712.43015,0.00220
3710.36998,0.00124
3708.30981,0.00120
3706.24964,0.00223
3704.18947,0.00300
3702.12929,0.00286
3700.06912,0.00238
3698.00895,0.00222
3695.94878,0.00243
3693.88861,0.00259
3691.82843,0.00197
3689.76826,0.00055
3687.70809,0.00000
3685.64792,0.00095
3683.58775,0.00203
3681.52757,0.00275
3679.46740,0.00357
3677.40723,0.00407
3675.34706,0.00364
3673.28688,0.00333
3671.22671,0.00375
3669.16654,0.00377
3667.10637,0.00316
3665.04620,0.00285
3662.98602,0.00323
3660.92585,0.00400
3658.86568,0.00454
3656.80551,0.00447
3654.74534,0.00413
3652.68516,0.00430
3650.62499,0.00506
3648.56482,0.00554
3646.50465,0.00547
3644.44447,0.00542
3642.38430,0.00516
3640.32413,0.00448
3638.26396,0.00396
3636.20379,0.00413
3634.14361,0.00475
3632.08344,0.00513
3630.02327,0.00496
3627.96310,0.00481
3625.90293,0.00509
3623.84275,0.00550
3621.78258,0.00590
3619.72241,0.00630
3617.66224,0.00676
3615.60207,0.00731
3613.54189,0.00764
3611.48172,0.00757
3609.42155,0.00714
3607.36138,0.00651
3605.30120,0.00628
3603.24103,0.00684
3601.18086,0.00779
3599.12069,0.00826
3597.06052,0.00783
3595.00034,0.00711
3592.94017,0.00710
3590.88000,0.00768
3588.81983,0.00805
3586.75966,0.00811
3584.69948,0.00837
3582.63931,0.00865
3580.57914,0.00869
3578.51897,0.00874
3576.45879,0.00886
3574.39862,0.00899
3572.33845,0.00935
3570.27828,0.00999
3568.21811,0.01044
3566.15793,0.01037
3564.09776,0.01018
3562.03759,0.01038
3559.97742,0.01088
3557.91725,0.01146
3555.85707,0.01194
3553.79690,0.01194
3551.73673,0.01152
3549.67656,0.01142
3547.61639,0.01180
3545.55621,0.01193
3543.49604,0.01147
3541.43587,0.01099
3539.37570,0.01100
3537.31552,0.01146
3535.25535,0.01209
3533.19518,0.01266
3531.13501,0.01312
3529.07484,0.01366
3527.01466,0.01416
3524.95449,0.01424
3522.89432,0.01402
3520.83415,0.01393
3518.77398,0.01399
3516.71380,0.01396
3514.65363,0.01385
3512.59346,0.01378
3510.53329,0.01373
3508.47312,0.01389
3506.41294,0.01447
3504.35277,0.01505
3502.29260,0.01533
3500.23243,0.01551
3498.17225,0.01559
3496.11208,0.01565
3494.05191,0.01593
3491.99174,0.01612
3489.93157,0.01593
3487.87139,0.01585
3485.81122,0.01616
3483.75105,0.01641
3481.69088,0.01631
3479.63071,0.01622
3477.57053,0.01639
3475.51036,0.01665
3473.45019,0.01675
3471.39002,0.01673
3469.32984,0.01689
3467.26967,0.01727
3465.20950,0.01741
3463.14933,0.01744
3461.08916,0.01779
3459.02898,0.01813
3456.96881,0.01824
3454.90864,0.01833
3452.84847,0.01825
3450.78830,0.01814
3448.72812,0.01846
3446.66795,0.01880
3444.60778,0.01870
3442.54761,0.01855
3440.48744,0.01875
3438.42726,0.01927
3436.36709,0.01974
3434.30692,0.01988
3432.24675,0.01956
3430.18657,0.01913
3428.12640,0.01917
3426.06623,0.01956
3424.00606,0.01968
3421.94589,0.01931
3419.88571,0.01906
3417.82554,0.01939
3415.76537,0.01974
3413.70520,0.01973
3411.64503,0.01998
3409.58485,0.02049
3407.52468,0.02065
3405.46451,0.02069
3403.40434,0.02098
3401.34416,0.02129
3399.28399,0.02131
3397.22382,0.02129
3395.16365,0.02148
3393.10348,0.02172
3391.04330,0.02182
3388.98313,0.02178
3386.92296,0.02153
3384.86279,0.02116
3382.80262,0.02139
3380.74244,0.02228
3378.68227,0.02283
3376.62210,0.02268
3374.56193,0.02264
3372.50176,0.02310
3370.44158,0.02327
3368.38141,0.02287
3366.32124,0.02261
3364.26107,0.02276
3362.20089,0.02280
3360.14072,0.02260
3358.08055,0.02240
3356.02038,0.02227
3353.96021,0.02240
3351.90003,0.02268
3349.83986,0.02262
3347.77969,0.02222
3345.71952,0.02186
3343.65935,0.02187
3341.59917,0.02217
3339.53900,0.02261
3337.47883,0.02308
3335.41866,0.02327
3333.35849,0.02306
3331.29831,0.02299
3329.23814,0.02338
3327.17797,0.02346
3325.11780,0.02270
3323.05762,0.02197
3320.99745,0.02209
3318.93728,0.02258
3316.87711,0.02278
3314.81694,0.02284
3312.75676,0.02310
3310.69659,0.02334
3308.63642,0.02346
3306.57625,0.02374
3304.51608,0.02382
3302.45590,0.02351
3300.39573,0.02328
3298.33556,0.02307
3296.27539,0.02272
3294.21521,0.02276
3292.15504,0.02310
3290.09487,0.02307
3288.03470,0.02282
3285.97453,0.02292
3283.91435,0.02341
3281.85418,0.02390
3279.79401,0.02408
3277.73384,0.02388
3275.67367,0.02349
3273.61349,0.02323
3271.55332,0.02311
3269.49315,0.02306
3267.43298,0.02329
3265.37281,0.02360
3263.31263,0.02347
3261.25246,0.02303
3259.19229,0.02290
3257.13212,0.02337
3255.07194,0.02404
3253.01177,0.02415
3250.95160,0.02362
3248.89143,0.02321
3246.83126,0.02320
3244.77108,0.02318
3242.71091,0.02300
3240.65074,0.02289
3238.59057,0.02273
3236.53040,0.02253
3234.47022,0.02260
3232.41005,0.02293
3230.34988,0.02318
3228.28971,0.02326
3226.22954,0.02334
3224.16936,0.02328
3222.10919,0.02302
3220.04902,0.02267
3217.98885,0.02235
3215.92867,0.02242
3213.86850,0.02282
3211.80833,0.02296
3209.74816,0.02267
3207.68799,0.02241
3205.62781,0.02234
3203.56764,0.02239
3201.50747,0.02261
3199.44730,0.02270
3197.38713,0.02248
3195.32695,0.02233
3193.26678,0.02250
3191.20661,0.02263
3189.14644,0.02251
3187.08626,0.02248
3185.02609,0.02260
3182.96592,0.02248
3180.90575,0.02223
3178.84558,0.02221
3176.78540,0.02210
3174.72523,0.02177
3172.66506,0.02169
3170.60489,0.02188
3168.54472,0.02201
3166.48454,0.02182
3164.42437,0.02141
3162.36420,0.02116
3160.30403,0.02115
3158.24386,0.02123
3156.18368,0.02135
3154.12351,0.02151
3152.06334,0.02144
3150.00317,0.02105
3147.94299,0.02101
3145.88282,0.02149
3143.82265,0.02176
3141.76248,0.02152
3139.70231,0.02114
3137.64213,0.02079
3135.58196,0.02051
3133.52179,0.02060
3131.46162,0.02098
3129.40145,0.02101
3127.34127,0.02069
3125.28110,0.02046
3123.22093,0.02032
3121.16076,0.02024
3119.10058,0.02031
3117.04041,0.02027
3114.98024,0.02006
3112.92007,0.01987
3110.85990,0.01979
3108.79972,0.01996
3106.73955,0.02015
3104.67938,0.02001
3102.61921,0.01975
3100.55904,0.01965
3098.49886,0.01959
3096.43869,0.01955
3094.37852,0.01974
3092.31835,0.02004
3090.25818,0.01993
3088.19800,0.01944
3086.13783,0.01898
3084.07766,0.01871
3082.01749,0.01877
3079.95731,0.01908
3077.89714,0.01917
3075.83697,0.01877
3073.77680,0.01832
3071.71663,0.01840
3069.65645,0.01884
3067.59628,0.01901
3065.53611,0.01882
3063.47594,0.01859
3061.41577,0.01863
3059.35559,0.01879
3057.29542,0.01865
3055.23525,0.01809
3053.17508,0.01760
3051.11491,0.01758
3049.05473,0.01783
3046.99456,0.01782
3044.93439,0.01755
3042.87422,0.01750
3040.81404,0.01765
3038.75387,0.01764
3036.69370,0.01748
3034.63353,0.01721
3032.57336,0.01689
3030.51318,0.01652
3028.45301,0.01623
3026.39284,0.01633
3024.33267,0.01671
3022.27250,0.01693
3020.21232,0.01699
3018.15215,0.01705
3016.09198,0.01704
3014.03181,0.01695
3011.97163,0.01688
3009.91146,0.01680
3007.85129,0.01662
3005.79112,0.01628
3003.73095,0.01599
3001.67077,0.01591
2999.61060,0.01603
2997.55043,0.01619
2995.49026,0.01614
2993.43009,0.01600
2991.36991,0.01571
2989.30974,0.01537
2987.24957,0.01532
2985.18940,0.01537
2983.12923,0.01537
2981.06905,0.01545
2979.00888,0.01547
2976.94871,0.01541
2974.88854,0.01548
2972.82836,0.01566
2970.76819,0.01595
2968.70802,0.01631
2966.64785,0.01636
2964.58768,0.01584
2962.52750,0.01534
2960.46733,0.01526
2958.40716,0.01519
2956.34699,0.01499
2954.28682,0.01524
2952.22664,0.01588
2950.16647,0.01598
2948.10630,0.01562
2946.04613,0.01559
2943.98596,0.01577
2941.92578,0.01584
2939.86561,0.01596
2937.80544,0.01597
2935.74527,0.01576
2933.68509,0.01581
2931.62492,0.01620
2929.56475,0.01633
2927.50458,0.01622
2925.44441,0.01612
2923.38423,0.01591
2921.32406,0.01578
2919.26389,0.01605
2917.20372,0.01627
2915.14355,0.01601
2913.08337,0.01575
2911.02320,0.01575
2908.96303,0.01570
2906.90286,0.01531
2904.84268,0.01476
2902.78251,0.01463
2900.72234,0.01488
2898.66217,0.01498
2896.60200,0.01480
2894.54182,0.01460
2892.48165,0.01450
2890.42148,0.01432
2888.36131,0.01395
2886.30114,0.01377
2884.24096,0.01416
2882.18079,0.01466
2880.12062,0.01470
2878.06045,0.01443
2876.00028,0.01429
2873.94010,0.01427
2871.87993,0.01416
2869.81976,0.01410
2867.75959,0.01413
2865.69941,0.01415
2863.63924,0.01422
2861.57907,0.01421
2859.51890,0.01393
2857.45873,0.01347
2855.39855,0.01319
2853.33838,0.01307
2851.27821,0.01299
2849.21804,0.01311
2847.15787,0.01307
2845.09769,0.01269
2843.03752,0.01253
2840.97735,0.01273
2838.91718,0.01280
2836.85700,0.01254
2834.79683,0.01244
2832.73666,0.01253
2830.67649,0.01238
2828.61632,0.01211
2826.55614,0.01192
2824.49597,0.01174
2822.43580,0.01174
2820.37563,0.01171
2818.31546,0.01137
2816.25528,0.01113
2814.19511,0.01114
2812.13494,0.01119
2810.07477,0.01125
2808.01460,0.01117
2805.95442,0.01109
2803.89425,0.01128
2801.83408,0.01137
2799.77391,0.01113
2797.71373,0.01101
2795.65356,0.01109
2793.59339,0.01103
2791.53322,0.01083
2789.47305,0.01071
2787.41287,0.01074
2785.35270,0.01081
2783.29253,0.01074
2781.23236,0.01059
2779.17219,0.01045
2777.11201,0.01037
2775.05184,0.01045
2772.99167,0.01065
2770.93150,0.01063
2768.87133,0.01032
2766.81115,0.01002
2764.75098,0.00987
2762.69081,0.00976
2760.63064,0.00966
2758.57046,0.00952
2756.51029,0.00939
2754.45012,0.00950
2752.38995,0.00975
2750.32978,0.00979
2748.26960,0.00967
2746.20943,0.00973
2744.14926,0.00990
2742.08909,0.00985
2740.02892,0.00960
2737.96874,0.00942
2735.90857,0.00953
2733.84840,0.00977
2731.78823,0.00983
2729.72805,0.00972
2727.66788,0.00946
2725.60771,0.00896
2723.54754,0.00852
2721.48737,0.00848
2719.42719,0.00879
2717.36702,0.00913
2715.30685,0.00932
2713.24668,0.00917
2711.18651,0.00864
2709.12633,0.00830
2707.06616,0.00855
2705.00599,0.00897
2702.94582,0.00905
2700.88565,0.00881
2698.82547,0.00837
2696.76530,0.00792
2694.70513,0.00765
2692.64496,0.00761
2690.58478,0.00779
2688.52461,0.00799
2686.46444,0.00803
2684.40427,0.00803
2682.34410,0.00806
2680.28392,0.00800
2678.22375,0.00783
2676.16358,0.00768
2674.10341,0.00776
2672.04324,0.00780
2669.98306,0.00747
2667.92289,0.00729
2665.86272,0.00752
2663.80255,0.00768
2661.74238,0.00767
2659.68220,0.00779
2657.62203,0.00790
2655.56186,0.00774
2653.50169,0.00769
2651.44151,0.00794
2649.38134,0.00792
2647.32117,0.00763
2645.26100,0.00751
2643.20083,0.00748
2641.14065,0.00735
2639.08048,0.00728
2637.02031,0.00744
2634.96014,0.00774
2632.89997,0.00771
2630.83979,0.00745
2628.77962,0.00742
2626.71945,0.00732
2624.65928,0.00693
2622.59910,0.00672
2620.53893,0.00676
2618.47876,0.00691
2616.41859,0.00704
2614.35842,0.00693
2612.29824,0.00656
2610.23807,0.00630
2608.17790,0.00649
2606.11773,0.00702
2604.05756,0.00711
2601.99738,0.00676
2599.93721,0.00671
2597.87704,0.00709
2595.81687,0.00734
2593.75670,0.00723
2591.69652,0.00722
2589.63635,0.00732
2587.57618,0.00707
2585.51601,0.00671
2583.45583,0.00654
2581.39566,0.00648
2579.33549,0.00641
2577.27532,0.00632
2575.21515,0.00613
2573.15497,0.00609
2571.09480,0.00646
2569.03463,0.00688
2566.97446,0.00694
2564.91429,0.00676
2562.85411,0.00657
2560.79394,0.00650
2558.73377,0.00642
2556.67360,0.00646
2554.61342,0.00673
2552.55325,0.00676
2550.49308,0.00634
2548.43291,0.00589
2546.37274,0.00562
2544.31256,0.00565
2542.25239,0.00588
2540.19222,0.00620
2538.13205,0.00683
2536.07188,0.00695
2534.01170,0.00618
2531.95153,0.00583
2529.89136,0.00634
2527.83119,0.00688
2525.77102,0.00698
2523.71084,0.00685
2521.65067,0.00675
2519.59050,0.00657
2517.53033,0.00633
2515.47015,0.00640
2513.40998,0.00676
2511.34981,0.00694
2509.28964,0.00693
2507.22947,0.00696
2505.16929,0.00704
2503.10912,0.00718
2501.04895,0.00729
2498.98878,0.00733
2496.92861,0.00731
2494.86843,0.00714
2492.80826,0.00703
2490.74809,0.00689
2488.68792,0.00661
2486.62775,0.00653
2484.56757,0.00638
2482.50740,0.00617
2480.44723,0.00657
2478.38706,0.00694
2476.32688,0.00686
2474.26671,0.00672
2472.20654,0.00655
2470.14637,0.00673
2468.08620,0.00735
2466.02602,0.00766
2463.96585,0.00731
2461.90568,0.00686
2459.84551,0.00687
2457.78534,0.00726
2455.72516,0.00749
2453.66499,0.00727
2451.60482,0.00701
2449.54465,0.00712
2447.48447,0.00753
2445.42430,0.00797
2443.36413,0.00824
2441.30396,0.00838
2439.24379,0.00837
2437.18361,0.00815
2435.12344,0.00771
2433.06327,0.00717
2431.00310,0.00704
2428.94293,0.00711
2426.88275,0.00683
2424.82258,0.00656
2422.76241,0.00667
2420.70224,0.00692
2418.64207,0.00690
2416.58189,0.00656
2414.52172,0.00648
2412.46155,0.00691
2410.40138,0.00714
2408.34120,0.00690
2406.28103,0.00681
2404.22086,0.00699
2402.16069,0.00710
2400.10052,0.00713
2398.04034,0.00701
2395.98017,0.00681
2393.92000,0.00660
2391.85983,0.00655
2389.79966,0.00653
2387.73948,0.00642
2385.67931,0.00658
2383.61914,0.00724
2381.55897,0.00801
2379.49880,0.00830
2377.43862,0.00753
2375.37845,0.00567
2373.31828,0.00427
2371.25811,0.00515
2369.19793,0.00715
2367.13776,0.00690
2365.07759,0.00412
2363.01742,0.00254
2360.95725,0.00388
2358.89707,0.00525
2356.83690,0.00546
2354.77673,0.00607
2352.71656,0.00689
2350.65639,0.00719
2348.59621,0.00721
2346.53604,0.00695
2344.47587,0.00597
2342.41570,0.00472
2340.35552,0.00456
2338.29535,0.00543
2336.23518,0.00616
2334.17501,0.00661
2332.11484,0.00702
2330.05466,0.00754
2327.99449,0.00841
2325.93432,0.00910
2323.87415,0.00914
2321.81398,0.00868
2319.75380,0.00786
2317.69363,0.00716
2315.63346,0.00742
2313.57329,0.00853
2311.51312,0.00917
2309.45294,0.00864
2307.39277,0.00777
2305.33260,0.00747
2303.27243,0.00742
2301.21225,0.00701
2299.15208,0.00637
2297.09191,0.00600
2295.03174,0.00598
2292.97157,0.00600
2290.91139,0.00640
2288.85122,0.00724
2286.79105,0.00755
2284.73088,0.00693
2282.67071,0.00619
2280.61053,0.00600
2278.55036,0.00629
2276.49019,0.00659
2274.43002,0.00648
2272.36984,0.00595
2270.30967,0.00549
2268.24950,0.00545
2266.18933,0.00594
2264.12916,0.00657
2262.06898,0.00671
2260.00881,0.00648
2257.94864,0.00634
2255.88847,0.00614
2253.82830,0.00602
2251.76812,0.00644
2249.70795,0.00669
2247.64778,0.00595
2245.58761,0.00484
2243.52744,0.00414
2241.46726,0.00413
2239.40709,0.00450
2237.34692,0.00470
2235.28675,0.00465
2233.22657,0.00487
2231.16640,0.00522
2229.10623,0.00514
2227.04606,0.00458
2224.98589,0.00408
2222.92571,0.00444
2220.86554,0.00547
2218.80537,0.00595
2216.74520,0.00573
2214.68503,0.00537
2212.62485,0.00440
2210.56468,0.00328
2208.50451,0.00369
2206.44434,0.00508
2204.38417,0.00502
2202.32399,0.00420
2200.26382,0.00476
2198.20365,0.00486
2196.14348,0.00346
2194.08330,0.00284
2192.02313,0.00271
2189.96296,0.00284
2187.90279,0.00425
2185.84262,0.00518
2183.78244,0.00459
2181.72227,0.00350
2179.66210,0.00249
2177.60193,0.00269
2175.54176,0.00377
2173.48158,0.00355
2171.42141,0.00298
2169.36124,0.00365
2167.30107,0.00429
2165.24089,0.00505
2163.18072,0.00583
2161.12055,0.00459
2159.06038,0.00347
2157.00021,0.00483
2154.94003,0.00583
2152.87986,0.00497
2150.81969,0.00368
2148.75952,0.00276
2146.69935,0.00203
2144.63917,0.00225
2142.57900,0.00298
2140.51883,0.00309
2138.45866,0.00317
2136.39849,0.00249
2134.33831,0.00110
2132.27814,0.00146
2130.21797,0.00301
2128.15780,0.00389
2126.09762,0.00419
2124.03745,0.00421
2121.97728,0.00434
2119.91711,0.00483
2117.85694,0.00522
2115.79676,0.00479
2113.73659,0.00341
2111.67642,0.00236
2109.61625,0.00208
2107.55608,0.00204
2105.49590,0.00256
2103.43573,0.00334
2101.37556,0.00342
2099.31539,0.00263
2097.25521,0.00183
2095.19504,0.00178
2093.13487,0.00215
2091.07470,0.00259
2089.01453,0.00320
2086.95435,0.00387
2084.89418,0.00450
2082.83401,0.00497
2080.77384,0.00496
2078.71367,0.00439
2076.65349,0.00382
2074.59332,0.00387
2072.53315,0.00370
2070.47298,0.00262
2068.41281,0.00192
2066.35263,0.00260
2064.29246,0.00331
2062.23229,0.00289
2060.17212,0.00209
2058.11194,0.00196
2056.05177,0.00273
2053.99160,0.00320
2051.93143,0.00344
2049.87126,0.00450
2047.81108,0.00510
2045.75091,0.00448
2043.69074,0.00360
2041.63057,0.00314
2039.57040,0.00341
2037.51022,0.00433
2035.45005,0.00496
2033.38988,0.00424
2031.32971,0.00277
2029.26954,0.00178
2027.20936,0.00158
2025.14919,0.00265
2023.08902,0.00447
2021.02885,0.00537
2018.96867,0.00422
2016.90850,0.00174
2014.84833,0.00037
2012.78816,0.00085
2010.72799,0.00184
2008.66781,0.00270
2006.60764,0.00336
2004.54747,0.00324
2002.48730,0.00344
2000.42713,0.00519
1998.36695,0.00640
1996.30678,0.00566
1994.24661,0.00466
1992.18644,0.00433
1990.12626,0.00377
1988.06609,0.00304
1986.00592,0.00321
1983.94575,0.00415
1981.88558,0.00420
1979.82540,0.00236
1977.76523,0.00022
1975.70506,0.00000
1973.64489,0.00092
1971.58472,0.00113
1969.52454,0.00094
1967.46437,0.00125
1965.40420,0.00197
1963.34403,0.00315
1961.28386,0.00402
1959.22368,0.00375
1957.16351,0.00354
1955.10334,0.00400
1953.04317,0.00418
1950.98299,0.00366
1948.92282,0.00290
1946.86265,0.00233
1944.80248,0.00215
1942.74231,0.00268
1940.68213,0.00330
1938.62196,0.00336
1936.56179,0.00354
1934.50162,0.00367
1932.44145,0.00321
1930.38127,0.00294
1928.32110,0.00315
1926.26093,0.00326
1924.20076,0.00317
1922.14059,0.00324
1920.08041,0.00345
1918.02024,0.00358
1915.96007,0.00372
1913.89990,0.00369
1911.83972,0.00319
1909.77955,0.00250
1907.71938,0.00189
1905.65921,0.00163
1903.59904,0.00215
1901.53886,0.00296
1899.47869,0.00334
1897.41852,0.00341
1895.35835,0.00350
1893.29818,0.00353
1891.23800,0.00341
1889.17783,0.00351
1887.11766,0.00396
1885.05749,0.00436
1882.99731,0.00445
1880.93714,0.00441
1878.87697,0.00432
1876.81680,0.00407
1874.75663,0.00381
1872.69645,0.00387
1870.63628,0.00410
1868.57611,0.00402
1866.51594,0.00378
1864.45577,0.00373
1862.39559,0.00353
1860.33542,0.00300
1858.27525,0.00263
1856.21508,0.00260
1854.15491,0.00284
1852.09473,0.00326
1850.03456,0.00351
1847.97439,0.00348
1845.91422,0.00347
1843.85404,0.00353
1841.79387,0.00362
1839.73370,0.00368
1837.67353,0.00368
1835.61336,0.00377
1833.55318,0.00391
1831.49301,0.00390
1829.43284,0.00378
1827.37267,0.00390
1825.31250,0.00417
1823.25232,0.00417
1821.19215,0.00396
1819.13198,0.00390
1817.07181,0.00399
1815.01163,0.00414
1812.95146,0.00428
1810.89129,0.00431
1808.83112,0.00431
1806.77095,0.00431
1804.71077,0.00416
1802.65060,0.00393
1800.59043,0.00389
1798.53026,0.00393
1796.47009,0.00392
1794.40991,0.00396
1792.34974,0.00407
1790.28957,0.00421
1788.22940,0.00439
1786.16923,0.00461
1784.10905,0.00478
1782.04888,0.00475
1779.98871,0.00452
1777.92854,0.00425
1775.86836,0.00424
1773.80819,0.00456
1771.74802,0.00494
1769.68785,0.00506
1767.62768,0.00506
1765.56750,0.00512
1763.50733,0.00499
1761.44716,0.00466
1759.38699,0.00462
1757.32682,0.00497
1755.26664,0.00541
1753.20647,0.00567
1751.14630,0.00585
1749.08613,0.00603
1747.02596,0.00607
1744.96578,0.00597
1742.90561,0.00576
1740.84544,0.00551
1738.78527,0.00559
1736.72509,0.00617
1734.66492,0.00664
1732.60475,0.00644
1730.54458,0.00598
1728.48441,0.00572
1726.42423,0.00569
1724.36406,0.00587
1722.30389,0.00603
1720.24372,0.00600
1718.18355,0.00606
1716.12337,0.00643
1714.06320,0.00668
1712.00303,0.00654
1709.94286,0.00638
1707.88268,0.00652
1705.82251,0.00688
1703.76234,0.00714
1701.70217,0.00723
1699.64200,0.00742
1697.58182,0.00773
1695.52165,0.00786
1693.46148,0.00789
1691.40131,0.00814
1689.34114,0.00867
1687.28096,0.00916
1685.22079,0.00945
1683.16062,0.00982
1681.10045,0.01044
1679.04028,0.01111
1676.98010,0.01158
1674.91993,0.01180
1672.85976,0.01197
1670.79959,0.01233
1668.73941,0.01280
1666.67924,0.01322
1664.61907,0.01350
1662.55890,0.01358
1660.49873,0.01354
1658.43855,0.01367
1656.37838,0.01395
1654.31821,0.01414
1652.25804,0.01419
1650.19787,0.01432
1648.13769,0.01432
1646.07752,0.01412
1644.01735,0.01387
1641.95718,0.01361
1639.89701,0.01349
1637.83683,0.01366
1635.77666,0.01372
1633.71649,0.01331
1631.65632,0.01284
1629.59614,0.01249
1627.53597,0.01228
1625.47580,0.01224
1623.41563,0.01216
1621.35546,0.01178
1619.29528,0.01133
1617.23511,0.01093
1615.17494,0.01053
1613.11477,0.01027
1611.05460,0.01011
1608.99442,0.00992
1606.93425,0.00972
1604.87408,0.00952
1602.81391,0.00929
1600.75373,0.00904
1598.69356,0.00887
1596.63339,0.00884
1594.57322,0.00876
1592.51305,0.00853
1590.45287,0.00837
1588.39270,0.00829
1586.33253,0.00812
1584.27236,0.00791
1582.21219,0.00779
1580.15201,0.00778
1578.09184,0.00774
1576.03167,0.00757
1573.97150,0.00743
1571.91133,0.00739
1569.85115,0.00740
1567.79098,0.00736
1565.73081,0.00723
1563.67064,0.00708
1561.61046,0.00696
1559.55029,0.00683
1557.49012,0.00683
1555.42995,0.00704
1553.36978,0.00721
1551.30960,0.00731
1549.24943,0.00732
1547.18926,0.00725
1545.12909,0.00723
1543.06892,0.00729
1541.00874,0.00734
1538.94857,0.00712
1536.88840,0.00682
1534.82823,0.00666
1532.76805,0.00646
1530.70788,0.00615
1528.64771,0.00588
1526.58754,0.00562
1524.52737,0.00540
1522.46719,0.00544
1520.40702,0.00546
1518.34685,0.00518
1516.28668,0.00493
1514.22651,0.00489
1512.16633,0.00500
1510.10616,0.00521
1508.04599,0.00506
1505.98582,0.00427
1503.92565,0.00377
1501.86547,0.00387
1499.80530,0.00405
1497.74513,0.00400
1495.68496,0.00391
1493.62478,0.00400
1491.56461,0.00408
1489.50444,0.00396
1487.44427,0.00371
1485.38410,0.00364
1483.32392,0.00379
1481.26375,0.00398
1479.20358,0.00413
1477.14341,0.00443
1475.08324,0.00480
1473.02306,0.00476
1470.96289,0.00434
1468.90272,0.00403
1466.84255,0.00409
1464.78238,0.00437
1462.72220,0.00457
1460.66203,0.00465
1458.60186,0.00481
1456.54169,0.00487
1454.48151,0.00464
1452.42134,0.00438
1450.36117,0.00434
1448.30100,0.00455
1446.24083,0.00476
1444.18065,0.00467
1442.12048,0.00434
1440.06031,0.00417
1438.00014,0.00429
1435.93997,0.00446
1433.87979,0.00452
1431.81962,0.00460
1429.75945,0.00476
1427.69928,0.00496
1425.63910,0.00525
1423.57893,0.00559
1421.51876,0.00580
1419.45859,0.00583
1417.39842,0.00580
1415.33824,0.00584
1413.27807,0.00589
1411.21790,0.00581
1409.15773,0.00566
1407.09756,0.00555
1405.03738,0.00548
1402.97721,0.00551
1400.91704,0.00580
1398.85687,0.00609
1396.79670,0.00607
1394.73652,0.00584
1392.67635,0.00564
1390.61618,0.00554
1388.55601,0.00553
1386.49583,0.00561
1384.43566,0.00570
1382.37549,0.00565
1380.31532,0.00557
1378.25515,0.00574
1376.19497,0.00608
1374.13480,0.00620
1372.07463,0.00608
1370.01446,0.00596
1367.95429,0.00595
1365.89411,0.00601
1363.83394,0.00608
1361.77377,0.00604
1359.71360,0.00583
1357.65343,0.00563
1355.59325,0.00547
1353.53308,0.00527
1351.47291,0.00506
1349.41274,0.00497
1347.35256,0.00501
1345.29239,0.00508
1343.23222,0.00501
1341.17205,0.00485
1339.11188,0.00468
1337.05170,0.00450
1334.99153,0.00431
1332.93136,0.00417
1330.87119,0.00419
1328.81102,0.00428
1326.75084,0.00426
1324.69067,0.00408
1322.63050,0.00398
1320.57033,0.00408
1318.51015,0.00421
1316.44998,0.00419
1314.38981,0.00406
1312.32964,0.00390
1310.26947,0.00364
1308.20929,0.00341
1306.14912,0.00340
1304.08895,0.00355
1302.02878,0.00364
1299.96861,0.00354
1297.90843,0.00357
1295.84826,0.00382
1293.78809,0.00392
1291.72792,0.00381
1289.66775,0.00382
1287.60757,0.00378
1285.54740,0.00342
1283.48723,0.00309
1281.42706,0.00320
1279.36688,0.00355
1277.30671,0.00380
1275.24654,0.00387
1273.18637,0.00389
1271.12620,0.00385
1269.06602,0.00353
1267.00585,0.00307
1264.94568,0.00298
1262.88551,0.00326
1260.82534,0.00347
1258.76516,0.00343
1256.70499,0.00329
1254.64482,0.00321
1252.58465,0.00328
1250.52447,0.00342
1248.46430,0.00348
1246.40413,0.00342
1244.34396,0.00316
1242.28379,0.00292
1240.22361,0.00303
1238.16344,0.00331
1236.10327,0.00339
1234.04310,0.00323
1231.98293,0.00299
1229.92275,0.00274
1227.86258,0.00248
1225.80241,0.00223
1223.74224,0.00205
1221.68207,0.00205
1219.62189,0.00211
1217.56172,0.00209
1215.50155,0.00215
1213.44138,0.00213
1211.38120,0.00183
1209.32103,0.00171
1207.26086,0.00194
1205.20069,0.00218
1203.14052,0.00222
1201.08034,0.00210
1199.02017,0.00197
1196.96000,0.00208
1194.89983,0.00240
1192.83966,0.00277
1190.77948,0.00334
1188.71931,0.00405
1186.65914,0.00450
1184.59897,0.00472
1182.53880,0.00505
1180.47862,0.00567
1178.41845,0.00645
1176.35828,0.00717
1174.29811,0.00794
1172.23793,0.00878
1170.17776,0.00944
1168.11759,0.00982
1166.05742,0.01006
1163.99725,0.01040
1161.93707,0.01098
1159.87690,0.01170
1157.81673,0.01238
1155.75656,0.01284
1153.69639,0.01325
1151.63621,0.01393
1149.57604,0.01459
1147.51587,0.01490
1145.45570,0.01506
1143.39552,0.01541
1141.33535,0.01576
1139.27518,0.01608
1137.21501,0.01662
1135.15484,0.01721
1133.09466,0.01760
1131.03449,0.01786
1128.97432,0.01829
1126.91415,0.01884
1124.85398,0.01939
1122.79380,0.02001
1120.73363,0.02058
1118.67346,0.02115
1116.61329,0.02199
1114.55312,0.02297
1112.49294,0.02380
1110.43277,0.02442
1108.37260,0.02497
1106.31243,0.02547
1104.25225,0.02590
1102.19208,0.02651
1100.13191,0.02727
1098.07174,0.02798
1096.01157,0.02873
1093.95139,0.02945
1091.89122,0.03007
1089.83105,0.03073
1087.77088,0.03132
1085.71071,0.03182
1083.65053,0.03246
1081.59036,0.03305
1079.53019,0.03336
1077.47002,0.03385
1075.40985,0.03467
1073.34967,0.03523
1071.28950,0.03538
1069.22933,0.03544
1067.16916,0.03558
1065.10898,0.03558
1063.04881,0.03523
1060.98864,0.03489
1058.92847,0.03451
1056.86830,0.03389
1054.80812,0.03320
1052.74795,0.03259
1050.68778,0.03202
1048.62761,0.03122
1046.56744,0.03009
1044.50726,0.02888
1042.44709,0.02780
1040.38692,0.02695
1038.32675,0.02623
1036.26657,0.02528
1034.20640,0.02394
1032.14623,0.02264
1030.08606,0.02171
1028.02589,0.02121
1025.96571,0.02079
1023.90554,0.01976
1021.84537,0.01854
1019.78520,0.01791
1017.72503,0.01753
1015.66485,0.01697
1013.60468,0.01643
1011.54451,0.01612
1009.48434,0.01615
1007.42417,0.01638
1005.36399,0.01667
1003.30382,0.01730
1001.24365,0.01809
999.18348,0.01857
997.12330,0.01896
995.06313,0.01953
993.00296,0.02001
990.94279,0.02032
988.88262,0.02084
986.82244,0.02148
984.76227,0.02163
982.70210,0.02148
980.64193,0.02168
978.58176,0.02205
976.52158,0.02212
974.46141,0.02179
972.40124,0.02132
970.34107,0.02091
968.28089,0.02049
966.22072,0.01994
964.16055,0.01950
962.10038,0.01949
960.04021,0.01953
957.98003,0.01927
955.91986,0.01896
953.85969,0.01857
951.79952,0.01795
949.73935,0.01746
947.67917,0.01717
945.61900,0.01668
943.55883,0.01586
941.49866,0.01507
939.43849,0.01476
937.37831,0.01480
935.31814,0.01462
933.25797,0.01410
931.19780,0.01345
929.13762,0.01271
927.07745,0.01225
925.01728,0.01214
922.95711,0.01191
920.89694,0.01122
918.83676,0.01030
916.77659,0.00981
914.71642,0.00952
912.65625,0.00891
910.59608,0.00844
908.53590,0.00838
906.47573,0.00837
904.41556,0.00856
902.35539,0.00906
900.29522,0.00920
898.23504,0.00884
896.17487,0.00845
894.11470,0.00829
892.05453,0.00848
889.99435,0.00904
887.93418,0.00951
885.87401,0.00967
883.81384,0.00972
881.75367,0.01009
879.69349,0.01114
877.63332,0.01222
875.57315,0.01253
873.51298,0.01271
871.45281,0.01367
869.39263,0.01509
867.33246,0.01643
865.27229,0.01725
863.21212,0.01713
861.15194,0.01653
859.09177,0.01619
857.03160,0.01659
854.97143,0.01757
852.91126,0.01818
850.85108,0.01822
848.79091,0.01822
846.73074,0.01774
844.67057,0.01689
842.61040,0.01627
840.55022,0.01559
838.49005,0.01528
836.42988,0.01560
834.36971,0.01602
832.30954,0.01574
830.24936,0.01419
828.18919,0.01259
826.12902,0.01207
824.06885,0.01179
822.00867,0.01104
819.94850,0.01055
817.88833,0.01041
815.82816,0.00980
813.76799,0.00901
811.70781,0.00897
809.64764,0.00941
807.58747,0.00925
805.52730,0.00884
803.46713,0.00906
801.40695,0.00944
799.34678,0.00914
797.28661,0.00820
795.22644,0.00761
793.16627,0.00774
791.10609,0.00764
789.04592,0.00734
786.98575,0.00750
784.92558,0.00772
782.86540,0.00729
780.80523,0.00666
778.74506,0.00679
776.68489,0.00728
774.62472,0.00712
772.56454,0.00642
770.50437,0.00600
768.44420,0.00606
766.38403,0.00619
764.32386,0.00641
762.26368,0.00702
760.20351,0.00714
758.14334,0.00614
756.08317,0.00536
754.02299,0.00531
751.96282,0.00511
749.90265,0.00483
747.84248,0.00469
745.78231,0.00445
743.72213,0.00459
741.66196,0.00550
739.60179,0.00609
737.54162,0.00565
735.48145,0.00499
733.42127,0.00525
731.36110,0.00627
729.30093,0.00651
727.24076,0.00625
725.18059,0.00641
723.12041,0.00615
721.06024,0.00498
719.00007,0.00389
716.93990,0.00375
714.87972,0.00413
712.81955,0.00463
710.75938,0.00524
708.69921,0.00567
706.63904,0.00554
704.57886,0.00478
702.51869,0.00401
700.45852,0.00405
698.39835,0.00466
696.33818,0.00506
694.27800,0.00505
692.21783,0.00496
690.15766,0.00532
688.09749,0.00636
686.03731,0.00749
683.97714,0.00782
681.91697,0.00728
679.85680,0.00676
677.79663,0.00669
675.73645,0.00652
673.67628,0.00578
671.61611,0.00432
669.55594,0.00259
667.49577,0.00187
665.43559,0.00204
663.37542,0.00256
661.31525,0.00384
659.25508,0.00521
657.19491,0.00521
655.13473,0.00444
653.07456,0.00415
651.01439,0.00441
648.95422,0.00465
646.89404,0.00420
644.83387,0.00300
642.77370,0.00242
640.71353,0.00350
638.65336,0.00472
636.59318,0.00447
634.53301,0.00333
632.47284,0.00244
630.41267,0.00295
628.35250,0.00552
626.29232,0.00824
624.23215,0.00770
622.17198,0.00706
620.11181,0.00778
618.05164,0.00709
615.99146,0.00607
613.93129,0.00554
611.87112,0.00491
609.81095,0.00331
607.75077,0.00053
605.69060,0.00000
603.63043,0.00056
601.57026,-0.00003
599.51009,0.00000
