3996.73391,-0.00023
3994.67373,-0.00038
3992.61356,-0.00037
3990.55339,-0.00006
3988.49322,0.00021
3986.43305,0.00027
3984.37287,0.00026
3982.31270,0.00022
3980.25253,0.00011
3978.19236,0.00002
3976.13219,0.00001
3974.07201,0.00011
3972.01184,0.00022
3969.95167,0.00029
3967.89150,0.00048
3965.83133,0.00070
3963.77115,0.00068
3961.71098,0.00046
3959.65081,0.00037
3957.59064,0.00047
3955.53046,0.00071
3953.47029,0.00093
3951.41012,0.00082
3949.34995,0.00034
3947.28978,0.00000
3945.22960,0.00009
3943.16943,0.00029
3941.10926,0.00035
3939.04909,0.00039
3936.98892,0.00039
3934.92874,0.00019
3932.86857,0.00014
3930.80840,0.00050
3928.74823,0.00092
3926.68805,0.00108
3924.62788,0.00100
3922.56771,0.00067
3920.50754,0.00030
3918.44737,0.00021
3916.38719,0.00062
3914.32702,0.00121
3912.26685,0.00152
3910.20668,0.00144
3908.14651,0.00118
3906.08633,0.00085
3904.02616,0.00051
3901.96599,0.00045
3899.90582,0.00084
3897.84565,0.00113
3895.78547,0.00094
3893.72530,0.00066
3891.66513,0.00077
3889.60496,0.00109
3887.54478,0.00117
3885.48461,0.00107
3883.42444,0.00093
3881.36427,0.00104
3879.30410,0.00136
3877.24392,0.00137
3875.18375,0.00115
3873.12358,0.00099
3871.06341,0.00098
3869.00324,0.00115
3866.94306,0.00113
3864.88289,0.00098
3862.82272,0.00116
3860.76255,0.00145
3858.70237,0.00119
3856.64220,0.00031
3854.58203,0.00000
3852.52186,0.00103
3850.46169,0.00204
3848.40151,0.00197
3846.34134,0.00154
3844.28117,0.00126
3842.22100,0.00113
3840.16083,0.00095
3838.10065,0.00083
3836.04048,0.00111
3833.98031,0.00164
3831.92014,0.00220
3829.85997,0.00261
3827.79979,0.00260
3825.73962,0.00221
3823.67945,0.00184
3821.61928,0.00183
3819.55910,0.00193
3817.49893,0.00198
3815.43876,0.00215
3813.37859,0.00228
3811.31842,0.00217
3809.25824,0.00191
3807.19807,0.00166
3805.13790,0.00162
3803.07773,0.00190
3801.01756,0.00230
3798.95738,0.00241
3796.89721,0.00239
3794.83704,0.00259
3792.77687,0.00274
3790.71670,0.00271
3788.65652,0.00272
3786.59635,0.00282
3784.53618,0.00292
3782.47601,0.00294
3780.41583,0.00297
3778.35566,0.00304
3776.29549,0.00306
3774.23532,0.00287
3772.17515,0.00256
3770.11497,0.00233
3768.05480,0.00216
3765.99463,0.00198
3763.93446,0.00195
3761.87429,0.00205
3759.81411,0.00208
3757.75394,0.00184
3755.69377,0.00136
3753.63360,0.00077
3751.57342,0.00032
3749.51325,0.00028
3747.45308,0.00038
3745.39291,0.00022
3743.33274,0.00033
3741.27256,0.00065
3739.21239,0.00070
3737.15222,0.00071
3735.09205,0.00088
3733.03188,0.00113
3730.97170,0.00124
3728.91153,0.00107
3726.85136,0.00088
3724.79119,0.00106
3722.73102,0.00162
3720.67084,0.00209
3718.61067,0.00209
3716.55050,0.00178
3714.49033,0.00160
3712.43015,0.00185
3710.36998,0.00242
3708.30981,0.00285
3706.24964,0.00290
3704.18947,0.00270
3702.12929,0.00248
3700.06912,0.00226
3698.00895,0.00219
3695.94878,0.00234
3693.88861,0.00256
3691.82843,0.00288
3689.76826,0.00345
3687.70809,0.00402
3685.64792,0.00414
3683.58775,0.00388
3681.52757,0.00339
3679.46740,0.00271
3677.40723,0.00243
3675.34706,0.00315
3673.28688,0.00391
3671.22671,0.00418
3669.16654,0.00457
3667.10637,0.00480
3665.04620,0.00465
3662.98602,0.00452
3660.92585,0.00453
3658.86568,0.00463
3656.80551,0.00491
3654.74534,0.00518
3652.68516,0.00514
3650.62499,0.00511
3648.56482,0.00562
3646.50465,0.00653
3644.44447,0.00694
3642.38430,0.00707
3640.32413,0.00728
3638.26396,0.00742
3636.20379,0.00745
3634.14361,0.00764
3632.08344,0.00808
3630.02327,0.00884
3627.96310,0.00975
3625.90293,0.01022
3623.84275,0.01017
3621.78258,0.01006
3619.72241,0.01033
3617.66224,0.01082
3615.60207,0.01104
3613.54189,0.01110
3611.48172,0.01132
3609.42155,0.01189
3607.36138,0.01273
3605.30120,0.01345
3603.24103,0.01391
3601.18086,0.01426
3599.12069,0.01453
3597.06052,0.01486
3595.00034,0.01538
3592.94017,0.01591
3590.88000,0.01619
3588.81983,0.01627
3586.75966,0.01656
3584.69948,0.01716
3582.63931,0.01778
3580.57914,0.01840
3578.51897,0.01909
3576.45879,0.01973
3574.39862,0.02012
3572.33845,0.02023
3570.27828,0.02021
3568.21811,0.02042
3566.15793,0.02109
3564.09776,0.02185
3562.03759,0.02229
3559.97742,0.02261
3557.91725,0.02294
3555.85707,0.02322
3553.79690,0.02355
3551.73673,0.02400
3549.67656,0.02429
3547.61639,0.02424
3545.55621,0.02443
3543.49604,0.02518
3541.43587,0.02601
3539.37570,0.02651
3537.31552,0.02684
3535.25535,0.02733
3533.19518,0.02783
3531.13501,0.02809
3529.07484,0.02825
3527.01466,0.02852
3524.95449,0.02892
3522.89432,0.02949
3520.83415,0.03016
3518.77398,0.03075
3516.71380,0.03116
3514.65363,0.03147
3512.59346,0.03175
3510.53329,0.03196
3508.47312,0.03219
3506.41294,0.03249
3504.35277,0.03272
3502.29260,0.03305
3500.23243,0.03360
3498.17225,0.03417
3496.11208,0.03471
3494.05191,0.03525
3491.99174,0.03573
3489.93157,0.03624
3487.87139,0.03664
3485.81122,0.03668
3483.75105,0.03662
3481.69088,0.03689
3479.63071,0.03739
3477.57053,0.03785
3475.51036,0.03837
3473.45019,0.03891
3471.39002,0.03919
3469.32984,0.03935
3467.26967,0.03960
3465.20950,0.03981
3463.14933,0.03994
3461.08916,0.04018
3459.02898,0.04067
3456.96881,0.04120
3454.90864,0.04152
3452.84847,0.04166
3450.78830,0.04171
3448.72812,0.04166
3446.66795,0.04178
3444.60778,0.04220
3442.54761,0.04263
3440.48744,0.04284
3438.42726,0.04292
3436.36709,0.04322
3434.30692,0.04376
3432.24675,0.04414
3430.18657,0.04432
3428.12640,0.04453
3426.06623,0.04473
3424.00606,0.04489
3421.94589,0.04516
3419.88571,0.04544
3417.82554,0.04570
3415.76537,0.04606
3413.70520,0.04641
3411.64503,0.04656
3409.58485,0.04651
3407.52468,0.04650
3405.46451,0.04674
3403.40434,0.04707
3401.34416,0.04731
3399.28399,0.04724
3397.22382,0.04764
3395.16365,0.04790
3393.10348,0.04789
3391.04330,0.04799
3388.98313,0.04832
3386.92296,0.04874
3384.86279,0.04906
3382.80262,0.04916
3380.74244,0.04918
3378.68227,0.04941
3376.62210,0.04970
3374.56193,0.04985
3372.50176,0.04997
3370.44158,0.05018
3368.38141,0.05046
3366.32124,0.05064
3364.26107,0.05072
3362.20089,0.05076
3360.14072,0.05084
3358.08055,0.05096
3356.02038,0.05103
3353.96021,0.05102
3351.90003,0.05114
3349.83986,0.05141
3347.77969,0.05157
3345.71952,0.05158
3343.65935,0.05159
3341.59917,0.05163
3339.53900,0.05166
3337.47883,0.05178
3335.41866,0.05201
3333.35849,0.05213
3331.29831,0.05223
3329.23814,0.05246
3327.17797,0.05259
3325.11780,0.05249
3323.05762,0.05242
3320.99745,0.05260
3318.93728,0.05283
3316.87711,0.05291
3314.81694,0.05265
3312.75676,0.05213
3310.69659,0.05189
3308.63642,0.05220
3306.57625,0.05270
3304.51608,0.05314
3302.45590,0.05356
3300.39573,0.05373
3298.33556,0.05360
3296.27539,0.05345
3294.21521,0.05334
3292.15504,0.05325
3290.09487,0.05338
3288.03470,0.05372
3285.97453,0.05400
3283.91435,0.05411
3281.85418,0.05420
3279.79401,0.05414
3277.73384,0.05397
3275.67367,0.05398
3273.61349,0.05414
3271.55332,0.05423
3269.49315,0.05422
3267.43298,0.05423
3265.37281,0.05432
3263.31263,0.05442
3261.25246,0.05443
3259.19229,0.05445
3257.13212,0.05447
3255.07194,0.05440
3253.01177,0.05437
3250.95160,0.05439
3248.89143,0.05443
3246.83126,0.05445
3244.77108,0.05441
3242.71091,0.05443
3240.65074,0.05450
3238.59057,0.05449
3236.53040,0.05442
3234.47022,0.05444
3232.41005,0.05459
3230.34988,0.05468
3228.28971,0.05463
3226.22954,0.05452
3224.16936,0.05444
3222.10919,0.05441
3220.04902,0.05445
3217.98885,0.05455
3215.92867,0.05461
3213.86850,0.05454
3211.80833,0.05434
3209.74816,0.05414
3207.68799,0.05404
3205.62781,0.05406
3203.56764,0.05410
3201.50747,0.05412
3199.44730,0.05422
3197.38713,0.05434
3195.32695,0.05430
3193.26678,0.05408
3191.20661,0.05381
3189.14644,0.05360
3187.08626,0.05344
3185.02609,0.05330
3182.96592,0.05328
3180.90575,0.05333
3178.84558,0.05333
3176.78540,0.05349
3174.72523,0.05375
3172.66506,0.05376
3170.60489,0.05354
3168.54472,0.05329
3166.48454,0.05313
3164.42437,0.05306
3162.36420,0.05293
3160.30403,0.05282
3158.24386,0.05276
3156.18368,0.05254
3154.12351,0.05213
3152.06334,0.05188
3150.00317,0.05192
3147.94299,0.05196
3145.88282,0.05193
3143.82265,0.05183
3141.76248,0.05173
3139.70231,0.05159
3137.64213,0.05134
3135.58196,0.05103
3133.52179,0.05081
3131.46162,0.05075
3129.40145,0.05072
3127.34127,0.05059
3125.28110,0.05032
3123.22093,0.05010
3121.16076,0.05003
3119.10058,0.04985
3117.04041,0.04943
3114.98024,0.04914
3112.92007,0.04929
3110.85990,0.04952
3108.79972,0.04935
3106.73955,0.04887
3104.67938,0.04848
3102.61921,0.04840
3100.55904,0.04860
3098.49886,0.04870
3096.43869,0.04835
3094.37852,0.04785
3092.31835,0.04759
3090.25818,0.04754
3088.19800,0.04752
3086.13783,0.04743
3084.07766,0.04710
3082.01749,0.04661
3079.95731,0.04634
3077.89714,0.04638
3075.83697,0.04643
3073.77680,0.04638
3071.71663,0.04632
3069.65645,0.04619
3067.59628,0.04590
3065.53611,0.04554
3063.47594,0.04530
3061.41577,0.04516
3059.35559,0.04497
3057.29542,0.04475
3055.23525,0.04455
3053.17508,0.04437
3051.11491,0.04411
3049.05473,0.04381
3046.99456,0.04359
3044.93439,0.04343
3042.87422,0.04338
3040.81404,0.04337
3038.75387,0.04331
3036.69370,0.04312
3034.63353,0.04279
3032.57336,0.04242
3030.51318,0.04208
3028.45301,0.04181
3026.39284,0.04162
3024.33267,0.04151
3022.27250,0.04139
3020.21232,0.04124
3018.15215,0.04098
3016.09198,0.04053
3014.03181,0.03999
3011.97163,0.03967
3009.91146,0.03966
3007.85129,0.03973
3005.79112,0.03958
3003.73095,0.03924
3001.67077,0.03895
2999.61060,0.03880
2997.55043,0.03856
2995.49026,0.03826
2993.43009,0.03807
2991.36991,0.03808
2989.30974,0.03804
2987.24957,0.03780
2985.18940,0.03762
2983.12923,0.03760
2981.06905,0.03752
2979.00888,0.03731
2976.94871,0.03720
2974.88854,0.03720
2972.82836,0.03713
2970.76819,0.03695
2968.70802,0.03669
2966.64785,0.03644
2964.58768,0.03630
2962.52750,0.03629
2960.46733,0.03630
2958.40716,0.03635
2956.34699,0.03639
2954.28682,0.03623
2952.22664,0.03597
2950.16647,0.03576
2948.10630,0.03555
2946.04613,0.03542
2943.98596,0.03536
2941.92578,0.03518
2939.86561,0.03490
2937.80544,0.03465
2935.74527,0.03457
2933.68509,0.03460
2931.62492,0.03458
2929.56475,0.03438
2927.50458,0.03412
2925.44441,0.03391
2923.38423,0.03377
2921.32406,0.03378
2919.26389,0.03382
2917.20372,0.03368
2915.14355,0.03350
2913.08337,0.03340
2911.02320,0.03328
2908.96303,0.03313
2906.90286,0.03298
2904.84268,0.03275
2902.78251,0.03246
2900.72234,0.03231
2898.66217,0.03229
2896.60200,0.03220
2894.54182,0.03203
2892.48165,0.03188
2890.42148,0.03173
2888.36131,0.03158
2886.30114,0.03158
2884.24096,0.03172
2882.18079,0.03177
2880.12062,0.03161
2878.06045,0.03126
2876.00028,0.03089
2873.94010,0.03065
2871.87993,0.03053
2869.81976,0.03037
2867.75959,0.03022
2865.69941,0.03011
2863.63924,0.02998
2861.57907,0.02987
2859.51890,0.02972
2857.45873,0.02939
2855.39855,0.02913
2853.33838,0.02902
2851.27821,0.02885
2849.21804,0.02868
2847.15787,0.02866
2845.09769,0.02863
2843.03752,0.02847
2840.97735,0.02830
2838.91718,0.02816
2836.85700,0.02797
2834.79683,0.02778
2832.73666,0.02766
2830.67649,0.02747
2828.61632,0.02723
2826.55614,0.02708
2824.49597,0.02706
2822.43580,0.02696
2820.37563,0.02668
2818.31546,0.02648
2816.25528,0.02648
2814.19511,0.02650
2812.13494,0.02635
2810.07477,0.02602
2808.01460,0.02571
2805.95442,0.02556
2803.89425,0.02543
2801.83408,0.02532
2799.77391,0.02522
2797.71373,0.02505
2795.65356,0.02488
2793.59339,0.02480
2791.53322,0.02474
2789.47305,0.02467
2787.41287,0.02459
2785.35270,0.02451
2783.29253,0.02445
2781.23236,0.02438
2779.17219,0.02430
2777.11201,0.02412
2775.05184,0.02379
2772.99167,0.02350
2770.93150,0.02343
2768.87133,0.02344
2766.81115,0.02334
2764.75098,0.02315
2762.69081,0.02291
2760.63064,0.02265
2758.57046,0.02250
2756.51029,0.02247
2754.45012,0.02247
2752.38995,0.02245
2750.32978,0.02228
2748.26960,0.02207
2746.20943,0.02188
2744.14926,0.02167
2742.08909,0.02152
2740.02892,0.02149
2737.96874,0.02145
2735.90857,0.02131
2733.84840,0.02109
2731.78823,0.02091
2729.72805,0.02086
2727.66788,0.02086
2725.60771,0.02073
2723.54754,0.02047
2721.48737,0.02025
2719.42719,0.02015
2717.36702,0.02015
2715.30685,0.02012
2713.24668,0.01994
2711.18651,0.01974
2709.12633,0.01968
2707.06616,0.01962
2705.00599,0.01944
2702.94582,0.01922
2700.88565,0.01913
2698.82547,0.01916
2696.76530,0.01911
2694.70513,0.01897
2692.64496,0.01883
2690.58478,0.01866
2688.52461,0.01844
2686.46444,0.01828
2684.40427,0.01824
2682.34410,0.01818
2680.28392,0.01808
2678.22375,0.01803
2676.16358,0.01790
2674.10341,0.01780
2672.04324,0.01778
2669.98306,0.01762
2667.92289,0.01736
2665.86272,0.01722
2663.80255,0.01710
2661.74238,0.01692
2659.68220,0.01680
2657.62203,0.01677
2655.56186,0.01674
2653.50169,0.01667
2651.44151,0.01655
2649.38134,0.01629
2647.32117,0.01604
2645.26100,0.01596
2643.20083,0.01590
2641.14065,0.01572
2639.08048,0.01554
2637.02031,0.01553
2634.96014,0.01561
2632.89997,0.01561
2630.83979,0.01552
2628.77962,0.01536
2626.71945,0.01513
2624.65928,0.01500
2622.59910,0.01499
2620.53893,0.01486
2618.47876,0.01474
2616.41859,0.01467
2614.35842,0.01457
2612.29824,0.01455
2610.23807,0.01464
2608.17790,0.01459
2606.11773,0.01432
2604.05756,0.01410
2601.99738,0.01413
2599.93721,0.01426
2597.87704,0.01425
2595.81687,0.01410
2593.75670,0.01389
2591.69652,0.01371
2589.63635,0.01370
2587.57618,0.01379
2585.51601,0.01379
2583.45583,0.01364
2581.39566,0.01357
2579.33549,0.01369
2577.27532,0.01373
2575.21515,0.01361
2573.15497,0.01350
2571.09480,0.01331
2569.03463,0.01309
2566.97446,0.01321
2564.91429,0.01344
2562.85411,0.01346
2560.79394,0.01338
2558.73377,0.01333
2556.67360,0.01321
2554.61342,0.01307
2552.55325,0.01317
2550.49308,0.01353
2548.43291,0.01379
2546.37274,0.01373
2544.31256,0.01348
2542.25239,0.01337
2540.19222,0.01329
2538.13205,0.01309
2536.07188,0.01306
2534.01170,0.01327
2531.95153,0.01350
2529.89136,0.01367
2527.83119,0.01371
2525.77102,0.01370
2523.71084,0.01369
2521.65067,0.01368
2519.59050,0.01374
2517.53033,0.01374
2515.47015,0.01366
2513.40998,0.01365
2511.34981,0.01362
2509.28964,0.01366
2507.22947,0.01402
2505.16929,0.01436
2503.10912,0.01425
2501.04895,0.01387
2498.98878,0.01353
2496.92861,0.01343
2494.86843,0.01371
2492.80826,0.01406
2490.74809,0.01420
2488.68792,0.01415
2486.62775,0.01408
2484.56757,0.01411
2482.50740,0.01416
2480.44723,0.01417
2478.38706,0.01437
2476.32688,0.01471
2474.26671,0.01479
2472.20654,0.01462
2470.14637,0.01462
2468.08620,0.01473
2466.02602,0.01475
2463.96585,0.01476
2461.90568,0.01477
2459.84551,0.01485
2457.78534,0.01492
2455.72516,0.01481
2453.66499,0.01474
2451.60482,0.01481
2449.54465,0.01482
2447.48447,0.01478
2445.42430,0.01481
2443.36413,0.01485
2441.30396,0.01489
2439.24379,0.01499
2437.18361,0.01508
2435.12344,0.01520
2433.06327,0.01529
2431.00310,0.01518
2428.94293,0.01512
2426.88275,0.01522
2424.82258,0.01516
2422.76241,0.01501
2420.70224,0.01499
2418.64207,0.01494
2416.58189,0.01494
2414.52172,0.01499
2412.46155,0.01487
2410.40138,0.01456
2408.34120,0.01439
2406.28103,0.01446
2404.22086,0.01459
2402.16069,0.01460
2400.10052,0.01441
2398.04034,0.01449
2395.98017,0.01476
2393.92000,0.01487
2391.85983,0.01457
2389.79966,0.01425
2387.73948,0.01421
2385.67931,0.01420
2383.61914,0.01398
2381.55897,0.01372
2379.49880,0.01363
2377.43862,0.01369
2375.37845,0.01363
2373.31828,0.01366
2371.25811,0.01413
2369.19793,0.01490
2367.13776,0.01522
2365.07759,0.01451
2363.01742,0.01319
2360.95725,0.01276
2358.89707,0.01275
2356.83690,0.01325
2354.77673,0.01392
2352.71656,0.01421
2350.65639,0.01444
2348.59621,0.01417
2346.53604,0.01272
2344.47587,0.01258
2342.41570,0.01329
2340.35552,0.01363
2338.29535,0.01362
2336.23518,0.01368
2334.17501,0.01365
2332.11484,0.01313
2330.05466,0.01243
2327.99449,0.01204
2325.93432,0.01252
2323.87415,0.01291
2321.81398,0.01294
2319.75380,0.01261
2317.69363,0.01244
2315.63346,0.01208
2313.57329,0.01160
2311.51312,0.01147
2309.45294,0.01170
2307.39277,0.01198
2305.33260,0.01215
2303.27243,0.01229
2301.21225,0.01229
2299.15208,0.01207
2297.09191,0.01172
2295.03174,0.01160
2292.97157,0.01181
2290.91139,0.01204
2288.85122,0.01214
2286.79105,0.01217
2284.73088,0.01209
2282.67071,0.01204
2280.61053,0.01217
2278.55036,0.01233
2276.49019,0.01227
2274.43002,0.01197
2272.36984,0.01154
2270.30967,0.01122
2268.24950,0.01118
2266.18933,0.01132
2264.12916,0.01158
2262.06898,0.01181
2260.00881,0.01166
2257.94864,0.01109
2255.88847,0.01069
2253.82830,0.01080
2251.76812,0.01095
2249.70795,0.01100
2247.64778,0.01108
2245.58761,0.01087
2243.52744,0.01017
2241.46726,0.00960
2239.40709,0.00978
2237.34692,0.01029
2235.28675,0.01036
2233.22657,0.01029
2231.16640,0.01068
2229.10623,0.01097
2227.04606,0.01065
2224.98589,0.01020
2222.92571,0.00973
2220.86554,0.00884
2218.80537,0.00846
2216.74520,0.00905
2214.68503,0.00947
2212.62485,0.00942
2210.56468,0.00929
2208.50451,0.00920
2206.44434,0.00907
2204.38417,0.00886
2202.32399,0.00870
2200.26382,0.00839
2198.20365,0.00837
2196.14348,0.00883
2194.08330,0.00845
2192.02313,0.00763
2189.96296,0.00804
2187.90279,0.00896
2185.84262,0.00867
2183.78244,0.00766
2181.72227,0.00710
2179.66210,0.00707
2177.60193,0.00748
2175.54176,0.00759
2173.48158,0.00717
2171.42141,0.00693
2169.36124,0.00678
2167.30107,0.00672
2165.24089,0.00690
2163.18072,0.00670
2161.12055,0.00585
2159.06038,0.00555
2157.00021,0.00641
2154.94003,0.00734
2152.87986,0.00776
2150.81969,0.00818
2148.75952,0.00830
2146.69935,0.00740
2144.63917,0.00645
2142.57900,0.00646
2140.51883,0.00706
2138.45866,0.00753
2136.39849,0.00734
2134.33831,0.00673
2132.27814,0.00659
2130.21797,0.00698
2128.15780,0.00732
2126.09762,0.00761
2124.03745,0.00788
2121.97728,0.00796
2119.91711,0.00777
2117.85694,0.00721
2115.79676,0.00666
2113.73659,0.00649
2111.67642,0.00644
2109.61625,0.00641
2107.55608,0.00646
2105.49590,0.00639
2103.43573,0.00638
2101.37556,0.00658
2099.31539,0.00699
2097.25521,0.00717
2095.19504,0.00703
2093.13487,0.00657
2091.07470,0.00629
2089.01453,0.00646
2086.95435,0.00671
2084.89418,0.00653
2082.83401,0.00624
2080.77384,0.00658
2078.71367,0.00720
2076.65349,0.00726
2074.59332,0.00686
2072.53315,0.00641
2070.47298,0.00614
2068.41281,0.00619
2066.35263,0.00640
2064.29246,0.00611
2062.23229,0.00520
2060.17212,0.00454
2058.11194,0.00457
2056.05177,0.00491
2053.99160,0.00546
2051.93143,0.00599
2049.87126,0.00629
2047.81108,0.00677
2045.75091,0.00750
2043.69074,0.00778
2041.63057,0.00719
2039.57040,0.00648
2037.51022,0.00611
2035.45005,0.00602
2033.38988,0.00595
2031.32971,0.00494
2029.26954,0.00368
2027.20936,0.00396
2025.14919,0.00548
2023.08902,0.00648
2021.02885,0.00637
2018.96867,0.00594
2016.90850,0.00629
2014.84833,0.00732
2012.78816,0.00746
2010.72799,0.00669
2008.66781,0.00644
2006.60764,0.00649
2004.54747,0.00595
2002.48730,0.00511
2000.42713,0.00446
1998.36695,0.00429
1996.30678,0.00476
1994.24661,0.00528
1992.18644,0.00521
1990.12626,0.00496
1988.06609,0.00511
1986.00592,0.00535
1983.94575,0.00516
1981.88558,0.00496
1979.82540,0.00532
1977.76523,0.00583
1975.70506,0.00585
1973.64489,0.00562
1971.58472,0.00538
1969.52454,0.00503
1967.46437,0.00514
1965.40420,0.00531
1963.34403,0.00476
1961.28386,0.00434
1959.22368,0.00451
1957.16351,0.00440
1955.10334,0.00386
1953.04317,0.00375
1950.98299,0.00419
1948.92282,0.00474
1946.86265,0.00516
1944.80248,0.00535
1942.74231,0.00536
1940.68213,0.00521
1938.62196,0.00512
1936.56179,0.00519
1934.50162,0.00506
1932.44145,0.00463
1930.38127,0.00457
1928.32110,0.00513
1926.26093,0.00554
1924.20076,0.00544
1922.14059,0.00527
1920.08041,0.00508
1918.02024,0.00484
1915.96007,0.00487
1913.89990,0.00510
1911.83972,0.00520
1909.77955,0.00521
1907.71938,0.00528
1905.65921,0.00530
1903.59904,0.00523
1901.53886,0.00523
1899.47869,0.00534
1897.41852,0.00543
1895.35835,0.00535
1893.29818,0.00516
1891.23800,0.00511
1889.17783,0.00530
1887.11766,0.00553
1885.05749,0.00555
1882.99731,0.00536
1880.93714,0.00523
1878.87697,0.00527
1876.81680,0.00549
1874.75663,0.00577
1872.69645,0.00599
1870.63628,0.00601
1868.57611,0.00590
1866.51594,0.00578
1864.45577,0.00557
1862.39559,0.00531
1860.33542,0.00532
1858.27525,0.00568
1856.21508,0.00593
1854.15491,0.00577
1852.09473,0.00543
1850.03456,0.00528
1847.97439,0.00527
1845.91422,0.00521
1843.85404,0.00511
1841.79387,0.00518
1839.73370,0.00548
1837.67353,0.00575
1835.61336,0.00571
1833.55318,0.00558
1831.49301,0.00576
1829.43284,0.00605
1827.37267,0.00611
1825.31250,0.00606
1823.25232,0.00617
1821.19215,0.00636
1819.13198,0.00641
1817.07181,0.00637
1815.01163,0.00640
1812.95146,0.00634
1810.89129,0.00607
1808.83112,0.00588
1806.77095,0.00593
1804.71077,0.00600
1802.65060,0.00599
1800.59043,0.00607
1798.53026,0.00620
1796.47009,0.00624
1794.40991,0.00627
1792.34974,0.00628
1790.28957,0.00617
1788.22940,0.00592
1786.16923,0.00566
1784.10905,0.00566
1782.04888,0.00589
1779.98871,0.00603
1777.92854,0.00611
1775.86836,0.00631
1773.80819,0.00652
1771.74802,0.00639
1769.68785,0.00606
1767.62768,0.00605
1765.56750,0.00639
1763.50733,0.00675
1761.44716,0.00688
1759.38699,0.00685
1757.32682,0.00698
1755.26664,0.00724
1753.20647,0.00746
1751.14630,0.00770
1749.08613,0.00799
1747.02596,0.00822
1744.96578,0.00835
1742.90561,0.00851
1740.84544,0.00870
1738.78527,0.00879
1736.72509,0.00884
1734.66492,0.00892
1732.60475,0.00895
1730.54458,0.00904
1728.48441,0.00923
1726.42423,0.00940
1724.36406,0.00945
1722.30389,0.00954
1720.24372,0.00983
1718.18355,0.01003
1716.12337,0.00981
1714.06320,0.00971
1712.00303,0.00980
1709.94286,0.01001
1707.88268,0.01033
1705.82251,0.01062
1703.76234,0.01085
1701.70217,0.01130
1699.64200,0.01178
1697.58182,0.01215
1695.52165,0.01270
1693.46148,0.01327
1691.40131,0.01367
1689.34114,0.01413
1687.28096,0.01479
1685.22079,0.01570
1683.16062,0.01651
1681.10045,0.01707
1679.04028,0.01764
1676.98010,0.01846
1674.91993,0.01954
1672.85976,0.02056
1670.79959,0.02137
1668.73941,0.02192
1666.67924,0.02223
1664.61907,0.02262
1662.55890,0.02310
1660.49873,0.02333
1658.43855,0.02340
1656.37838,0.02372
1654.31821,0.02435
1652.25804,0.02453
1650.19787,0.02418
1648.13769,0.02387
1646.07752,0.02374
1644.01735,0.02358
1641.95718,0.02344
1639.89701,0.02345
1637.83683,0.02354
1635.77666,0.02335
1633.71649,0.02287
1631.65632,0.02240
1629.59614,0.02205
1627.53597,0.02180
1625.47580,0.02152
1623.41563,0.02109
1621.35546,0.02064
1619.29528,0.02051
1617.23511,0.02051
1615.17494,0.02012
1613.11477,0.01956
1611.05460,0.01919
1608.99442,0.01895
1606.93425,0.01877
1604.87408,0.01860
1602.81391,0.01832
1600.75373,0.01791
1598.69356,0.01758
1596.63339,0.01736
1594.57322,0.01709
1592.51305,0.01668
1590.45287,0.01628
1588.39270,0.01595
1586.33253,0.01565
1584.27236,0.01531
1582.21219,0.01494
1580.15201,0.01462
1578.09184,0.01436
1576.03167,0.01391
1573.97150,0.01332
1571.91133,0.01296
1569.85115,0.01276
1567.79098,0.01241
1565.73081,0.01198
1563.67064,0.01174
1561.61046,0.01188
1559.55029,0.01180
1557.49012,0.01087
1555.42995,0.01016
1553.36978,0.00990
1551.30960,0.00981
1549.24943,0.00972
1547.18926,0.00960
1545.12909,0.00952
1543.06892,0.00963
1541.00874,0.00981
1538.94857,0.00943
1536.88840,0.00867
1534.82823,0.00824
1532.76805,0.00815
1530.70788,0.00796
1528.64771,0.00767
1526.58754,0.00730
1524.52737,0.00693
1522.46719,0.00665
1520.40702,0.00632
1518.34685,0.00610
1516.28668,0.00594
1514.22651,0.00562
1512.16633,0.00539
1510.10616,0.00548
1508.04599,0.00573
1505.98582,0.00575
1503.92565,0.00543
1501.86547,0.00507
1499.80530,0.00504
1497.74513,0.00520
1495.68496,0.00529
1493.62478,0.00535
1491.56461,0.00534
1489.50444,0.00508
1487.44427,0.00480
1485.38410,0.00480
1483.32392,0.00490
1481.26375,0.00496
1479.20358,0.00503
1477.14341,0.00514
1475.08324,0.00529
1473.02306,0.00549
1470.96289,0.00561
1468.90272,0.00564
1466.84255,0.00579
1464.78238,0.00596
1462.72220,0.00601
1460.66203,0.00612
1458.60186,0.00612
1456.54169,0.00576
1454.48151,0.00561
1452.42134,0.00582
1450.36117,0.00618
1448.30100,0.00650
1446.24083,0.00668
1444.18065,0.00678
1442.12048,0.00684
1440.06031,0.00683
1438.00014,0.00671
1435.93997,0.00654
1433.87979,0.00659
1431.81962,0.00687
1429.75945,0.00721
1427.69928,0.00741
1425.63910,0.00757
1423.57893,0.00778
1421.51876,0.00797
1419.45859,0.00805
1417.39842,0.00814
1415.33824,0.00840
1413.27807,0.00866
1411.21790,0.00878
1409.15773,0.00884
1407.09756,0.00892
1405.03738,0.00895
1402.97721,0.00887
1400.91704,0.00866
1398.85687,0.00829
1396.79670,0.00802
1394.73652,0.00805
1392.67635,0.00815
1390.61618,0.00814
1388.55601,0.00812
1386.49583,0.00813
1384.43566,0.00814
1382.37549,0.00812
1380.31532,0.00817
1378.25515,0.00831
1376.19497,0.00838
1374.13480,0.00820
1372.07463,0.00798
1370.01446,0.00795
1367.95429,0.00798
1365.89411,0.00791
1363.83394,0.00768
1361.77377,0.00744
1359.71360,0.00740
1357.65343,0.00748
1355.59325,0.00753
1353.53308,0.00754
1351.47291,0.00752
1349.41274,0.00741
1347.35256,0.00720
1345.29239,0.00695
1343.23222,0.00667
1341.17205,0.00630
1339.11188,0.00592
1337.05170,0.00586
1334.99153,0.00607
1332.93136,0.00618
1330.87119,0.00613
1328.81102,0.00608
1326.75084,0.00606
1324.69067,0.00604
1322.63050,0.00600
1320.57033,0.00598
1318.51015,0.00596
1316.44998,0.00589
1314.38981,0.00580
1312.32964,0.00578
1310.26947,0.00584
1308.20929,0.00586
1306.14912,0.00582
1304.08895,0.00583
1302.02878,0.00590
1299.96861,0.00598
1297.90843,0.00605
1295.84826,0.00615
1293.78809,0.00626
1291.72792,0.00624
1289.66775,0.00613
1287.60757,0.00611
1285.54740,0.00616
1283.48723,0.00622
1281.42706,0.00625
1279.36688,0.00627
1277.30671,0.00630
1275.24654,0.00636
1273.18637,0.00646
1271.12620,0.00650
1269.06602,0.00642
1267.00585,0.00636
1264.94568,0.00640
1262.88551,0.00651
1260.82534,0.00663
1258.76516,0.00678
1256.70499,0.00683
1254.64482,0.00673
1252.58465,0.00658
1250.52447,0.00650
1248.46430,0.00646
1246.40413,0.00644
1244.34396,0.00640
1242.28379,0.00632
1240.22361,0.00616
1238.16344,0.00593
1236.10327,0.00568
1234.04310,0.00541
1231.98293,0.00525
1229.92275,0.00514
1227.86258,0.00489
1225.80241,0.00460
1223.74224,0.00443
1221.68207,0.00421
1219.62189,0.00393
1217.56172,0.00363
1215.50155,0.00325
1213.44138,0.00288
1211.38120,0.00262
1209.32103,0.00248
1207.26086,0.00242
1205.20069,0.00240
1203.14052,0.00234
1201.08034,0.00225
1199.02017,0.00227
1196.96000,0.00251
1194.89983,0.00272
1192.83966,0.00282
1190.77948,0.00295
1188.71931,0.00323
1186.65914,0.00367
1184.59897,0.00421
1182.53880,0.00480
1180.47862,0.00547
1178.41845,0.00621
1176.35828,0.00683
1174.29811,0.00741
1172.23793,0.00822
1170.17776,0.00914
1168.11759,0.00997
1166.05742,0.01075
1163.99725,0.01166
1161.93707,0.01267
1159.87690,0.01369
1157.81673,0.01482
1155.75656,0.01600
1153.69639,0.01711
1151.63621,0.01830
1149.57604,0.01968
1147.51587,0.02100
1145.45570,0.02223
1143.39552,0.02350
1141.33535,0.02477
1139.27518,0.02602
1137.21501,0.02742
1135.15484,0.02893
1133.09466,0.03043
1131.03449,0.03194
1128.97432,0.03350
1126.91415,0.03521
1124.85398,0.03706
1122.79380,0.03899
1120.73363,0.04096
1118.67346,0.04279
1116.61329,0.04452
1114.55312,0.04638
1112.49294,0.04827
1110.43277,0.05010
1108.37260,0.05197
1106.31243,0.05386
1104.25225,0.05557
1102.19208,0.05703
1100.13191,0.05854
1098.07174,0.06021
1096.01157,0.06179
1093.95139,0.06319
1091.89122,0.06451
1089.83105,0.06583
1087.77088,0.06718
1085.71071,0.06844
1083.65053,0.06955
1081.59036,0.07063
1079.53019,0.07179
1077.47002,0.07302
1075.40985,0.07411
1073.34967,0.07496
1071.28950,0.07556
1069.22933,0.07574
1067.16916,0.07562
1065.10898,0.07533
1063.04881,0.07485
1060.98864,0.07412
1058.92847,0.07311
1056.86830,0.07180
1054.80812,0.07021
1052.74795,0.06841
1050.68778,0.06629
1048.62761,0.06377
1046.56744,0.06107
1044.50726,0.05840
1042.44709,0.05562
1040.38692,0.05261
1038.32675,0.04956
1036.26657,0.04660
1034.20640,0.04377
1032.14623,0.04116
1030.08606,0.03892
1028.02589,0.03699
1025.96571,0.03523
1023.90554,0.03365
1021.84537,0.03228
1019.78520,0.03102
1017.72503,0.02995
1015.66485,0.02932
1013.60468,0.02917
1011.54451,0.02937
1009.48434,0.02994
1007.42417,0.03071
1005.36399,0.03162
1003.30382,0.03282
1001.24365,0.03432
999.18348,0.03599
997.12330,0.03772
995.06313,0.03934
993.00296,0.04081
990.94279,0.04230
988.88262,0.04370
986.82244,0.04479
984.76227,0.04560
982.70210,0.04619
980.64193,0.04652
978.58176,0.04652
976.52158,0.04613
974.46141,0.04548
972.40124,0.04475
970.34107,0.04371
968.28089,0.04211
966.22072,0.04030
964.16055,0.03868
962.10038,0.03715
960.04021,0.03553
957.98003,0.03388
955.91986,0.03224
953.85969,0.03071
951.79952,0.02932
949.73935,0.02792
947.67917,0.02665
945.61900,0.02558
943.55883,0.02447
941.49866,0.02335
939.43849,0.02229
937.37831,0.02132
935.31814,0.02040
933.25797,0.01943
931.19780,0.01851
929.13762,0.01770
927.07745,0.01697
925.01728,0.01631
922.95711,0.01563
920.89694,0.01495
918.83676,0.01429
916.77659,0.01352
914.71642,0.01266
912.65625,0.01205
910.59608,0.01172
908.53590,0.01132
906.47573,0.01101
904.41556,0.01114
902.35539,0.01138
900.29522,0.01140
898.23504,0.01136
896.17487,0.01159
894.11470,0.01210
892.05453,0.01281
889.99435,0.01370
887.93418,0.01454
885.87401,0.01521
883.81384,0.01591
881.75367,0.01680
879.69349,0.01782
877.63332,0.01888
875.57315,0.02005
873.51298,0.02131
871.45281,0.02255
869.39263,0.02377
867.33246,0.02479
865.27229,0.02562
863.21212,0.02640
861.15194,0.02712
859.09177,0.02771
857.03160,0.02792
854.97143,0.02775
852.91126,0.02766
850.85108,0.02753
848.79091,0.02699
846.73074,0.02633
844.67057,0.02571
842.61040,0.02493
840.55022,0.02399
838.49005,0.02295
836.42988,0.02186
834.36971,0.02078
832.30954,0.01983
830.24936,0.01911
828.18919,0.01848
826.12902,0.01768
824.06885,0.01686
822.00867,0.01624
819.94850,0.01576
817.88833,0.01525
815.82816,0.01456
813.76799,0.01370
811.70781,0.01276
809.64764,0.01186
807.58747,0.01138
805.52730,0.01147
803.46713,0.01159
801.40695,0.01138
799.34678,0.01097
797.28661,0.01033
795.22644,0.00963
793.16627,0.00924
791.10609,0.00899
789.04592,0.00869
786.98575,0.00869
784.92558,0.00893
782.86540,0.00886
780.80523,0.00845
778.74506,0.00816
776.68489,0.00815
774.62472,0.00811
772.56454,0.00781
770.50437,0.00748
768.44420,0.00723
766.38403,0.00688
764.32386,0.00663
762.26368,0.00659
760.20351,0.00633
758.14334,0.00584
756.08317,0.00564
754.02299,0.00582
751.96282,0.00596
749.90265,0.00588
747.84248,0.00570
745.78231,0.00557
743.72213,0.00545
741.66196,0.00517
739.60179,0.00465
737.54162,0.00431
735.48145,0.00461
733.42127,0.00510
731.36110,0.00510
729.30093,0.00481
727.24076,0.00452
725.18059,0.00421
723.12041,0.00401
721.06024,0.00411
719.00007,0.00447
716.93990,0.00457
714.87972,0.00439
712.81955,0.00417
710.75938,0.00403
708.69921,0.00400
706.63904,0.00435
704.57886,0.00500
702.51869,0.00548
700.45852,0.00549
698.39835,0.00488
696.33818,0.00407
694.27800,0.00377
692.21783,0.00396
690.15766,0.00408
688.09749,0.00396
686.03731,0.00393
683.97714,0.00413
681.91697,0.00443
679.85680,0.00481
677.79663,0.00500
675.73645,0.00486
673.67628,0.00475
671.61611,0.00500
669.55594,0.00399
667.49577,0.00227
665.43559,0.00466
663.37542,0.00434
661.31525,0.00396
659.25508,0.00427
657.19491,0.00429
655.13473,0.00391
653.07456,0.00380
651.01439,0.00388
648.95422,0.00366
646.89404,0.00363
644.83387,0.00397
642.77370,0.00443
640.71353,0.00473
638.65336,0.00467
636.59318,0.00420
634.53301,0.00335
632.47284,0.00236
630.41267,0.00145
628.35250,0.00107
626.29232,0.00197
624.23215,0.00357
622.17198,0.00390
620.11181,0.00250
618.05164,0.00116
615.99146,0.00110
613.93129,0.00183
611.87112,0.00228
609.81095,0.00188
607.75077,0.00159
605.69060,0.00152
603.63043,0.00079
601.57026,0.00000
599.51009,0.00000
