3996.73391,-0.00010
3994.67373,-0.00032
3992.61356,-0.00028
3990.55339,0.00007
3988.49322,0.00042
3986.43305,0.00065
3984.37287,0.00076
3982.31270,0.00073
3980.25253,0.00058
3978.19236,0.00040
3976.13219,0.00019
3974.07201,0.00009
3972.01184,0.00015
3969.95167,0.00036
3967.89150,0.00066
3965.83133,0.00077
3963.77115,0.00060
3961.71098,0.00037
3959.65081,0.00024
3957.59064,0.00033
3955.53046,0.00067
3953.47029,0.00102
3951.41012,0.00093
3949.34995,0.00040
3947.28978,0.00000
3945.22960,0.00005
3943.16943,0.00030
3941.10926,0.00055
3939.04909,0.00067
3936.98892,0.00052
3934.92874,0.00017
3932.86857,0.00004
3930.80840,0.00034
3928.74823,0.00065
3926.68805,0.00076
3924.62788,0.00071
3922.56771,0.00047
3920.50754,0.00028
3918.44737,0.00033
3916.38719,0.00071
3914.32702,0.00115
3912.26685,0.00127
3910.20668,0.00107
3908.14651,0.00082
3906.08633,0.00059
3904.02616,0.00032
3901.96599,0.00034
3899.90582,0.00095
3897.84565,0.00141
3895.78547,0.00111
3893.72530,0.00062
3891.66513,0.00059
3889.60496,0.00087
3887.54478,0.00094
3885.48461,0.00074
3883.42444,0.00043
3881.36427,0.00042
3879.30410,0.00075
3877.24392,0.00090
3875.18375,0.00078
3873.12358,0.00062
3871.06341,0.00056
3869.00324,0.00067
3866.94306,0.00056
3864.88289,0.00024
3862.82272,0.00019
3860.76255,0.00036
3858.70237,0.00029
3856.64220,0.00000
3854.58203,0.00025
3852.52186,0.00133
3850.46169,0.00193
3848.40151,0.00150
3846.34134,0.00101
3844.28117,0.00102
3842.22100,0.00120
3840.16083,0.00115
3838.10065,0.00107
3836.04048,0.00121
3833.98031,0.00141
3831.92014,0.00167
3829.85997,0.00201
3827.79979,0.00206
3825.73962,0.00164
3823.67945,0.00122
3821.61928,0.00130
3819.55910,0.00152
3817.49893,0.00166
3815.43876,0.00193
3813.37859,0.00203
3811.31842,0.00173
3809.25824,0.00145
3807.19807,0.00145
3805.13790,0.00155
3803.07773,0.00169
3801.01756,0.00194
3798.95738,0.00192
3796.89721,0.00171
3794.83704,0.00179
3792.77687,0.00205
3790.71670,0.00217
3788.65652,0.00218
3786.59635,0.00222
3784.53618,0.00224
3782.47601,0.00227
3780.41583,0.00248
3778.35566,0.00279
3776.29549,0.00283
3774.23532,0.00255
3772.17515,0.00225
3770.11497,0.00204
3768.05480,0.00180
3765.99463,0.00159
3763.93446,0.00146
3761.87429,0.00135
3759.81411,0.00119
3757.75394,0.00088
3755.69377,0.00049
3753.63360,0.00017
3751.57342,0.00011
3749.51325,0.00032
3747.45308,0.00055
3745.39291,0.00065
3743.33274,0.00089
3741.27256,0.00084
3739.21239,0.00036
3737.15222,0.00002
3735.09205,0.00013
3733.03188,0.00067
3730.97170,0.00110
3728.91153,0.00105
3726.85136,0.00076
3724.79119,0.00077
3722.73102,0.00129
3720.67084,0.00190
3718.61067,0.00195
3716.55050,0.00151
3714.49033,0.00121
3712.43015,0.00147
3710.36998,0.00190
3708.30981,0.00207
3706.24964,0.00199
3704.18947,0.00186
3702.12929,0.00192
3700.06912,0.00216
3698.00895,0.00241
3695.94878,0.00253
3693.88861,0.00243
3691.82843,0.00237
3689.76826,0.00250
3687.70809,0.00275
3685.64792,0.00302
3683.58775,0.00313
3681.52757,0.00293
3679.46740,0.00246
3677.40723,0.00229
3675.34706,0.00281
3673.28688,0.00326
3671.22671,0.00346
3669.16654,0.00395
3667.10637,0.00423
3665.04620,0.00408
3662.98602,0.00391
3660.92585,0.00391
3658.86568,0.00404
3656.80551,0.00425
3654.74534,0.00448
3652.68516,0.00470
3650.62499,0.00502
3648.56482,0.00540
3646.50465,0.00579
3644.44447,0.00581
3642.38430,0.00578
3640.32413,0.00607
3638.26396,0.00648
3636.20379,0.00688
3634.14361,0.00717
3632.08344,0.00724
3630.02327,0.00746
3627.96310,0.00825
3625.90293,0.00896
3623.84275,0.00919
3621.78258,0.00940
3619.72241,0.00986
3617.66224,0.01027
3615.60207,0.01017
3613.54189,0.00982
3611.48172,0.00971
3609.42155,0.01019
3607.36138,0.01110
3605.30120,0.01179
3603.24103,0.01220
3601.18086,0.01277
3599.12069,0.01343
3597.06052,0.01383
3595.00034,0.01403
3592.94017,0.01416
3590.88000,0.01421
3588.81983,0.01431
3586.75966,0.01477
3584.69948,0.01539
3582.63931,0.01585
3580.57914,0.01633
3578.51897,0.01700
3576.45879,0.01765
3574.39862,0.01809
3572.33845,0.01845
3570.27828,0.01874
3568.21811,0.01903
3566.15793,0.01959
3564.09776,0.02016
3562.03759,0.02040
3559.97742,0.02061
3557.91725,0.02098
3555.85707,0.02128
3553.79690,0.02158
3551.73673,0.02197
3549.67656,0.02219
3547.61639,0.02229
3545.55621,0.02270
3543.49604,0.02333
3541.43587,0.02388
3539.37570,0.02439
3537.31552,0.02488
3535.25535,0.02526
3533.19518,0.02549
3531.13501,0.02567
3529.07484,0.02592
3527.01466,0.02611
3524.95449,0.02631
3522.89432,0.02684
3520.83415,0.02762
3518.77398,0.02826
3516.71380,0.02865
3514.65363,0.02889
3512.59346,0.02911
3510.53329,0.02932
3508.47312,0.02946
3506.41294,0.02949
3504.35277,0.02957
3502.29260,0.03002
3500.23243,0.03084
3498.17225,0.03161
3496.11208,0.03208
3494.05191,0.03235
3491.99174,0.03256
3489.93157,0.03277
3487.87139,0.03308
3485.81122,0.03341
3483.75105,0.03371
3481.69088,0.03404
3479.63071,0.03446
3477.57053,0.03482
3475.51036,0.03515
3473.45019,0.03547
3471.39002,0.03571
3469.32984,0.03596
3467.26967,0.03623
3465.20950,0.03638
3463.14933,0.03649
3461.08916,0.03682
3459.02898,0.03738
3456.96881,0.03793
3454.90864,0.03836
3452.84847,0.03868
3450.78830,0.03876
3448.72812,0.03863
3446.66795,0.03864
3444.60778,0.03887
3442.54761,0.03906
3440.48744,0.03922
3438.42726,0.03952
3436.36709,0.03989
3434.30692,0.04010
3432.24675,0.04022
3430.18657,0.04041
3428.12640,0.04073
3426.06623,0.04120
3424.00606,0.04160
3421.94589,0.04184
3419.88571,0.04206
3417.82554,0.04235
3415.76537,0.04266
3413.70520,0.04289
3411.64503,0.04294
3409.58485,0.04287
3407.52468,0.04302
3405.46451,0.04340
3403.40434,0.04361
3401.34416,0.04357
3399.28399,0.04324
3397.22382,0.04347
3395.16365,0.04380
3393.10348,0.04401
3391.04330,0.04410
3388.98313,0.04426
3386.92296,0.04463
3384.86279,0.04498
3382.80262,0.04518
3380.74244,0.04536
3378.68227,0.04559
3376.62210,0.04581
3374.56193,0.04596
3372.50176,0.04601
3370.44158,0.04609
3368.38141,0.04625
3366.32124,0.04637
3364.26107,0.04652
3362.20089,0.04666
3360.14072,0.04670
3358.08055,0.04678
3356.02038,0.04696
3353.96021,0.04709
3351.90003,0.04715
3349.83986,0.04728
3347.77969,0.04744
3345.71952,0.04737
3343.65935,0.04709
3341.59917,0.04694
3339.53900,0.04704
3337.47883,0.04730
3335.41866,0.04760
3333.35849,0.04787
3331.29831,0.04811
3329.23814,0.04832
3327.17797,0.04833
3325.11780,0.04815
3323.05762,0.04807
3320.99745,0.04820
3318.93728,0.04830
3316.87711,0.04835
3314.81694,0.04835
3312.75676,0.04822
3310.69659,0.04810
3308.63642,0.04813
3306.57625,0.04829
3304.51608,0.04858
3302.45590,0.04891
3300.39573,0.04906
3298.33556,0.04901
3296.27539,0.04897
3294.21521,0.04895
3292.15504,0.04889
3290.09487,0.04889
3288.03470,0.04905
3285.97453,0.04927
3283.91435,0.04947
3281.85418,0.04961
3279.79401,0.04952
3277.73384,0.04935
3275.67367,0.04937
3273.61349,0.04952
3271.55332,0.04966
3269.49315,0.04975
3267.43298,0.04977
3265.37281,0.04975
3263.31263,0.04979
3261.25246,0.04994
3259.19229,0.05000
3257.13212,0.04991
3255.07194,0.04986
3253.01177,0.04988
3250.95160,0.04985
3248.89143,0.04969
3246.83126,0.04954
3244.77108,0.04962
3242.71091,0.04991
3240.65074,0.05012
3238.59057,0.05004
3236.53040,0.04989
3234.47022,0.04994
3232.41005,0.05007
3230.34988,0.04997
3228.28971,0.04970
3226.22954,0.04961
3224.16936,0.04972
3222.10919,0.04969
3220.04902,0.04950
3217.98885,0.04948
3215.92867,0.04960
3213.86850,0.04965
3211.80833,0.04960
3209.74816,0.04939
3207.68799,0.04914
3205.62781,0.04911
3203.56764,0.04921
3201.50747,0.04919
3199.44730,0.04910
3197.38713,0.04910
3195.32695,0.04909
3193.26678,0.04903
3191.20661,0.04896
3189.14644,0.04892
3187.08626,0.04884
3185.02609,0.04864
3182.96592,0.04837
3180.90575,0.04820
3178.84558,0.04820
3176.78540,0.04837
3174.72523,0.04858
3172.66506,0.04860
3170.60489,0.04846
3168.54472,0.04825
3166.48454,0.04804
3164.42437,0.04786
3162.36420,0.04770
3160.30403,0.04765
3158.24386,0.04775
3156.18368,0.04766
3154.12351,0.04724
3152.06334,0.04690
3150.00317,0.04685
3147.94299,0.04692
3145.88282,0.04699
3143.82265,0.04689
3141.76248,0.04664
3139.70231,0.04649
3137.64213,0.04640
3135.58196,0.04617
3133.52179,0.04586
3131.46162,0.04577
3129.40145,0.04579
3127.34127,0.04561
3125.28110,0.04531
3123.22093,0.04505
3121.16076,0.04489
3119.10058,0.04485
3117.04041,0.04483
3114.98024,0.04475
3112.92007,0.04473
3110.85990,0.04480
3108.79972,0.04472
3106.73955,0.04444
3104.67938,0.04412
3102.61921,0.04385
3100.55904,0.04368
3098.49886,0.04356
3096.43869,0.04343
3094.37852,0.04332
3092.31835,0.04326
3090.25818,0.04320
3088.19800,0.04307
3086.13783,0.04293
3084.07766,0.04277
3082.01749,0.04245
3079.95731,0.04211
3077.89714,0.04199
3075.83697,0.04192
3073.77680,0.04181
3071.71663,0.04177
3069.65645,0.04174
3067.59628,0.04159
3065.53611,0.04137
3063.47594,0.04125
3061.41577,0.04115
3059.35559,0.04081
3057.29542,0.04028
3055.23525,0.04000
3053.17508,0.04005
3051.11491,0.04011
3049.05473,0.04003
3046.99456,0.03977
3044.93439,0.03938
3042.87422,0.03903
3040.81404,0.03879
3038.75387,0.03860
3036.69370,0.03845
3034.63353,0.03835
3032.57336,0.03820
3030.51318,0.03796
3028.45301,0.03780
3026.39284,0.03771
3024.33267,0.03759
3022.27250,0.03744
3020.21232,0.03723
3018.15215,0.03700
3016.09198,0.03670
3014.03181,0.03638
3011.97163,0.03613
3009.91146,0.03593
3007.85129,0.03576
3005.79112,0.03564
3003.73095,0.03556
3001.67077,0.03548
2999.61060,0.03541
2997.55043,0.03517
2995.49026,0.03488
2993.43009,0.03464
2991.36991,0.03456
2989.30974,0.03453
2987.24957,0.03443
2985.18940,0.03428
2983.12923,0.03414
2981.06905,0.03413
2979.00888,0.03428
2976.94871,0.03432
2974.88854,0.03410
2972.82836,0.03382
2970.76819,0.03368
2968.70802,0.03367
2966.64785,0.03359
2964.58768,0.03346
2962.52750,0.03346
2960.46733,0.03358
2958.40716,0.03371
2956.34699,0.03368
2954.28682,0.03346
2952.22664,0.03334
2950.16647,0.03332
2948.10630,0.03326
2946.04613,0.03316
2943.98596,0.03293
2941.92578,0.03253
2939.86561,0.03230
2937.80544,0.03235
2935.74527,0.03245
2933.68509,0.03249
2931.62492,0.03247
2929.56475,0.03234
2927.50458,0.03215
2925.44441,0.03196
2923.38423,0.03178
2921.32406,0.03171
2919.26389,0.03171
2917.20372,0.03163
2915.14355,0.03154
2913.08337,0.03149
2911.02320,0.03128
2908.96303,0.03098
2906.90286,0.03081
2904.84268,0.03074
2902.78251,0.03063
2900.72234,0.03052
2898.66217,0.03049
2896.60200,0.03045
2894.54182,0.03037
2892.48165,0.03025
2890.42148,0.03016
2888.36131,0.03021
2886.30114,0.03026
2884.24096,0.03018
2882.18079,0.03007
2880.12062,0.02990
2878.06045,0.02963
2876.00028,0.02938
2873.94010,0.02919
2871.87993,0.02906
2869.81976,0.02897
2867.75959,0.02892
2865.69941,0.02875
2863.63924,0.02846
2861.57907,0.02830
2859.51890,0.02822
2857.45873,0.02804
2855.39855,0.02790
2853.33838,0.02789
2851.27821,0.02784
2849.21804,0.02769
2847.15787,0.02756
2845.09769,0.02741
2843.03752,0.02719
2840.97735,0.02697
2838.91718,0.02671
2836.85700,0.02651
2834.79683,0.02644
2832.73666,0.02637
2830.67649,0.02624
2828.61632,0.02613
2826.55614,0.02606
2824.49597,0.02598
2822.43580,0.02580
2820.37563,0.02551
2818.31546,0.02532
2816.25528,0.02534
2814.19511,0.02540
2812.13494,0.02537
2810.07477,0.02519
2808.01460,0.02484
2805.95442,0.02448
2803.89425,0.02426
2801.83408,0.02412
2799.77391,0.02401
2797.71373,0.02394
2795.65356,0.02385
2793.59339,0.02382
2791.53322,0.02381
2789.47305,0.02371
2787.41287,0.02351
2785.35270,0.02328
2783.29253,0.02316
2781.23236,0.02310
2779.17219,0.02296
2777.11201,0.02279
2775.05184,0.02268
2772.99167,0.02259
2770.93150,0.02249
2768.87133,0.02240
2766.81115,0.02232
2764.75098,0.02220
2762.69081,0.02200
2760.63064,0.02180
2758.57046,0.02177
2756.51029,0.02172
2754.45012,0.02153
2752.38995,0.02142
2750.32978,0.02142
2748.26960,0.02139
2746.20943,0.02129
2744.14926,0.02120
2742.08909,0.02113
2740.02892,0.02100
2737.96874,0.02081
2735.90857,0.02060
2733.84840,0.02046
2731.78823,0.02048
2729.72805,0.02058
2727.66788,0.02052
2725.60771,0.02025
2723.54754,0.02001
2721.48737,0.01989
2719.42719,0.01984
2717.36702,0.01987
2715.30685,0.01983
2713.24668,0.01962
2711.18651,0.01938
2709.12633,0.01920
2707.06616,0.01903
2705.00599,0.01892
2702.94582,0.01891
2700.88565,0.01888
2698.82547,0.01879
2696.76530,0.01864
2694.70513,0.01853
2692.64496,0.01844
2690.58478,0.01832
2688.52461,0.01817
2686.46444,0.01804
2684.40427,0.01798
2682.34410,0.01786
2680.28392,0.01773
2678.22375,0.01773
2676.16358,0.01772
2674.10341,0.01762
2672.04324,0.01751
2669.98306,0.01740
2667.92289,0.01731
2665.86272,0.01723
2663.80255,0.01713
2661.74238,0.01708
2659.68220,0.01707
2657.62203,0.01700
2655.56186,0.01681
2653.50169,0.01654
2651.44151,0.01629
2649.38134,0.01615
2647.32117,0.01610
2645.26100,0.01608
2643.20083,0.01607
2641.14065,0.01605
2639.08048,0.01598
2637.02031,0.01595
2634.96014,0.01590
2632.89997,0.01568
2630.83979,0.01545
2628.77962,0.01527
2626.71945,0.01511
2624.65928,0.01512
2622.59910,0.01514
2620.53893,0.01502
2618.47876,0.01493
2616.41859,0.01497
2614.35842,0.01511
2612.29824,0.01515
2610.23807,0.01500
2608.17790,0.01483
2606.11773,0.01473
2604.05756,0.01468
2601.99738,0.01469
2599.93721,0.01470
2597.87704,0.01458
2595.81687,0.01437
2593.75670,0.01423
2591.69652,0.01422
2589.63635,0.01441
2587.57618,0.01466
2585.51601,0.01461
2583.45583,0.01435
2581.39566,0.01433
2579.33549,0.01449
2577.27532,0.01446
2575.21515,0.01421
2573.15497,0.01399
2571.09480,0.01384
2569.03463,0.01382
2566.97446,0.01398
2564.91429,0.01419
2562.85411,0.01429
2560.79394,0.01420
2558.73377,0.01398
2556.67360,0.01383
2554.61342,0.01388
2552.55325,0.01405
2550.49308,0.01413
2548.43291,0.01408
2546.37274,0.01402
2544.31256,0.01414
2542.25239,0.01435
2540.19222,0.01429
2538.13205,0.01399
2536.07188,0.01391
2534.01170,0.01414
2531.95153,0.01437
2529.89136,0.01456
2527.83119,0.01471
2525.77102,0.01458
2523.71084,0.01436
2521.65067,0.01430
2519.59050,0.01425
2517.53033,0.01418
2515.47015,0.01418
2513.40998,0.01420
2511.34981,0.01425
2509.28964,0.01440
2507.22947,0.01464
2505.16929,0.01472
2503.10912,0.01450
2501.04895,0.01422
2498.98878,0.01400
2496.92861,0.01393
2494.86843,0.01423
2492.80826,0.01477
2490.74809,0.01506
2488.68792,0.01494
2486.62775,0.01487
2484.56757,0.01513
2482.50740,0.01530
2480.44723,0.01516
2478.38706,0.01507
2476.32688,0.01523
2474.26671,0.01547
2472.20654,0.01555
2470.14637,0.01550
2468.08620,0.01545
2466.02602,0.01533
2463.96585,0.01524
2461.90568,0.01538
2459.84551,0.01557
2457.78534,0.01557
2455.72516,0.01549
2453.66499,0.01545
2451.60482,0.01534
2449.54465,0.01519
2447.48447,0.01521
2445.42430,0.01543
2443.36413,0.01568
2441.30396,0.01590
2439.24379,0.01609
2437.18361,0.01611
2435.12344,0.01575
2433.06327,0.01531
2431.00310,0.01518
2428.94293,0.01539
2426.88275,0.01571
2424.82258,0.01573
2422.76241,0.01547
2420.70224,0.01529
2418.64207,0.01527
2416.58189,0.01523
2414.52172,0.01523
2412.46155,0.01518
2410.40138,0.01502
2408.34120,0.01508
2406.28103,0.01529
2404.22086,0.01528
2402.16069,0.01524
2400.10052,0.01538
2398.04034,0.01548
2395.98017,0.01554
2393.92000,0.01541
2391.85983,0.01512
2389.79966,0.01496
2387.73948,0.01504
2385.67931,0.01502
2383.61914,0.01458
2381.55897,0.01376
2379.49880,0.01291
2377.43862,0.01230
2375.37845,0.01184
2373.31828,0.01147
2371.25811,0.01115
2369.19793,0.01112
2367.13776,0.01130
2365.07759,0.01071
2363.01742,0.00920
2360.95725,0.00870
2358.89707,0.00901
2356.83690,0.00984
2354.77673,0.01087
2352.71656,0.01178
2350.65639,0.01264
2348.59621,0.01261
2346.53604,0.01089
2344.47587,0.01027
2342.41570,0.01085
2340.35552,0.01138
2338.29535,0.01120
2336.23518,0.01079
2334.17501,0.01069
2332.11484,0.01058
2330.05466,0.01052
2327.99449,0.01057
2325.93432,0.01088
2323.87415,0.01082
2321.81398,0.01076
2319.75380,0.01067
2317.69363,0.01079
2315.63346,0.01079
2313.57329,0.01081
2311.51312,0.01106
2309.45294,0.01139
2307.39277,0.01165
2305.33260,0.01186
2303.27243,0.01208
2301.21225,0.01218
2299.15208,0.01208
2297.09191,0.01197
2295.03174,0.01215
2292.97157,0.01253
2290.91139,0.01275
2288.85122,0.01282
2286.79105,0.01288
2284.73088,0.01286
2282.67071,0.01281
2280.61053,0.01285
2278.55036,0.01291
2276.49019,0.01289
2274.43002,0.01298
2272.36984,0.01307
2270.30967,0.01300
2268.24950,0.01304
2266.18933,0.01317
2264.12916,0.01301
2262.06898,0.01267
2260.00881,0.01241
2257.94864,0.01218
2255.88847,0.01188
2253.82830,0.01158
2251.76812,0.01145
2249.70795,0.01147
2247.64778,0.01155
2245.58761,0.01150
2243.52744,0.01113
2241.46726,0.01083
2239.40709,0.01088
2237.34692,0.01090
2235.28675,0.01091
2233.22657,0.01126
2231.16640,0.01167
2229.10623,0.01159
2227.04606,0.01104
2224.98589,0.01079
2222.92571,0.01087
2220.86554,0.01057
2218.80537,0.01002
2216.74520,0.00994
2214.68503,0.01035
2212.62485,0.01059
2210.56468,0.01042
2208.50451,0.01024
2206.44434,0.01029
2204.38417,0.01037
2202.32399,0.01027
2200.26382,0.00956
2198.20365,0.00895
2196.14348,0.00961
2194.08330,0.01023
2192.02313,0.00981
2189.96296,0.00950
2187.90279,0.00940
2185.84262,0.00885
2183.78244,0.00850
2181.72227,0.00865
2179.66210,0.00888
2177.60193,0.00945
2175.54176,0.01009
2173.48158,0.00991
2171.42141,0.00918
2169.36124,0.00873
2167.30107,0.00881
2165.24089,0.00891
2163.18072,0.00808
2161.12055,0.00639
2159.06038,0.00561
2157.00021,0.00630
2154.94003,0.00707
2152.87986,0.00756
2150.81969,0.00824
2148.75952,0.00846
2146.69935,0.00785
2144.63917,0.00737
2142.57900,0.00767
2140.51883,0.00838
2138.45866,0.00880
2136.39849,0.00879
2134.33831,0.00867
2132.27814,0.00857
2130.21797,0.00853
2128.15780,0.00864
2126.09762,0.00875
2124.03745,0.00854
2121.97728,0.00838
2119.91711,0.00848
2117.85694,0.00834
2115.79676,0.00808
2113.73659,0.00827
2111.67642,0.00853
2109.61625,0.00830
2107.55608,0.00814
2105.49590,0.00811
2103.43573,0.00794
2101.37556,0.00814
2099.31539,0.00889
2097.25521,0.00920
2095.19504,0.00887
2093.13487,0.00815
2091.07470,0.00755
2089.01453,0.00730
2086.95435,0.00723
2084.89418,0.00710
2082.83401,0.00709
2080.77384,0.00742
2078.71367,0.00781
2076.65349,0.00812
2074.59332,0.00837
2072.53315,0.00825
2070.47298,0.00806
2068.41281,0.00839
2066.35263,0.00858
2064.29246,0.00795
2062.23229,0.00710
2060.17212,0.00675
2058.11194,0.00683
2056.05177,0.00728
2053.99160,0.00816
2051.93143,0.00882
2049.87126,0.00891
2047.81108,0.00893
2045.75091,0.00921
2043.69074,0.00932
2041.63057,0.00871
2039.57040,0.00790
2037.51022,0.00743
2035.45005,0.00721
2033.38988,0.00689
2031.32971,0.00594
2029.26954,0.00532
2027.20936,0.00599
2025.14919,0.00642
2023.08902,0.00614
2021.02885,0.00656
2018.96867,0.00725
2016.90850,0.00721
2014.84833,0.00689
2012.78816,0.00690
2010.72799,0.00739
2008.66781,0.00783
2006.60764,0.00724
2004.54747,0.00567
2002.48730,0.00483
2000.42713,0.00568
1998.36695,0.00681
1996.30678,0.00683
1994.24661,0.00627
1992.18644,0.00584
1990.12626,0.00571
1988.06609,0.00603
1986.00592,0.00665
1983.94575,0.00735
1981.88558,0.00783
1979.82540,0.00802
1977.76523,0.00822
1975.70506,0.00830
1973.64489,0.00826
1971.58472,0.00838
1969.52454,0.00825
1967.46437,0.00779
1965.40420,0.00723
1963.34403,0.00639
1961.28386,0.00578
1959.22368,0.00581
1957.16351,0.00594
1955.10334,0.00569
1953.04317,0.00544
1950.98299,0.00573
1948.92282,0.00653
1946.86265,0.00716
1944.80248,0.00713
1942.74231,0.00683
1940.68213,0.00681
1938.62196,0.00706
1936.56179,0.00713
1934.50162,0.00673
1932.44145,0.00625
1930.38127,0.00631
1928.32110,0.00684
1926.26093,0.00714
1924.20076,0.00698
1922.14059,0.00665
1920.08041,0.00636
1918.02024,0.00628
1915.96007,0.00648
1913.89990,0.00683
1911.83972,0.00707
1909.77955,0.00711
1907.71938,0.00718
1905.65921,0.00738
1903.59904,0.00747
1901.53886,0.00733
1899.47869,0.00724
1897.41852,0.00729
1895.35835,0.00712
1893.29818,0.00670
1891.23800,0.00658
1889.17783,0.00698
1887.11766,0.00741
1885.05749,0.00744
1882.99731,0.00714
1880.93714,0.00691
1878.87697,0.00694
1876.81680,0.00715
1874.75663,0.00748
1872.69645,0.00790
1870.63628,0.00824
1868.57611,0.00829
1866.51594,0.00807
1864.45577,0.00785
1862.39559,0.00775
1860.33542,0.00770
1858.27525,0.00774
1856.21508,0.00789
1854.15491,0.00790
1852.09473,0.00774
1850.03456,0.00759
1847.97439,0.00750
1845.91422,0.00733
1843.85404,0.00723
1841.79387,0.00742
1839.73370,0.00770
1837.67353,0.00777
1835.61336,0.00761
1833.55318,0.00758
1831.49301,0.00787
1829.43284,0.00817
1827.37267,0.00826
1825.31250,0.00832
1823.25232,0.00850
1821.19215,0.00864
1819.13198,0.00863
1817.07181,0.00860
1815.01163,0.00861
1812.95146,0.00846
1810.89129,0.00816
1808.83112,0.00801
1806.77095,0.00809
1804.71077,0.00816
1802.65060,0.00811
1800.59043,0.00814
1798.53026,0.00829
1796.47009,0.00837
1794.40991,0.00845
1792.34974,0.00856
1790.28957,0.00857
1788.22940,0.00838
1786.16923,0.00815
1784.10905,0.00818
1782.04888,0.00845
1779.98871,0.00858
1777.92854,0.00848
1775.86836,0.00851
1773.80819,0.00884
1771.74802,0.00905
1769.68785,0.00880
1767.62768,0.00862
1765.56750,0.00886
1763.50733,0.00921
1761.44716,0.00929
1759.38699,0.00924
1757.32682,0.00935
1755.26664,0.00957
1753.20647,0.00979
1751.14630,0.01011
1749.08613,0.01045
1747.02596,0.01051
1744.96578,0.01046
1742.90561,0.01072
1740.84544,0.01114
1738.78527,0.01130
1736.72509,0.01130
1734.66492,0.01145
1732.60475,0.01161
1730.54458,0.01166
1728.48441,0.01157
1726.42423,0.01145
1724.36406,0.01136
1722.30389,0.01141
1720.24372,0.01171
1718.18355,0.01202
1716.12337,0.01187
1714.06320,0.01164
1712.00303,0.01158
1709.94286,0.01178
1707.88268,0.01207
1705.82251,0.01220
1703.76234,0.01223
1701.70217,0.01252
1699.64200,0.01303
1697.58182,0.01363
1695.52165,0.01433
1693.46148,0.01495
1691.40131,0.01545
1689.34114,0.01605
1687.28096,0.01676
1685.22079,0.01764
1683.16062,0.01844
1681.10045,0.01894
1679.04028,0.01937
1676.98010,0.02012
1674.91993,0.02122
1672.85976,0.02225
1670.79959,0.02308
1668.73941,0.02371
1666.67924,0.02406
1664.61907,0.02444
1662.55890,0.02496
1660.49873,0.02521
1658.43855,0.02521
1656.37838,0.02544
1654.31821,0.02606
1652.25804,0.02638
1650.19787,0.02617
1648.13769,0.02590
1646.07752,0.02573
1644.01735,0.02543
1641.95718,0.02521
1639.89701,0.02525
1637.83683,0.02539
1635.77666,0.02522
1633.71649,0.02468
1631.65632,0.02415
1629.59614,0.02382
1627.53597,0.02361
1625.47580,0.02338
1623.41563,0.02307
1621.35546,0.02268
1619.29528,0.02248
1617.23511,0.02243
1615.17494,0.02210
1613.11477,0.02164
1611.05460,0.02134
1608.99442,0.02112
1606.93425,0.02084
1604.87408,0.02054
1602.81391,0.02026
1600.75373,0.01992
1598.69356,0.01963
1596.63339,0.01945
1594.57322,0.01921
1592.51305,0.01878
1590.45287,0.01830
1588.39270,0.01796
1586.33253,0.01771
1584.27236,0.01739
1582.21219,0.01701
1580.15201,0.01682
1578.09184,0.01676
1576.03167,0.01633
1573.97150,0.01556
1571.91133,0.01511
1569.85115,0.01497
1567.79098,0.01464
1565.73081,0.01420
1563.67064,0.01396
1561.61046,0.01413
1559.55029,0.01428
1557.49012,0.01361
1555.42995,0.01284
1553.36978,0.01235
1551.30960,0.01212
1549.24943,0.01204
1547.18926,0.01199
1545.12909,0.01200
1543.06892,0.01214
1541.00874,0.01226
1538.94857,0.01182
1536.88840,0.01108
1534.82823,0.01069
1532.76805,0.01059
1530.70788,0.01037
1528.64771,0.01011
1526.58754,0.00979
1524.52737,0.00942
1522.46719,0.00919
1520.40702,0.00903
1518.34685,0.00887
1516.28668,0.00855
1514.22651,0.00797
1512.16633,0.00751
1510.10616,0.00754
1508.04599,0.00786
1505.98582,0.00792
1503.92565,0.00762
1501.86547,0.00733
1499.80530,0.00740
1497.74513,0.00760
1495.68496,0.00762
1493.62478,0.00766
1491.56461,0.00780
1489.50444,0.00778
1487.44427,0.00759
1485.38410,0.00741
1483.32392,0.00730
1481.26375,0.00733
1479.20358,0.00743
1477.14341,0.00756
1475.08324,0.00773
1473.02306,0.00792
1470.96289,0.00800
1468.90272,0.00809
1466.84255,0.00840
1464.78238,0.00871
1462.72220,0.00875
1460.66203,0.00884
1458.60186,0.00902
1456.54169,0.00883
1454.48151,0.00858
1452.42134,0.00859
1450.36117,0.00890
1448.30100,0.00935
1446.24083,0.00966
1444.18065,0.00977
1442.12048,0.00975
1440.06031,0.00967
1438.00014,0.00955
1435.93997,0.00943
1433.87979,0.00950
1431.81962,0.00981
1429.75945,0.01028
1427.69928,0.01066
1425.63910,0.01092
1423.57893,0.01110
1421.51876,0.01121
1419.45859,0.01124
1417.39842,0.01130
1415.33824,0.01155
1413.27807,0.01193
1411.21790,0.01226
1409.15773,0.01247
1407.09756,0.01258
1405.03738,0.01259
1402.97721,0.01253
1400.91704,0.01234
1398.85687,0.01202
1396.79670,0.01179
1394.73652,0.01175
1392.67635,0.01168
1390.61618,0.01158
1388.55601,0.01160
1386.49583,0.01175
1384.43566,0.01188
1382.37549,0.01190
1380.31532,0.01186
1378.25515,0.01188
1376.19497,0.01196
1374.13480,0.01191
1372.07463,0.01174
1370.01446,0.01169
1367.95429,0.01179
1365.89411,0.01181
1363.83394,0.01167
1361.77377,0.01149
1359.71360,0.01143
1357.65343,0.01142
1355.59325,0.01138
1353.53308,0.01131
1351.47291,0.01119
1349.41274,0.01100
1347.35256,0.01076
1345.29239,0.01049
1343.23222,0.01013
1341.17205,0.00967
1339.11188,0.00929
1337.05170,0.00925
1334.99153,0.00943
1332.93136,0.00948
1330.87119,0.00932
1328.81102,0.00915
1326.75084,0.00910
1324.69067,0.00911
1322.63050,0.00909
1320.57033,0.00905
1318.51015,0.00896
1316.44998,0.00881
1314.38981,0.00872
1312.32964,0.00872
1310.26947,0.00869
1308.20929,0.00857
1306.14912,0.00849
1304.08895,0.00854
1302.02878,0.00863
1299.96861,0.00870
1297.90843,0.00879
1295.84826,0.00892
1293.78809,0.00905
1291.72792,0.00904
1289.66775,0.00893
1287.60757,0.00883
1285.54740,0.00881
1283.48723,0.00885
1281.42706,0.00885
1279.36688,0.00878
1277.30671,0.00877
1275.24654,0.00882
1273.18637,0.00881
1271.12620,0.00877
1269.06602,0.00876
1267.00585,0.00872
1264.94568,0.00871
1262.88551,0.00883
1260.82534,0.00899
1258.76516,0.00912
1256.70499,0.00917
1254.64482,0.00916
1252.58465,0.00912
1250.52447,0.00906
1248.46430,0.00899
1246.40413,0.00888
1244.34396,0.00876
1242.28379,0.00866
1240.22361,0.00848
1238.16344,0.00827
1236.10327,0.00812
1234.04310,0.00801
1231.98293,0.00787
1229.92275,0.00768
1227.86258,0.00737
1225.80241,0.00702
1223.74224,0.00679
1221.68207,0.00657
1219.62189,0.00631
1217.56172,0.00608
1215.50155,0.00582
1213.44138,0.00553
1211.38120,0.00524
1209.32103,0.00501
1207.26086,0.00492
1205.20069,0.00494
1203.14052,0.00499
1201.08034,0.00507
1199.02017,0.00525
1196.96000,0.00559
1194.89983,0.00589
1192.83966,0.00605
1190.77948,0.00624
1188.71931,0.00666
1186.65914,0.00734
1184.59897,0.00813
1182.53880,0.00888
1180.47862,0.00965
1178.41845,0.01054
1176.35828,0.01136
1174.29811,0.01208
1172.23793,0.01293
1170.17776,0.01393
1168.11759,0.01493
1166.05742,0.01596
1163.99725,0.01712
1161.93707,0.01829
1159.87690,0.01942
1157.81673,0.02062
1155.75656,0.02184
1153.69639,0.02304
1151.63621,0.02433
1149.57604,0.02568
1147.51587,0.02702
1145.45570,0.02830
1143.39552,0.02953
1141.33535,0.03074
1139.27518,0.03196
1137.21501,0.03311
1135.15484,0.03418
1133.09466,0.03538
1131.03449,0.03676
1128.97432,0.03812
1126.91415,0.03943
1124.85398,0.04082
1122.79380,0.04241
1120.73363,0.04406
1118.67346,0.04557
1116.61329,0.04707
1114.55312,0.04875
1112.49294,0.05046
1110.43277,0.05210
1108.37260,0.05371
1106.31243,0.05533
1104.25225,0.05694
1102.19208,0.05852
1100.13191,0.06011
1098.07174,0.06157
1096.01157,0.06283
1093.95139,0.06408
1091.89122,0.06543
1089.83105,0.06684
1087.77088,0.06821
1085.71071,0.06934
1083.65053,0.07029
1081.59036,0.07145
1079.53019,0.07278
1077.47002,0.07395
1075.40985,0.07486
1073.34967,0.07562
1071.28950,0.07617
1069.22933,0.07644
1067.16916,0.07645
1065.10898,0.07609
1063.04881,0.07546
1060.98864,0.07477
1058.92847,0.07380
1056.86830,0.07243
1054.80812,0.07084
1052.74795,0.06912
1050.68778,0.06716
1048.62761,0.06491
1046.56744,0.06251
1044.50726,0.06006
1042.44709,0.05753
1040.38692,0.05497
1038.32675,0.05247
1036.26657,0.04994
1034.20640,0.04729
1032.14623,0.04468
1030.08606,0.04243
1028.02589,0.04053
1025.96571,0.03881
1023.90554,0.03732
1021.84537,0.03596
1019.78520,0.03471
1017.72503,0.03367
1015.66485,0.03299
1013.60468,0.03270
1011.54451,0.03268
1009.48434,0.03300
1007.42417,0.03363
1005.36399,0.03441
1003.30382,0.03540
1001.24365,0.03661
999.18348,0.03792
997.12330,0.03939
995.06313,0.04088
993.00296,0.04219
990.94279,0.04338
988.88262,0.04448
986.82244,0.04537
984.76227,0.04600
982.70210,0.04637
980.64193,0.04657
978.58176,0.04655
976.52158,0.04630
974.46141,0.04595
972.40124,0.04537
970.34107,0.04442
968.28089,0.04314
966.22072,0.04167
964.16055,0.04019
962.10038,0.03876
960.04021,0.03744
957.98003,0.03631
955.91986,0.03523
953.85969,0.03406
951.79952,0.03294
949.73935,0.03182
947.67917,0.03065
945.61900,0.02962
943.55883,0.02871
941.49866,0.02781
939.43849,0.02685
937.37831,0.02583
935.31814,0.02482
933.25797,0.02388
931.19780,0.02311
929.13762,0.02241
927.07745,0.02160
925.01728,0.02073
922.95711,0.01988
920.89694,0.01904
918.83676,0.01828
916.77659,0.01764
914.71642,0.01690
912.65625,0.01612
910.59608,0.01554
908.53590,0.01512
906.47573,0.01480
904.41556,0.01456
902.35539,0.01451
900.29522,0.01460
898.23504,0.01460
896.17487,0.01468
894.11470,0.01507
892.05453,0.01574
889.99435,0.01647
887.93418,0.01709
885.87401,0.01778
883.81384,0.01858
881.75367,0.01940
879.69349,0.02027
877.63332,0.02130
875.57315,0.02254
873.51298,0.02391
871.45281,0.02531
869.39263,0.02675
867.33246,0.02814
865.27229,0.02921
863.21212,0.03019
861.15194,0.03123
859.09177,0.03200
857.03160,0.03228
854.97143,0.03228
852.91126,0.03218
850.85108,0.03197
848.79091,0.03144
846.73074,0.03063
844.67057,0.02975
842.61040,0.02873
840.55022,0.02768
838.49005,0.02672
836.42988,0.02562
834.36971,0.02451
832.30954,0.02363
830.24936,0.02290
828.18919,0.02214
826.12902,0.02117
824.06885,0.02023
822.00867,0.01963
819.94850,0.01900
817.88833,0.01822
815.82816,0.01753
813.76799,0.01695
811.70781,0.01624
809.64764,0.01542
807.58747,0.01491
805.52730,0.01474
803.46713,0.01449
801.40695,0.01399
799.34678,0.01342
797.28661,0.01306
795.22644,0.01286
793.16627,0.01265
791.10609,0.01230
789.04592,0.01179
786.98575,0.01137
784.92558,0.01117
782.86540,0.01098
780.80523,0.01072
778.74506,0.01057
776.68489,0.01062
774.62472,0.01043
772.56454,0.01000
770.50437,0.00977
768.44420,0.00967
766.38403,0.00943
764.32386,0.00918
762.26368,0.00902
760.20351,0.00881
758.14334,0.00855
756.08317,0.00824
754.02299,0.00790
751.96282,0.00790
749.90265,0.00826
747.84248,0.00827
745.78231,0.00787
743.72213,0.00757
741.66196,0.00698
739.60179,0.00609
737.54162,0.00588
735.48145,0.00636
733.42127,0.00677
731.36110,0.00667
729.30093,0.00625
727.24076,0.00603
725.18059,0.00603
723.12041,0.00600
721.06024,0.00583
719.00007,0.00614
716.93990,0.00644
714.87972,0.00632
712.81955,0.00617
710.75938,0.00612
708.69921,0.00575
706.63904,0.00532
704.57886,0.00542
702.51869,0.00580
700.45852,0.00590
698.39835,0.00558
696.33818,0.00512
694.27800,0.00495
692.21783,0.00504
690.15766,0.00499
688.09749,0.00488
686.03731,0.00507
683.97714,0.00550
681.91697,0.00588
679.85680,0.00581
677.79663,0.00508
675.73645,0.00440
673.67628,0.00448
671.61611,0.00472
669.55594,0.00302
667.49577,0.00105
665.43559,0.00413
663.37542,0.00493
661.31525,0.00495
659.25508,0.00445
657.19491,0.00340
655.13473,0.00292
653.07456,0.00349
651.01439,0.00416
648.95422,0.00413
646.89404,0.00398
644.83387,0.00413
642.77370,0.00440
640.71353,0.00443
638.65336,0.00418
636.59318,0.00401
634.53301,0.00419
632.47284,0.00449
630.41267,0.00450
628.35250,0.00423
626.29232,0.00383
624.23215,0.00316
622.17198,0.00310
620.11181,0.00369
618.05164,0.00351
615.99146,0.00213
613.93129,0.00063
611.87112,0.00001
609.81095,0.00000
607.75077,-0.00002
605.69060,0.00040
603.63043,0.00077
601.57026,0.00040
599.51009,0.00000
