3996.73391,0.00025
3994.67373,0.00023
3992.61356,0.00043
3990.55339,0.00049
3988.49322,0.00032
3986.43305,0.00015
3984.37287,0.00000
3982.31270,0.00002
3980.25253,0.00034
3978.19236,0.00064
3976.13219,0.00071
3974.07201,0.00087
3972.01184,0.00113
3969.95167,0.00108
3967.89150,0.00069
3965.83133,0.00033
3963.77115,0.00017
3961.71098,0.00018
3959.65081,0.00021
3957.59064,0.00018
3955.53046,0.00032
3953.47029,0.00064
3951.41012,0.00089
3949.34995,0.00095
3947.28978,0.00076
3945.22960,0.00045
3943.16943,0.00044
3941.10926,0.00056
3939.04909,0.00050
3936.98892,0.00055
3934.92874,0.00091
3932.86857,0.00136
3930.80840,0.00162
3928.74823,0.00143
3926.68805,0.00104
3924.62788,0.00099
3922.56771,0.00119
3920.50754,0.00119
3918.44737,0.00087
3916.38719,0.00048
3914.32702,0.00035
3912.26685,0.00047
3910.20668,0.00072
3908.14651,0.00101
3906.08633,0.00119
3904.02616,0.00123
3901.96599,0.00105
3899.90582,0.00053
3897.84565,0.00001
3895.78547,0.00000
3893.72530,0.00059
3891.66513,0.00129
3889.60496,0.00135
3887.54478,0.00091
3885.48461,0.00077
3883.42444,0.00119
3881.36427,0.00159
3879.30410,0.00124
3877.24392,0.00055
3875.18375,0.00066
3873.12358,0.00148
3871.06341,0.00186
3869.00324,0.00158
3866.94306,0.00135
3864.88289,0.00133
3862.82272,0.00108
3860.76255,0.00054
3858.70237,0.00042
3856.64220,0.00121
3854.58203,0.00245
3852.52186,0.00274
3850.46169,0.00174
3848.40151,0.00099
3846.34134,0.00130
3844.28117,0.00222
3842.22100,0.00286
3840.16083,0.00281
3838.10065,0.00216
3836.04048,0.00120
3833.98031,0.00058
3831.92014,0.00041
3829.85997,0.00055
3827.79979,0.00092
3825.73962,0.00117
3823.67945,0.00109
3821.61928,0.00107
3819.55910,0.00129
3817.49893,0.00163
3815.43876,0.00181
3813.37859,0.00143
3811.31842,0.00083
3809.25824,0.00083
3807.19807,0.00123
3805.13790,0.00092
3803.07773,0.00029
3801.01756,0.00060
3798.95738,0.00156
3796.89721,0.00198
3794.83704,0.00179
3792.77687,0.00141
3790.71670,0.00104
3788.65652,0.00063
3786.59635,0.00042
3784.53618,0.00068
3782.47601,0.00112
3780.41583,0.00133
3778.35566,0.00126
3776.29549,0.00104
3774.23532,0.00079
3772.17515,0.00071
3770.11497,0.00096
3768.05480,0.00126
3765.99463,0.00113
3763.93446,0.00085
3761.87429,0.00108
3759.81411,0.00176
3757.75394,0.00212
3755.69377,0.00202
3753.63360,0.00252
3751.57342,0.00363
3749.51325,0.00355
3747.45308,0.00233
3745.39291,0.00184
3743.33274,0.00215
3741.27256,0.00224
3739.21239,0.00228
3737.15222,0.00213
3735.09205,0.00105
3733.03188,0.00002
3730.97170,0.00000
3728.91153,0.00045
3726.85136,0.00101
3724.79119,0.00154
3722.73102,0.00172
3720.67084,0.00158
3718.61067,0.00147
3716.55050,0.00157
3714.49033,0.00191
3712.43015,0.00244
3710.36998,0.00259
3708.30981,0.00208
3706.24964,0.00157
3704.18947,0.00121
3702.12929,0.00094
3700.06912,0.00105
3698.00895,0.00161
3695.94878,0.00220
3693.88861,0.00238
3691.82843,0.00216
3689.76826,0.00186
3687.70809,0.00165
3685.64792,0.00131
3683.58775,0.00091
3681.52757,0.00086
3679.46740,0.00114
3677.40723,0.00163
3675.34706,0.00241
3673.28688,0.00286
3671.22671,0.00262
3669.16654,0.00239
3667.10637,0.00257
3665.04620,0.00284
3662.98602,0.00293
3660.92585,0.00278
3658.86568,0.00256
3656.80551,0.00244
3654.74534,0.00231
3652.68516,0.00221
3650.62499,0.00236
3648.56482,0.00256
3646.50465,0.00240
3644.44447,0.00203
3642.38430,0.00208
3640.32413,0.00279
3638.26396,0.00369
3636.20379,0.00410
3634.14361,0.00395
3632.08344,0.00362
3630.02327,0.00335
3627.96310,0.00325
3625.90293,0.00332
3623.84275,0.00363
3621.78258,0.00428
3619.72241,0.00490
3617.66224,0.00522
3615.60207,0.00567
3613.54189,0.00628
3611.48172,0.00645
3609.42155,0.00608
3607.36138,0.00566
3605.30120,0.00566
3603.24103,0.00606
3601.18086,0.00650
3599.12069,0.00673
3597.06052,0.00656
3595.00034,0.00607
3592.94017,0.00564
3590.88000,0.00555
3588.81983,0.00580
3586.75966,0.00612
3584.69948,0.00613
3582.63931,0.00608
3580.57914,0.00632
3578.51897,0.00685
3576.45879,0.00730
3574.39862,0.00733
3572.33845,0.00712
3570.27828,0.00715
3568.21811,0.00776
3566.15793,0.00879
3564.09776,0.00946
3562.03759,0.00932
3559.97742,0.00880
3557.91725,0.00861
3555.85707,0.00880
3553.79690,0.00885
3551.73673,0.00877
3549.67656,0.00904
3547.61639,0.00972
3545.55621,0.01026
3543.49604,0.01031
3541.43587,0.01007
3539.37570,0.00989
3537.31552,0.00997
3535.25535,0.01009
3533.19518,0.01003
3531.13501,0.01006
3529.07484,0.01059
3527.01466,0.01136
3524.95449,0.01172
3522.89432,0.01140
3520.83415,0.01083
3518.77398,0.01060
3516.71380,0.01095
3514.65363,0.01153
3512.59346,0.01181
3510.53329,0.01164
3508.47312,0.01138
3506.41294,0.01146
3504.35277,0.01186
3502.29260,0.01217
3500.23243,0.01233
3498.17225,0.01262
3496.11208,0.01296
3494.05191,0.01315
3491.99174,0.01320
3489.93157,0.01312
3487.87139,0.01291
3485.81122,0.01257
3483.75105,0.01238
3481.69088,0.01280
3479.63071,0.01338
3477.57053,0.01334
3475.51036,0.01304
3473.45019,0.01327
3471.39002,0.01383
3469.32984,0.01407
3467.26967,0.01416
3465.20950,0.01448
3463.14933,0.01501
3461.08916,0.01530
3459.02898,0.01511
3456.96881,0.01500
3454.90864,0.01526
3452.84847,0.01568
3450.78830,0.01601
3448.72812,0.01604
3446.66795,0.01601
3444.60778,0.01604
3442.54761,0.01605
3440.48744,0.01594
3438.42726,0.01561
3436.36709,0.01551
3434.30692,0.01586
3432.24675,0.01627
3430.18657,0.01656
3428.12640,0.01661
3426.06623,0.01642
3424.00606,0.01634
3421.94589,0.01648
3419.88571,0.01650
3417.82554,0.01632
3415.76537,0.01641
3413.70520,0.01679
3411.64503,0.01700
3409.58485,0.01707
3407.52468,0.01711
3405.46451,0.01707
3403.40434,0.01695
3401.34416,0.01690
3399.28399,0.01698
3397.22382,0.01700
3395.16365,0.01698
3393.10348,0.01721
3391.04330,0.01762
3388.98313,0.01778
3386.92296,0.01758
3384.86279,0.01759
3382.80262,0.01805
3380.74244,0.01833
3378.68227,0.01806
3376.62210,0.01764
3374.56193,0.01745
3372.50176,0.01752
3370.44158,0.01759
3368.38141,0.01774
3366.32124,0.01809
3364.26107,0.01813
3362.20089,0.01781
3360.14072,0.01788
3358.08055,0.01826
3356.02038,0.01849
3353.96021,0.01883
3351.90003,0.01927
3349.83986,0.01940
3347.77969,0.01940
3345.71952,0.01942
3343.65935,0.01939
3341.59917,0.01927
3339.53900,0.01889
3337.47883,0.01847
3335.41866,0.01835
3333.35849,0.01845
3331.29831,0.01886
3329.23814,0.01942
3327.17797,0.01953
3325.11780,0.01911
3323.05762,0.01871
3320.99745,0.01871
3318.93728,0.01867
3316.87711,0.01853
3314.81694,0.01888
3312.75676,0.01926
3310.69659,0.01912
3308.63642,0.01906
3306.57625,0.01941
3304.51608,0.01982
3302.45590,0.02007
3300.39573,0.01998
3298.33556,0.01959
3296.27539,0.01939
3294.21521,0.01976
3292.15504,0.02035
3290.09487,0.02039
3288.03470,0.01977
3285.97453,0.01927
3283.91435,0.01912
3281.85418,0.01895
3279.79401,0.01892
3277.73384,0.01929
3275.67367,0.01972
3273.61349,0.01993
3271.55332,0.01992
3269.49315,0.01976
3267.43298,0.01941
3265.37281,0.01910
3263.31263,0.01930
3261.25246,0.01982
3259.19229,0.01998
3257.13212,0.01976
3255.07194,0.01967
3253.01177,0.01968
3250.95160,0.01958
3248.89143,0.01954
3246.83126,0.01966
3244.77108,0.01983
3242.71091,0.01988
3240.65074,0.01960
3238.59057,0.01927
3236.53040,0.01923
3234.47022,0.01939
3232.41005,0.01954
3230.34988,0.01934
3228.28971,0.01880
3226.22954,0.01864
3224.16936,0.01887
3222.10919,0.01893
3220.04902,0.01887
3217.98885,0.01893
3215.92867,0.01893
3213.86850,0.01881
3211.80833,0.01874
3209.74816,0.01858
3207.68799,0.01822
3205.62781,0.01798
3203.56764,0.01806
3201.50747,0.01816
3199.44730,0.01803
3197.38713,0.01801
3195.32695,0.01841
3193.26678,0.01884
3191.20661,0.01889
3189.14644,0.01864
3187.08626,0.01852
3185.02609,0.01866
3182.96592,0.01850
3180.90575,0.01790
3178.84558,0.01746
3176.78540,0.01743
3174.72523,0.01754
3172.66506,0.01756
3170.60489,0.01767
3168.54472,0.01802
3166.48454,0.01808
3164.42437,0.01768
3162.36420,0.01746
3160.30403,0.01756
3158.24386,0.01767
3156.18368,0.01763
3154.12351,0.01743
3152.06334,0.01725
3150.00317,0.01715
3147.94299,0.01697
3145.88282,0.01669
3143.82265,0.01640
3141.76248,0.01616
3139.70231,0.01614
3137.64213,0.01622
3135.58196,0.01611
3133.52179,0.01596
3131.46162,0.01606
3129.40145,0.01632
3127.34127,0.01638
3125.28110,0.01612
3123.22093,0.01575
3121.16076,0.01562
3119.10058,0.01570
3117.04041,0.01555
3114.98024,0.01525
3112.92007,0.01527
3110.85990,0.01564
3108.79972,0.01602
3106.73955,0.01606
3104.67938,0.01583
3102.61921,0.01567
3100.55904,0.01552
3098.49886,0.01514
3096.43869,0.01479
3094.37852,0.01480
3092.31835,0.01494
3090.25818,0.01495
3088.19800,0.01491
3086.13783,0.01494
3084.07766,0.01493
3082.01749,0.01479
3079.95731,0.01461
3077.89714,0.01464
3075.83697,0.01473
3073.77680,0.01456
3071.71663,0.01433
3069.65645,0.01425
3067.59628,0.01435
3065.53611,0.01463
3063.47594,0.01486
3061.41577,0.01477
3059.35559,0.01442
3057.29542,0.01404
3055.23525,0.01376
3053.17508,0.01380
3051.11491,0.01408
3049.05473,0.01419
3046.99456,0.01410
3044.93439,0.01376
3042.87422,0.01330
3040.81404,0.01316
3038.75387,0.01336
3036.69370,0.01357
3034.63353,0.01352
3032.57336,0.01321
3030.51318,0.01296
3028.45301,0.01288
3026.39284,0.01272
3024.33267,0.01264
3022.27250,0.01285
3020.21232,0.01292
3018.15215,0.01260
3016.09198,0.01251
3014.03181,0.01272
3011.97163,0.01259
3009.91146,0.01210
3007.85129,0.01197
3005.79112,0.01235
3003.73095,0.01257
3001.67077,0.01241
2999.61060,0.01221
2997.55043,0.01228
2995.49026,0.01264
2993.43009,0.01298
2991.36991,0.01309
2989.30974,0.01304
2987.24957,0.01298
2985.18940,0.01295
2983.12923,0.01295
2981.06905,0.01286
2979.00888,0.01273
2976.94871,0.01288
2974.88854,0.01305
2972.82836,0.01285
2970.76819,0.01275
2968.70802,0.01303
2966.64785,0.01318
2964.58768,0.01318
2962.52750,0.01351
2960.46733,0.01372
2958.40716,0.01365
2956.34699,0.01382
2954.28682,0.01389
2952.22664,0.01352
2950.16647,0.01320
2948.10630,0.01327
2946.04613,0.01344
2943.98596,0.01350
2941.92578,0.01367
2939.86561,0.01385
2937.80544,0.01387
2935.74527,0.01405
2933.68509,0.01456
2931.62492,0.01480
2929.56475,0.01441
2927.50458,0.01389
2925.44441,0.01387
2923.38423,0.01418
2921.32406,0.01432
2919.26389,0.01417
2917.20372,0.01398
2915.14355,0.01402
2913.08337,0.01398
2911.02320,0.01371
2908.96303,0.01336
2906.90286,0.01312
2904.84268,0.01300
2902.78251,0.01282
2900.72234,0.01271
2898.66217,0.01277
2896.60200,0.01279
2894.54182,0.01279
2892.48165,0.01279
2890.42148,0.01266
2888.36131,0.01261
2886.30114,0.01259
2884.24096,0.01240
2882.18079,0.01241
2880.12062,0.01256
2878.06045,0.01247
2876.00028,0.01233
2873.94010,0.01221
2871.87993,0.01201
2869.81976,0.01192
2867.75959,0.01210
2865.69941,0.01220
2863.63924,0.01208
2861.57907,0.01199
2859.51890,0.01190
2857.45873,0.01162
2855.39855,0.01127
2853.33838,0.01112
2851.27821,0.01123
2849.21804,0.01131
2847.15787,0.01113
2845.09769,0.01072
2843.03752,0.01032
2840.97735,0.01016
2838.91718,0.01017
2836.85700,0.01006
2834.79683,0.01001
2832.73666,0.01026
2830.67649,0.01038
2828.61632,0.01016
2826.55614,0.00995
2824.49597,0.00973
2822.43580,0.00940
2820.37563,0.00923
2818.31546,0.00932
2816.25528,0.00959
2814.19511,0.00976
2812.13494,0.00968
2810.07477,0.00978
2808.01460,0.00998
2805.95442,0.00982
2803.89425,0.00940
2801.83408,0.00900
2799.77391,0.00875
2797.71373,0.00861
2795.65356,0.00851
2793.59339,0.00854
2791.53322,0.00863
2789.47305,0.00862
2787.41287,0.00853
2785.35270,0.00844
2783.29253,0.00834
2781.23236,0.00826
2779.17219,0.00816
2777.11201,0.00796
2775.05184,0.00774
2772.99167,0.00790
2770.93150,0.00821
2768.87133,0.00815
2766.81115,0.00797
2764.75098,0.00774
2762.69081,0.00748
2760.63064,0.00745
2758.57046,0.00745
2756.51029,0.00736
2754.45012,0.00733
2752.38995,0.00731
2750.32978,0.00720
2748.26960,0.00709
2746.20943,0.00715
2744.14926,0.00735
2742.08909,0.00749
2740.02892,0.00754
2737.96874,0.00750
2735.90857,0.00746
2733.84840,0.00744
2731.78823,0.00731
2729.72805,0.00711
2727.66788,0.00706
2725.60771,0.00716
2723.54754,0.00729
2721.48737,0.00742
2719.42719,0.00740
2717.36702,0.00725
2715.30685,0.00712
2713.24668,0.00704
2711.18651,0.00702
2709.12633,0.00695
2707.06616,0.00685
2705.00599,0.00678
2702.94582,0.00670
2700.88565,0.00664
2698.82547,0.00660
2696.76530,0.00666
2694.70513,0.00674
2692.64496,0.00669
2690.58478,0.00669
2688.52461,0.00676
2686.46444,0.00678
2684.40427,0.00689
2682.34410,0.00700
2680.28392,0.00685
2678.22375,0.00665
2676.16358,0.00657
2674.10341,0.00649
2672.04324,0.00636
2669.98306,0.00617
2667.92289,0.00609
2665.86272,0.00623
2663.80255,0.00644
2661.74238,0.00664
2659.68220,0.00667
2657.62203,0.00654
2655.56186,0.00640
2653.50169,0.00636
2651.44151,0.00645
2649.38134,0.00651
2647.32117,0.00643
2645.26100,0.00630
2643.20083,0.00621
2641.14065,0.00606
2639.08048,0.00587
2637.02031,0.00598
2634.96014,0.00629
2632.89997,0.00643
2630.83979,0.00648
2628.77962,0.00638
2626.71945,0.00608
2624.65928,0.00602
2622.59910,0.00612
2620.53893,0.00594
2618.47876,0.00562
2616.41859,0.00554
2614.35842,0.00556
2612.29824,0.00548
2610.23807,0.00550
2608.17790,0.00554
2606.11773,0.00553
2604.05756,0.00553
2601.99738,0.00527
2599.93721,0.00492
2597.87704,0.00500
2595.81687,0.00525
2593.75670,0.00559
2591.69652,0.00619
2589.63635,0.00643
2587.57618,0.00646
2585.51601,0.00674
2583.45583,0.00666
2581.39566,0.00617
2579.33549,0.00551
2577.27532,0.00494
2575.21515,0.00524
2573.15497,0.00614
2571.09480,0.00639
2569.03463,0.00577
2566.97446,0.00520
2564.91429,0.00530
2562.85411,0.00563
2560.79394,0.00577
2558.73377,0.00577
2556.67360,0.00571
2554.61342,0.00566
2552.55325,0.00562
2550.49308,0.00540
2548.43291,0.00531
2546.37274,0.00549
2544.31256,0.00542
2542.25239,0.00518
2540.19222,0.00520
2538.13205,0.00528
2536.07188,0.00501
2534.01170,0.00471
2531.95153,0.00457
2529.89136,0.00432
2527.83119,0.00409
2525.77102,0.00419
2523.71084,0.00473
2521.65067,0.00524
2519.59050,0.00534
2517.53033,0.00508
2515.47015,0.00450
2513.40998,0.00423
2511.34981,0.00474
2509.28964,0.00546
2507.22947,0.00587
2505.16929,0.00585
2503.10912,0.00576
2501.04895,0.00610
2498.98878,0.00633
2496.92861,0.00593
2494.86843,0.00560
2492.80826,0.00570
2490.74809,0.00558
2488.68792,0.00502
2486.62775,0.00466
2484.56757,0.00491
2482.50740,0.00535
2480.44723,0.00527
2478.38706,0.00507
2476.32688,0.00564
2474.26671,0.00647
2472.20654,0.00653
2470.14637,0.00612
2468.08620,0.00589
2466.02602,0.00560
2463.96585,0.00535
2461.90568,0.00552
2459.84551,0.00573
2457.78534,0.00568
2455.72516,0.00571
2453.66499,0.00579
2451.60482,0.00586
2449.54465,0.00589
2447.48447,0.00578
2445.42430,0.00583
2443.36413,0.00583
2441.30396,0.00554
2439.24379,0.00548
2437.18361,0.00577
2435.12344,0.00624
2433.06327,0.00648
2431.00310,0.00624
2428.94293,0.00605
2426.88275,0.00596
2424.82258,0.00572
2422.76241,0.00572
2420.70224,0.00606
2418.64207,0.00627
2416.58189,0.00633
2414.52172,0.00645
2412.46155,0.00641
2410.40138,0.00601
2408.34120,0.00553
2406.28103,0.00534
2404.22086,0.00539
2402.16069,0.00556
2400.10052,0.00555
2398.04034,0.00519
2395.98017,0.00500
2393.92000,0.00505
2391.85983,0.00509
2389.79966,0.00509
2387.73948,0.00526
2385.67931,0.00549
2383.61914,0.00546
2381.55897,0.00508
2379.49880,0.00457
2377.43862,0.00441
2375.37845,0.00494
2373.31828,0.00571
2371.25811,0.00604
2369.19793,0.00610
2367.13776,0.00558
2365.07759,0.00339
2363.01742,0.00191
2360.95725,0.00502
2358.89707,0.00941
2356.83690,0.00914
2354.77673,0.00603
2352.71656,0.00435
2350.65639,0.00404
2348.59621,0.00385
2346.53604,0.00398
2344.47587,0.00508
2342.41570,0.00642
2340.35552,0.00629
2338.29535,0.00459
2336.23518,0.00277
2334.17501,0.00248
2332.11484,0.00377
2330.05466,0.00517
2327.99449,0.00628
2325.93432,0.00672
2323.87415,0.00587
2321.81398,0.00467
2319.75380,0.00418
2317.69363,0.00404
2315.63346,0.00375
2313.57329,0.00372
2311.51312,0.00428
2309.45294,0.00528
2307.39277,0.00628
2305.33260,0.00651
2303.27243,0.00595
2301.21225,0.00552
2299.15208,0.00560
2297.09191,0.00585
2295.03174,0.00595
2292.97157,0.00573
2290.91139,0.00535
2288.85122,0.00508
2286.79105,0.00479
2284.73088,0.00467
2282.67071,0.00527
2280.61053,0.00613
2278.55036,0.00612
2276.49019,0.00527
2274.43002,0.00472
2272.36984,0.00500
2270.30967,0.00520
2268.24950,0.00454
2266.18933,0.00386
2264.12916,0.00438
2262.06898,0.00543
2260.00881,0.00575
2257.94864,0.00570
2255.88847,0.00620
2253.82830,0.00683
2251.76812,0.00616
2249.70795,0.00457
2247.64778,0.00465
2245.58761,0.00644
2243.52744,0.00708
2241.46726,0.00597
2239.40709,0.00501
2237.34692,0.00499
2235.28675,0.00493
2233.22657,0.00471
2231.16640,0.00456
2229.10623,0.00379
2227.04606,0.00279
2224.98589,0.00267
2222.92571,0.00311
2220.86554,0.00328
2218.80537,0.00342
2216.74520,0.00351
2214.68503,0.00327
2212.62485,0.00387
2210.56468,0.00508
2208.50451,0.00532
2206.44434,0.00583
2204.38417,0.00685
2202.32399,0.00641
2200.26382,0.00489
2198.20365,0.00406
2196.14348,0.00466
2194.08330,0.00626
2192.02313,0.00765
2189.96296,0.00734
2187.90279,0.00580
2185.84262,0.00505
2183.78244,0.00471
2181.72227,0.00390
2179.66210,0.00387
2177.60193,0.00498
2175.54176,0.00626
2173.48158,0.00633
2171.42141,0.00545
2169.36124,0.00610
2167.30107,0.00774
2165.24089,0.00724
2163.18072,0.00506
2161.12055,0.00257
2159.06038,0.00107
2157.00021,0.00284
2154.94003,0.00532
2152.87986,0.00607
2150.81969,0.00556
2148.75952,0.00439
2146.69935,0.00358
2144.63917,0.00344
2142.57900,0.00350
2140.51883,0.00355
2138.45866,0.00354
2136.39849,0.00302
2134.33831,0.00272
2132.27814,0.00373
2130.21797,0.00425
2128.15780,0.00321
2126.09762,0.00273
2124.03745,0.00316
2121.97728,0.00300
2119.91711,0.00235
2117.85694,0.00239
2115.79676,0.00364
2113.73659,0.00486
2111.67642,0.00475
2109.61625,0.00390
2107.55608,0.00360
2105.49590,0.00378
2103.43573,0.00347
2101.37556,0.00292
2099.31539,0.00291
2097.25521,0.00326
2095.19504,0.00352
2093.13487,0.00354
2091.07470,0.00353
2089.01453,0.00396
2086.95435,0.00494
2084.89418,0.00572
2082.83401,0.00593
2080.77384,0.00599
2078.71367,0.00554
2076.65349,0.00415
2074.59332,0.00289
2072.53315,0.00242
2070.47298,0.00232
2068.41281,0.00305
2066.35263,0.00442
2064.29246,0.00432
2062.23229,0.00298
2060.17212,0.00297
2058.11194,0.00414
2056.05177,0.00433
2053.99160,0.00395
2051.93143,0.00457
2049.87126,0.00505
2047.81108,0.00518
2045.75091,0.00584
2043.69074,0.00544
2041.63057,0.00438
2039.57040,0.00445
2037.51022,0.00480
2035.45005,0.00476
2033.38988,0.00476
2031.32971,0.00469
2029.26954,0.00396
2027.20936,0.00267
2025.14919,0.00158
2023.08902,0.00092
2021.02885,0.00053
2018.96867,0.00095
2016.90850,0.00176
2014.84833,0.00139
2012.78816,0.00034
2010.72799,0.00000
2008.66781,0.00093
2006.60764,0.00296
2004.54747,0.00443
2002.48730,0.00478
2000.42713,0.00507
1998.36695,0.00477
1996.30678,0.00300
1994.24661,0.00114
1992.18644,0.00137
1990.12626,0.00336
1988.06609,0.00451
1986.00592,0.00416
1983.94575,0.00380
1981.88558,0.00401
1979.82540,0.00411
1977.76523,0.00354
1975.70506,0.00256
1973.64489,0.00203
1971.58472,0.00246
1969.52454,0.00320
1967.46437,0.00369
1965.40420,0.00414
1963.34403,0.00414
1961.28386,0.00343
1959.22368,0.00316
1957.16351,0.00413
1955.10334,0.00508
1953.04317,0.00448
1950.98299,0.00345
1948.92282,0.00351
1946.86265,0.00358
1944.80248,0.00303
1942.74231,0.00303
1940.68213,0.00350
1938.62196,0.00358
1936.56179,0.00360
1934.50162,0.00408
1932.44145,0.00422
1930.38127,0.00318
1928.32110,0.00159
1926.26093,0.00046
1924.20076,0.00042
1922.14059,0.00164
1920.08041,0.00298
1918.02024,0.00299
1915.96007,0.00201
1913.89990,0.00160
1911.83972,0.00242
1909.77955,0.00381
1907.71938,0.00470
1905.65921,0.00473
1903.59904,0.00430
1901.53886,0.00364
1899.47869,0.00308
1897.41852,0.00317
1895.35835,0.00353
1893.29818,0.00337
1891.23800,0.00273
1889.17783,0.00205
1887.11766,0.00157
1885.05749,0.00149
1882.99731,0.00168
1880.93714,0.00180
1878.87697,0.00202
1876.81680,0.00246
1874.75663,0.00266
1872.69645,0.00254
1870.63628,0.00264
1868.57611,0.00306
1866.51594,0.00301
1864.45577,0.00216
1862.39559,0.00137
1860.33542,0.00140
1858.27525,0.00194
1856.21508,0.00228
1854.15491,0.00241
1852.09473,0.00262
1850.03456,0.00270
1847.97439,0.00271
1845.91422,0.00301
1843.85404,0.00321
1841.79387,0.00282
1839.73370,0.00217
1837.67353,0.00172
1835.61336,0.00167
1833.55318,0.00194
1831.49301,0.00226
1829.43284,0.00233
1827.37267,0.00220
1825.31250,0.00207
1823.25232,0.00190
1821.19215,0.00165
1819.13198,0.00135
1817.07181,0.00112
1815.01163,0.00121
1812.95146,0.00155
1810.89129,0.00171
1808.83112,0.00152
1806.77095,0.00132
1804.71077,0.00142
1802.65060,0.00151
1800.59043,0.00131
1798.53026,0.00107
1796.47009,0.00104
1794.40991,0.00131
1792.34974,0.00162
1790.28957,0.00157
1788.22940,0.00133
1786.16923,0.00143
1784.10905,0.00195
1782.04888,0.00252
1779.98871,0.00275
1777.92854,0.00257
1775.86836,0.00225
1773.80819,0.00211
1771.74802,0.00216
1769.68785,0.00201
1767.62768,0.00171
1765.56750,0.00176
1763.50733,0.00217
1761.44716,0.00249
1759.38699,0.00241
1757.32682,0.00209
1755.26664,0.00197
1753.20647,0.00246
1751.14630,0.00329
1749.08613,0.00361
1747.02596,0.00346
1744.96578,0.00355
1742.90561,0.00382
1740.84544,0.00394
1738.78527,0.00387
1736.72509,0.00366
1734.66492,0.00352
1732.60475,0.00364
1730.54458,0.00365
1728.48441,0.00322
1726.42423,0.00276
1724.36406,0.00269
1722.30389,0.00294
1720.24372,0.00333
1718.18355,0.00363
1716.12337,0.00358
1714.06320,0.00330
1712.00303,0.00309
1709.94286,0.00313
1707.88268,0.00332
1705.82251,0.00350
1703.76234,0.00371
1701.70217,0.00424
1699.64200,0.00515
1697.58182,0.00583
1695.52165,0.00585
1693.46148,0.00554
1691.40131,0.00542
1689.34114,0.00577
1687.28096,0.00666
1685.22079,0.00795
1683.16062,0.00897
1681.10045,0.00947
1679.04028,0.00988
1676.98010,0.01030
1674.91993,0.01073
1672.85976,0.01122
1670.79959,0.01186
1668.73941,0.01252
1666.67924,0.01317
1664.61907,0.01390
1662.55890,0.01459
1660.49873,0.01502
1658.43855,0.01531
1656.37838,0.01582
1654.31821,0.01665
1652.25804,0.01725
1650.19787,0.01725
1648.13769,0.01728
1646.07752,0.01727
1644.01735,0.01671
1641.95718,0.01598
1639.89701,0.01568
1637.83683,0.01599
1635.77666,0.01618
1633.71649,0.01546
1631.65632,0.01451
1629.59614,0.01403
1627.53597,0.01400
1625.47580,0.01391
1623.41563,0.01349
1621.35546,0.01307
1619.29528,0.01311
1617.23511,0.01336
1615.17494,0.01332
1613.11477,0.01316
1611.05460,0.01317
1608.99442,0.01314
1606.93425,0.01291
1604.87408,0.01264
1602.81391,0.01250
1600.75373,0.01249
1598.69356,0.01257
1596.63339,0.01262
1594.57322,0.01244
1592.51305,0.01204
1590.45287,0.01174
1588.39270,0.01162
1586.33253,0.01143
1584.27236,0.01116
1582.21219,0.01099
1580.15201,0.01090
1578.09184,0.01073
1576.03167,0.01040
1573.97150,0.01007
1571.91133,0.00998
1569.85115,0.00993
1567.79098,0.00963
1565.73081,0.00926
1563.67064,0.00905
1561.61046,0.00927
1559.55029,0.00995
1557.49012,0.01027
1555.42995,0.00988
1553.36978,0.00947
1551.30960,0.00915
1549.24943,0.00875
1547.18926,0.00840
1545.12909,0.00823
1543.06892,0.00834
1541.00874,0.00880
1538.94857,0.00873
1536.88840,0.00783
1534.82823,0.00696
1532.76805,0.00630
1530.70788,0.00580
1528.64771,0.00563
1526.58754,0.00563
1524.52737,0.00554
1522.46719,0.00549
1520.40702,0.00555
1518.34685,0.00544
1516.28668,0.00505
1514.22651,0.00469
1512.16633,0.00464
1510.10616,0.00503
1508.04599,0.00567
1505.98582,0.00571
1503.92565,0.00489
1501.86547,0.00417
1499.80530,0.00393
1497.74513,0.00380
1495.68496,0.00342
1493.62478,0.00307
1491.56461,0.00295
1489.50444,0.00275
1487.44427,0.00232
1485.38410,0.00200
1483.32392,0.00194
1481.26375,0.00199
1479.20358,0.00212
1477.14341,0.00247
1475.08324,0.00305
1473.02306,0.00347
1470.96289,0.00350
1468.90272,0.00351
1466.84255,0.00372
1464.78238,0.00393
1462.72220,0.00409
1460.66203,0.00444
1458.60186,0.00483
1456.54169,0.00476
1454.48151,0.00437
1452.42134,0.00417
1450.36117,0.00425
1448.30100,0.00445
1446.24083,0.00457
1444.18065,0.00458
1442.12048,0.00455
1440.06031,0.00453
1438.00014,0.00455
1435.93997,0.00451
1433.87979,0.00439
1431.81962,0.00443
1429.75945,0.00462
1427.69928,0.00479
1425.63910,0.00505
1423.57893,0.00541
1421.51876,0.00555
1419.45859,0.00533
1417.39842,0.00501
1415.33824,0.00492
1413.27807,0.00502
1411.21790,0.00511
1409.15773,0.00517
1407.09756,0.00523
1405.03738,0.00522
1402.97721,0.00511
1400.91704,0.00517
1398.85687,0.00543
1396.79670,0.00550
1394.73652,0.00521
1392.67635,0.00481
1390.61618,0.00464
1388.55601,0.00468
1386.49583,0.00470
1384.43566,0.00456
1382.37549,0.00438
1380.31532,0.00429
1378.25515,0.00434
1376.19497,0.00455
1374.13480,0.00472
1372.07463,0.00463
1370.01446,0.00441
1367.95429,0.00425
1365.89411,0.00413
1363.83394,0.00401
1361.77377,0.00392
1359.71360,0.00384
1357.65343,0.00380
1355.59325,0.00370
1353.53308,0.00339
1351.47291,0.00305
1349.41274,0.00297
1347.35256,0.00302
1345.29239,0.00299
1343.23222,0.00294
1341.17205,0.00289
1339.11188,0.00267
1337.05170,0.00229
1334.99153,0.00203
1332.93136,0.00190
1330.87119,0.00181
1328.81102,0.00176
1326.75084,0.00174
1324.69067,0.00170
1322.63050,0.00161
1320.57033,0.00163
1318.51015,0.00177
1316.44998,0.00184
1314.38981,0.00183
1312.32964,0.00176
1310.26947,0.00158
1308.20929,0.00149
1306.14912,0.00158
1304.08895,0.00169
1302.02878,0.00175
1299.96861,0.00183
1297.90843,0.00194
1295.84826,0.00205
1293.78809,0.00210
1291.72792,0.00208
1289.66775,0.00207
1287.60757,0.00211
1285.54740,0.00205
1283.48723,0.00181
1281.42706,0.00162
1279.36688,0.00163
1277.30671,0.00169
1275.24654,0.00161
1273.18637,0.00153
1271.12620,0.00161
1269.06602,0.00176
1267.00585,0.00181
1264.94568,0.00184
1262.88551,0.00200
1260.82534,0.00214
1258.76516,0.00222
1256.70499,0.00231
1254.64482,0.00223
1252.58465,0.00196
1250.52447,0.00179
1248.46430,0.00182
1246.40413,0.00189
1244.34396,0.00191
1242.28379,0.00197
1240.22361,0.00198
1238.16344,0.00180
1236.10327,0.00163
1234.04310,0.00174
1231.98293,0.00188
1229.92275,0.00183
1227.86258,0.00171
1225.80241,0.00159
1223.74224,0.00133
1221.68207,0.00101
1219.62189,0.00083
1217.56172,0.00072
1215.50155,0.00061
1213.44138,0.00046
1211.38120,0.00020
1209.32103,0.00000
1207.26086,0.00003
1205.20069,0.00028
1203.14052,0.00051
1201.08034,0.00052
1199.02017,0.00046
1196.96000,0.00065
1194.89983,0.00105
1192.83966,0.00135
1190.77948,0.00153
1188.71931,0.00176
1186.65914,0.00216
1184.59897,0.00270
1182.53880,0.00314
1180.47862,0.00356
1178.41845,0.00406
1176.35828,0.00445
1174.29811,0.00470
1172.23793,0.00502
1170.17776,0.00560
1168.11759,0.00625
1166.05742,0.00682
1163.99725,0.00734
1161.93707,0.00783
1159.87690,0.00853
1157.81673,0.00935
1155.75656,0.00984
1153.69639,0.01018
1151.63621,0.01064
1149.57604,0.01119
1147.51587,0.01172
1145.45570,0.01204
1143.39552,0.01238
1141.33535,0.01302
1139.27518,0.01372
1137.21501,0.01419
1135.15484,0.01463
1133.09466,0.01525
1131.03449,0.01599
1128.97432,0.01665
1126.91415,0.01709
1124.85398,0.01738
1122.79380,0.01771
1120.73363,0.01816
1118.67346,0.01861
1116.61329,0.01896
1114.55312,0.01923
1112.49294,0.01954
1110.43277,0.01993
1108.37260,0.02051
1106.31243,0.02096
1104.25225,0.02112
1102.19208,0.02154
1100.13191,0.02224
1098.07174,0.02276
1096.01157,0.02300
1093.95139,0.02317
1091.89122,0.02364
1089.83105,0.02416
1087.77088,0.02430
1085.71071,0.02433
1083.65053,0.02460
1081.59036,0.02513
1079.53019,0.02582
1077.47002,0.02631
1075.40985,0.02627
1073.34967,0.02595
1071.28950,0.02603
1069.22933,0.02660
1067.16916,0.02684
1065.10898,0.02641
1063.04881,0.02574
1060.98864,0.02520
1058.92847,0.02491
1056.86830,0.02468
1054.80812,0.02442
1052.74795,0.02406
1050.68778,0.02353
1048.62761,0.02292
1046.56744,0.02227
1044.50726,0.02169
1042.44709,0.02125
1040.38692,0.02085
1038.32675,0.02025
1036.26657,0.01943
1034.20640,0.01866
1032.14623,0.01797
1030.08606,0.01714
1028.02589,0.01621
1025.96571,0.01544
1023.90554,0.01499
1021.84537,0.01475
1019.78520,0.01453
1017.72503,0.01431
1015.66485,0.01395
1013.60468,0.01343
1011.54451,0.01318
1009.48434,0.01320
1007.42417,0.01348
1005.36399,0.01403
1003.30382,0.01436
1001.24365,0.01420
999.18348,0.01397
997.12330,0.01408
995.06313,0.01424
993.00296,0.01419
990.94279,0.01432
988.88262,0.01461
986.82244,0.01458
984.76227,0.01446
982.70210,0.01446
980.64193,0.01451
978.58176,0.01459
976.52158,0.01452
974.46141,0.01412
972.40124,0.01352
970.34107,0.01317
968.28089,0.01292
966.22072,0.01243
964.16055,0.01190
962.10038,0.01129
960.04021,0.01062
957.98003,0.01021
955.91986,0.00986
953.85969,0.00942
951.79952,0.00907
949.73935,0.00873
947.67917,0.00852
945.61900,0.00839
943.55883,0.00786
941.49866,0.00723
939.43849,0.00696
937.37831,0.00664
935.31814,0.00612
933.25797,0.00589
931.19780,0.00562
929.13762,0.00494
927.07745,0.00451
925.01728,0.00460
922.95711,0.00444
920.89694,0.00385
918.83676,0.00346
916.77659,0.00313
914.71642,0.00273
912.65625,0.00260
910.59608,0.00254
908.53590,0.00225
906.47573,0.00179
904.41556,0.00152
902.35539,0.00190
900.29522,0.00267
898.23504,0.00282
896.17487,0.00216
894.11470,0.00158
892.05453,0.00155
889.99435,0.00178
887.93418,0.00223
885.87401,0.00304
883.81384,0.00378
881.75367,0.00395
879.69349,0.00381
877.63332,0.00401
875.57315,0.00456
873.51298,0.00530
871.45281,0.00586
869.39263,0.00630
867.33246,0.00714
865.27229,0.00784
863.21212,0.00825
861.15194,0.00900
859.09177,0.00955
857.03160,0.00926
854.97143,0.00875
852.91126,0.00882
850.85108,0.00943
848.79091,0.00960
846.73074,0.00904
844.67057,0.00871
842.61040,0.00882
840.55022,0.00870
838.49005,0.00837
836.42988,0.00811
834.36971,0.00770
832.30954,0.00711
830.24936,0.00659
828.18919,0.00623
826.12902,0.00597
824.06885,0.00556
822.00867,0.00475
819.94850,0.00409
817.88833,0.00393
815.82816,0.00385
813.76799,0.00380
811.70781,0.00380
809.64764,0.00363
807.58747,0.00333
805.52730,0.00329
803.46713,0.00399
801.40695,0.00473
799.34678,0.00444
797.28661,0.00381
795.22644,0.00380
793.16627,0.00365
791.10609,0.00265
789.04592,0.00204
786.98575,0.00271
784.92558,0.00364
782.86540,0.00338
780.80523,0.00249
778.74506,0.00255
776.68489,0.00273
774.62472,0.00230
772.56454,0.00231
770.50437,0.00282
768.44420,0.00303
766.38403,0.00290
764.32386,0.00257
762.26368,0.00218
760.20351,0.00202
758.14334,0.00207
756.08317,0.00237
754.02299,0.00292
751.96282,0.00345
749.90265,0.00388
747.84248,0.00386
745.78231,0.00301
743.72213,0.00237
741.66196,0.00268
739.60179,0.00318
737.54162,0.00339
735.48145,0.00285
733.42127,0.00160
731.36110,0.00096
729.30093,0.00121
727.24076,0.00204
725.18059,0.00290
723.12041,0.00256
721.06024,0.00223
719.00007,0.00297
716.93990,0.00370
714.87972,0.00371
712.81955,0.00364
710.75938,0.00363
708.69921,0.00320
706.63904,0.00229
704.57886,0.00135
702.51869,0.00054
700.45852,0.00000
698.39835,0.00022
696.33818,0.00141
694.27800,0.00258
692.21783,0.00280
690.15766,0.00211
688.09749,0.00112
686.03731,0.00105
683.97714,0.00240
681.91697,0.00365
679.85680,0.00386
677.79663,0.00389
675.73645,0.00442
673.67628,0.00509
671.61611,0.00572
669.55594,0.00608
667.49577,0.00459
665.43559,0.00207
663.37542,0.00110
661.31525,0.00157
659.25508,0.00195
657.19491,0.00151
655.13473,0.00044
653.07456,-0.00067
651.01439,-0.00069
648.95422,0.00000
646.89404,0.00002
644.83387,-0.00004
642.77370,-0.00020
640.71353,-0.00115
638.65336,-0.00139
636.59318,0.00052
634.53301,0.00225
632.47284,0.00145
630.41267,0.00003
628.35250,0.00073
626.29232,0.00309
624.23215,0.00449
622.17198,0.00501
620.11181,0.00323
618.05164,-0.00183
615.99146,-0.00415
613.93129,-0.00093
611.87112,0.00216
609.81095,0.00137
607.75077,-0.00155
605.69060,-0.00363
603.63043,-0.00347
601.57026,-0.00116
599.51009,0.00000
