3996.73391,0.00114
3994.67373,0.00137
3992.61356,0.00130
3990.55339,0.00100
3988.49322,0.00108
3986.43305,0.00139
3984.37287,0.00141
3982.31270,0.00120
3980.25253,0.00097
3978.19236,0.00073
3976.13219,0.00051
3974.07201,0.00046
3972.01184,0.00074
3969.95167,0.00126
3967.89150,0.00159
3965.83133,0.00154
3963.77115,0.00133
3961.71098,0.00118
3959.65081,0.00111
3957.59064,0.00097
3955.53046,0.00076
3953.47029,0.00070
3951.41012,0.00057
3949.34995,0.00019
3947.28978,0.00000
3945.22960,0.00031
3943.16943,0.00086
3941.10926,0.00131
3939.04909,0.00141
3936.98892,0.00119
3934.92874,0.00086
3932.86857,0.00052
3930.80840,0.00022
3928.74823,0.00024
3926.68805,0.00064
3924.62788,0.00107
3922.56771,0.00127
3920.50754,0.00118
3918.44737,0.00077
3916.38719,0.00046
3914.32702,0.00045
3912.26685,0.00048
3910.20668,0.00072
3908.14651,0.00120
3906.08633,0.00137
3904.02616,0.00102
3901.96599,0.00076
3899.90582,0.00115
3897.84565,0.00171
3895.78547,0.00182
3893.72530,0.00149
3891.66513,0.00107
3889.60496,0.00094
3887.54478,0.00116
3885.48461,0.00140
3883.42444,0.00138
3881.36427,0.00122
3879.30410,0.00097
3877.24392,0.00050
3875.18375,0.00009
3873.12358,0.00015
3871.06341,0.00058
3869.00324,0.00105
3866.94306,0.00133
3864.88289,0.00136
3862.82272,0.00143
3860.76255,0.00181
3858.70237,0.00207
3856.64220,0.00162
3854.58203,0.00091
3852.52186,0.00098
3850.46169,0.00136
3848.40151,0.00132
3846.34134,0.00117
3844.28117,0.00120
3842.22100,0.00134
3840.16083,0.00120
3838.10065,0.00076
3836.04048,0.00069
3833.98031,0.00111
3831.92014,0.00150
3829.85997,0.00179
3827.79979,0.00207
3825.73962,0.00220
3823.67945,0.00205
3821.61928,0.00180
3819.55910,0.00164
3817.49893,0.00164
3815.43876,0.00166
3813.37859,0.00167
3811.31842,0.00167
3809.25824,0.00158
3807.19807,0.00134
3805.13790,0.00117
3803.07773,0.00121
3801.01756,0.00106
3798.95738,0.00089
3796.89721,0.00103
3794.83704,0.00113
3792.77687,0.00109
3790.71670,0.00119
3788.65652,0.00138
3786.59635,0.00154
3784.53618,0.00182
3782.47601,0.00231
3780.41583,0.00264
3778.35566,0.00253
3776.29549,0.00230
3774.23532,0.00220
3772.17515,0.00204
3770.11497,0.00194
3768.05480,0.00212
3765.99463,0.00228
3763.93446,0.00219
3761.87429,0.00197
3759.81411,0.00186
3757.75394,0.00188
3755.69377,0.00160
3753.63360,0.00086
3751.57342,0.00015
3749.51325,0.00018
3747.45308,0.00076
3745.39291,0.00144
3743.33274,0.00214
3741.27256,0.00254
3739.21239,0.00208
3737.15222,0.00075
3735.09205,0.00000
3733.03188,0.00083
3730.97170,0.00190
3728.91153,0.00253
3726.85136,0.00285
3724.79119,0.00259
3722.73102,0.00188
3720.67084,0.00164
3718.61067,0.00198
3716.55050,0.00223
3714.49033,0.00209
3712.43015,0.00173
3710.36998,0.00180
3708.30981,0.00218
3706.24964,0.00213
3704.18947,0.00189
3702.12929,0.00194
3700.06912,0.00199
3698.00895,0.00177
3695.94878,0.00145
3693.88861,0.00105
3691.82843,0.00066
3689.76826,0.00068
3687.70809,0.00128
3685.64792,0.00181
3683.58775,0.00213
3681.52757,0.00220
3679.46740,0.00171
3677.40723,0.00113
3675.34706,0.00145
3673.28688,0.00249
3671.22671,0.00348
3669.16654,0.00405
3667.10637,0.00400
3665.04620,0.00370
3662.98602,0.00339
3660.92585,0.00315
3658.86568,0.00334
3656.80551,0.00392
3654.74534,0.00414
3652.68516,0.00349
3650.62499,0.00243
3648.56482,0.00195
3646.50465,0.00235
3644.44447,0.00301
3642.38430,0.00365
3640.32413,0.00409
3638.26396,0.00433
3636.20379,0.00457
3634.14361,0.00463
3632.08344,0.00435
3630.02327,0.00443
3627.96310,0.00526
3625.90293,0.00575
3623.84275,0.00543
3621.78258,0.00495
3619.72241,0.00466
3617.66224,0.00441
3615.60207,0.00430
3613.54189,0.00476
3611.48172,0.00551
3609.42155,0.00599
3607.36138,0.00644
3605.30120,0.00712
3603.24103,0.00762
3601.18086,0.00766
3599.12069,0.00759
3597.06052,0.00756
3595.00034,0.00732
3592.94017,0.00701
3590.88000,0.00702
3588.81983,0.00724
3586.75966,0.00752
3584.69948,0.00803
3582.63931,0.00879
3580.57914,0.00945
3578.51897,0.00969
3576.45879,0.00970
3574.39862,0.00967
3572.33845,0.00935
3570.27828,0.00855
3568.21811,0.00766
3566.15793,0.00752
3564.09776,0.00843
3562.03759,0.00962
3559.97742,0.01038
3557.91725,0.01043
3555.85707,0.01017
3553.79690,0.01010
3551.73673,0.01035
3549.67656,0.01089
3547.61639,0.01142
3545.55621,0.01141
3543.49604,0.01110
3541.43587,0.01111
3539.37570,0.01161
3537.31552,0.01240
3535.25535,0.01306
3533.19518,0.01340
3531.13501,0.01342
3529.07484,0.01308
3527.01466,0.01273
3524.95449,0.01272
3522.89432,0.01293
3520.83415,0.01329
3518.77398,0.01368
3516.71380,0.01382
3514.65363,0.01360
3512.59346,0.01333
3510.53329,0.01336
3508.47312,0.01365
3506.41294,0.01384
3504.35277,0.01383
3502.29260,0.01383
3500.23243,0.01391
3498.17225,0.01409
3496.11208,0.01461
3494.05191,0.01527
3491.99174,0.01564
3489.93157,0.01563
3487.87139,0.01540
3485.81122,0.01524
3483.75105,0.01528
3481.69088,0.01556
3479.63071,0.01605
3477.57053,0.01640
3475.51036,0.01626
3473.45019,0.01607
3471.39002,0.01619
3469.32984,0.01658
3467.26967,0.01700
3465.20950,0.01697
3463.14933,0.01681
3461.08916,0.01708
3459.02898,0.01774
3456.96881,0.01833
3454.90864,0.01828
3452.84847,0.01801
3450.78830,0.01814
3448.72812,0.01801
3446.66795,0.01752
3444.60778,0.01785
3442.54761,0.01883
3440.48744,0.01939
3438.42726,0.01950
3436.36709,0.01948
3434.30692,0.01913
3432.24675,0.01847
3430.18657,0.01837
3428.12640,0.01898
3426.06623,0.01937
3424.00606,0.01962
3421.94589,0.02000
3419.88571,0.01993
3417.82554,0.01969
3415.76537,0.01985
3413.70520,0.02017
3411.64503,0.02021
3409.58485,0.02017
3407.52468,0.02045
3405.46451,0.02073
3403.40434,0.02067
3401.34416,0.02064
3399.28399,0.02066
3397.22382,0.02054
3395.16365,0.02060
3393.10348,0.02089
3391.04330,0.02075
3388.98313,0.02018
3386.92296,0.02015
3384.86279,0.02058
3382.80262,0.02089
3380.74244,0.02123
3378.68227,0.02146
3376.62210,0.02161
3374.56193,0.02194
3372.50176,0.02192
3370.44158,0.02161
3368.38141,0.02171
3366.32124,0.02207
3364.26107,0.02227
3362.20089,0.02253
3360.14072,0.02278
3358.08055,0.02266
3356.02038,0.02232
3353.96021,0.02240
3351.90003,0.02289
3349.83986,0.02315
3347.77969,0.02320
3345.71952,0.02323
3343.65935,0.02296
3341.59917,0.02268
3339.53900,0.02280
3337.47883,0.02304
3335.41866,0.02305
3333.35849,0.02308
3331.29831,0.02327
3329.23814,0.02312
3327.17797,0.02264
3325.11780,0.02245
3323.05762,0.02275
3320.99745,0.02326
3318.93728,0.02358
3316.87711,0.02339
3314.81694,0.02298
3312.75676,0.02302
3310.69659,0.02353
3308.63642,0.02385
3306.57625,0.02382
3304.51608,0.02385
3302.45590,0.02403
3300.39573,0.02414
3298.33556,0.02402
3296.27539,0.02363
3294.21521,0.02320
3292.15504,0.02314
3290.09487,0.02345
3288.03470,0.02372
3285.97453,0.02366
3283.91435,0.02339
3281.85418,0.02309
3279.79401,0.02298
3277.73384,0.02313
3275.67367,0.02347
3273.61349,0.02385
3271.55332,0.02418
3269.49315,0.02444
3267.43298,0.02455
3265.37281,0.02448
3263.31263,0.02441
3261.25246,0.02441
3259.19229,0.02432
3257.13212,0.02395
3255.07194,0.02343
3253.01177,0.02308
3250.95160,0.02281
3248.89143,0.02253
3246.83126,0.02242
3244.77108,0.02249
3242.71091,0.02274
3240.65074,0.02314
3238.59057,0.02351
3236.53040,0.02378
3234.47022,0.02393
3232.41005,0.02394
3230.34988,0.02389
3228.28971,0.02367
3226.22954,0.02327
3224.16936,0.02287
3222.10919,0.02277
3220.04902,0.02290
3217.98885,0.02305
3215.92867,0.02303
3213.86850,0.02268
3211.80833,0.02238
3209.74816,0.02246
3207.68799,0.02253
3205.62781,0.02232
3203.56764,0.02225
3201.50747,0.02260
3199.44730,0.02299
3197.38713,0.02315
3195.32695,0.02308
3193.26678,0.02299
3191.20661,0.02308
3189.14644,0.02319
3187.08626,0.02324
3185.02609,0.02330
3182.96592,0.02313
3180.90575,0.02275
3178.84558,0.02232
3176.78540,0.02199
3174.72523,0.02225
3172.66506,0.02295
3170.60489,0.02329
3168.54472,0.02323
3166.48454,0.02308
3164.42437,0.02274
3162.36420,0.02221
3160.30403,0.02182
3158.24386,0.02182
3156.18368,0.02206
3154.12351,0.02207
3152.06334,0.02186
3150.00317,0.02172
3147.94299,0.02171
3145.88282,0.02174
3143.82265,0.02171
3141.76248,0.02162
3139.70231,0.02157
3137.64213,0.02152
3135.58196,0.02127
3133.52179,0.02096
3131.46162,0.02075
3129.40145,0.02053
3127.34127,0.02069
3125.28110,0.02122
3123.22093,0.02153
3121.16076,0.02171
3119.10058,0.02191
3117.04041,0.02168
3114.98024,0.02095
3112.92007,0.02048
3110.85990,0.02058
3108.79972,0.02082
3106.73955,0.02090
3104.67938,0.02076
3102.61921,0.02044
3100.55904,0.02032
3098.49886,0.02041
3096.43869,0.02044
3094.37852,0.02043
3092.31835,0.02040
3090.25818,0.02032
3088.19800,0.02015
3086.13783,0.02001
3084.07766,0.02012
3082.01749,0.02026
3079.95731,0.02001
3077.89714,0.01950
3075.83697,0.01914
3073.77680,0.01918
3071.71663,0.01942
3069.65645,0.01940
3067.59628,0.01923
3065.53611,0.01916
3063.47594,0.01913
3061.41577,0.01916
3059.35559,0.01932
3057.29542,0.01942
3055.23525,0.01920
3053.17508,0.01880
3051.11491,0.01847
3049.05473,0.01828
3046.99456,0.01818
3044.93439,0.01803
3042.87422,0.01791
3040.81404,0.01803
3038.75387,0.01825
3036.69370,0.01846
3034.63353,0.01848
3032.57336,0.01830
3030.51318,0.01811
3028.45301,0.01793
3026.39284,0.01772
3024.33267,0.01760
3022.27250,0.01760
3020.21232,0.01745
3018.15215,0.01700
3016.09198,0.01666
3014.03181,0.01677
3011.97163,0.01710
3009.91146,0.01734
3007.85129,0.01714
3005.79112,0.01655
3003.73095,0.01621
3001.67077,0.01627
2999.61060,0.01642
2997.55043,0.01645
2995.49026,0.01635
2993.43009,0.01654
2991.36991,0.01705
2989.30974,0.01727
2987.24957,0.01715
2985.18940,0.01693
2983.12923,0.01667
2981.06905,0.01647
2979.00888,0.01635
2976.94871,0.01619
2974.88854,0.01608
2972.82836,0.01630
2970.76819,0.01656
2968.70802,0.01653
2966.64785,0.01662
2964.58768,0.01690
2962.52750,0.01696
2960.46733,0.01678
2958.40716,0.01658
2956.34699,0.01654
2954.28682,0.01668
2952.22664,0.01686
2950.16647,0.01703
2948.10630,0.01709
2946.04613,0.01693
2943.98596,0.01685
2941.92578,0.01700
2939.86561,0.01717
2937.80544,0.01724
2935.74527,0.01717
2933.68509,0.01704
2931.62492,0.01701
2929.56475,0.01702
2927.50458,0.01677
2925.44441,0.01632
2923.38423,0.01601
2921.32406,0.01603
2919.26389,0.01620
2917.20372,0.01620
2915.14355,0.01595
2913.08337,0.01571
2911.02320,0.01586
2908.96303,0.01627
2906.90286,0.01630
2904.84268,0.01600
2902.78251,0.01577
2900.72234,0.01557
2898.66217,0.01538
2896.60200,0.01541
2894.54182,0.01568
2892.48165,0.01593
2890.42148,0.01584
2888.36131,0.01549
2886.30114,0.01537
2884.24096,0.01549
2882.18079,0.01542
2880.12062,0.01511
2878.06045,0.01484
2876.00028,0.01487
2873.94010,0.01516
2871.87993,0.01534
2869.81976,0.01531
2867.75959,0.01531
2865.69941,0.01540
2863.63924,0.01545
2861.57907,0.01537
2859.51890,0.01507
2857.45873,0.01476
2855.39855,0.01450
2853.33838,0.01422
2851.27821,0.01413
2849.21804,0.01409
2847.15787,0.01377
2845.09769,0.01340
2843.03752,0.01330
2840.97735,0.01333
2838.91718,0.01328
2836.85700,0.01324
2834.79683,0.01332
2832.73666,0.01344
2830.67649,0.01332
2828.61632,0.01314
2826.55614,0.01330
2824.49597,0.01343
2822.43580,0.01322
2820.37563,0.01303
2818.31546,0.01311
2816.25528,0.01321
2814.19511,0.01291
2812.13494,0.01250
2810.07477,0.01236
2808.01460,0.01232
2805.95442,0.01233
2803.89425,0.01235
2801.83408,0.01231
2799.77391,0.01234
2797.71373,0.01242
2795.65356,0.01235
2793.59339,0.01230
2791.53322,0.01245
2789.47305,0.01255
2787.41287,0.01241
2785.35270,0.01221
2783.29253,0.01195
2781.23236,0.01155
2779.17219,0.01134
2777.11201,0.01143
2775.05184,0.01158
2772.99167,0.01167
2770.93150,0.01175
2768.87133,0.01184
2766.81115,0.01170
2764.75098,0.01128
2762.69081,0.01110
2760.63064,0.01124
2758.57046,0.01120
2756.51029,0.01099
2754.45012,0.01095
2752.38995,0.01115
2750.32978,0.01140
2748.26960,0.01160
2746.20943,0.01172
2744.14926,0.01152
2742.08909,0.01105
2740.02892,0.01080
2737.96874,0.01086
2735.90857,0.01081
2733.84840,0.01066
2731.78823,0.01067
2729.72805,0.01081
2727.66788,0.01096
2725.60771,0.01107
2723.54754,0.01099
2721.48737,0.01067
2719.42719,0.01034
2717.36702,0.01007
2715.30685,0.00990
2713.24668,0.00988
2711.18651,0.00993
2709.12633,0.01003
2707.06616,0.01015
2705.00599,0.01009
2702.94582,0.00988
2700.88565,0.00986
2698.82547,0.00998
2696.76530,0.01000
2694.70513,0.01009
2692.64496,0.01019
2690.58478,0.00993
2688.52461,0.00943
2686.46444,0.00929
2684.40427,0.00957
2682.34410,0.00984
2680.28392,0.00981
2678.22375,0.00952
2676.16358,0.00945
2674.10341,0.00967
2672.04324,0.00980
2669.98306,0.00978
2667.92289,0.00978
2665.86272,0.00980
2663.80255,0.00970
2661.74238,0.00941
2659.68220,0.00915
2657.62203,0.00919
2655.56186,0.00939
2653.50169,0.00930
2651.44151,0.00892
2649.38134,0.00871
2647.32117,0.00865
2645.26100,0.00870
2643.20083,0.00899
2641.14065,0.00908
2639.08048,0.00896
2637.02031,0.00917
2634.96014,0.00962
2632.89997,0.00978
2630.83979,0.00961
2628.77962,0.00938
2626.71945,0.00934
2624.65928,0.00946
2622.59910,0.00945
2620.53893,0.00914
2618.47876,0.00866
2616.41859,0.00821
2614.35842,0.00803
2612.29824,0.00817
2610.23807,0.00834
2608.17790,0.00831
2606.11773,0.00830
2604.05756,0.00865
2601.99738,0.00900
2599.93721,0.00863
2597.87704,0.00789
2595.81687,0.00782
2593.75670,0.00849
2591.69652,0.00894
2589.63635,0.00869
2587.57618,0.00833
2585.51601,0.00843
2583.45583,0.00881
2581.39566,0.00891
2579.33549,0.00883
2577.27532,0.00890
2575.21515,0.00871
2573.15497,0.00815
2571.09480,0.00762
2569.03463,0.00723
2566.97446,0.00730
2564.91429,0.00768
2562.85411,0.00769
2560.79394,0.00760
2558.73377,0.00777
2556.67360,0.00781
2554.61342,0.00775
2552.55325,0.00783
2550.49308,0.00807
2548.43291,0.00837
2546.37274,0.00861
2544.31256,0.00867
2542.25239,0.00833
2540.19222,0.00787
2538.13205,0.00769
2536.07188,0.00781
2534.01170,0.00794
2531.95153,0.00798
2529.89136,0.00785
2527.83119,0.00761
2525.77102,0.00781
2523.71084,0.00814
2521.65067,0.00813
2519.59050,0.00848
2517.53033,0.00885
2515.47015,0.00835
2513.40998,0.00749
2511.34981,0.00720
2509.28964,0.00747
2507.22947,0.00786
2505.16929,0.00822
2503.10912,0.00825
2501.04895,0.00812
2498.98878,0.00844
2496.92861,0.00882
2494.86843,0.00854
2492.80826,0.00801
2490.74809,0.00784
2488.68792,0.00780
2486.62775,0.00775
2484.56757,0.00788
2482.50740,0.00807
2480.44723,0.00811
2478.38706,0.00813
2476.32688,0.00798
2474.26671,0.00766
2472.20654,0.00790
2470.14637,0.00859
2468.08620,0.00874
2466.02602,0.00820
2463.96585,0.00751
2461.90568,0.00732
2459.84551,0.00782
2457.78534,0.00837
2455.72516,0.00877
2453.66499,0.00913
2451.60482,0.00922
2449.54465,0.00922
2447.48447,0.00939
2445.42430,0.00944
2443.36413,0.00920
2441.30396,0.00904
2439.24379,0.00904
2437.18361,0.00893
2435.12344,0.00881
2433.06327,0.00881
2431.00310,0.00863
2428.94293,0.00833
2426.88275,0.00824
2424.82258,0.00816
2422.76241,0.00815
2420.70224,0.00842
2418.64207,0.00843
2416.58189,0.00823
2414.52172,0.00820
2412.46155,0.00804
2410.40138,0.00795
2408.34120,0.00816
2406.28103,0.00850
2404.22086,0.00885
2402.16069,0.00914
2400.10052,0.00925
2398.04034,0.00879
2395.98017,0.00829
2393.92000,0.00831
2391.85983,0.00855
2389.79966,0.00852
2387.73948,0.00840
2385.67931,0.00840
2383.61914,0.00836
2381.55897,0.00835
2379.49880,0.00850
2377.43862,0.00871
2375.37845,0.00881
2373.31828,0.00921
2371.25811,0.00989
2369.19793,0.01001
2367.13776,0.00935
2365.07759,0.00823
2363.01742,0.00759
2360.95725,0.00956
2358.89707,0.01175
2356.83690,0.01192
2354.77673,0.00998
2352.71656,0.00777
2350.65639,0.00801
2348.59621,0.00909
2346.53604,0.00846
2344.47587,0.00942
2342.41570,0.01173
2340.35552,0.01343
2338.29535,0.01373
2336.23518,0.01270
2334.17501,0.01147
2332.11484,0.01056
2330.05466,0.00991
2327.99449,0.00914
2325.93432,0.00832
2323.87415,0.00708
2321.81398,0.00633
2319.75380,0.00637
2317.69363,0.00747
2315.63346,0.00867
2313.57329,0.00906
2311.51312,0.00870
2309.45294,0.00829
2307.39277,0.00808
2305.33260,0.00800
2303.27243,0.00818
2301.21225,0.00836
2299.15208,0.00841
2297.09191,0.00846
2295.03174,0.00888
2292.97157,0.00942
2290.91139,0.00942
2288.85122,0.00902
2286.79105,0.00856
2284.73088,0.00805
2282.67071,0.00768
2280.61053,0.00788
2278.55036,0.00866
2276.49019,0.00922
2274.43002,0.00917
2272.36984,0.00900
2270.30967,0.00895
2268.24950,0.00873
2266.18933,0.00813
2264.12916,0.00749
2262.06898,0.00728
2260.00881,0.00755
2257.94864,0.00807
2255.88847,0.00801
2253.82830,0.00736
2251.76812,0.00764
2249.70795,0.00855
2247.64778,0.00864
2245.58761,0.00867
2243.52744,0.00914
2241.46726,0.00910
2239.40709,0.00828
2237.34692,0.00759
2235.28675,0.00736
2233.22657,0.00704
2231.16640,0.00655
2229.10623,0.00630
2227.04606,0.00670
2224.98589,0.00767
2222.92571,0.00810
2220.86554,0.00715
2218.80537,0.00644
2216.74520,0.00700
2214.68503,0.00726
2212.62485,0.00731
2210.56468,0.00729
2208.50451,0.00670
2206.44434,0.00646
2204.38417,0.00597
2202.32399,0.00456
2200.26382,0.00403
2198.20365,0.00513
2196.14348,0.00569
2194.08330,0.00469
2192.02313,0.00358
2189.96296,0.00373
2187.90279,0.00523
2185.84262,0.00699
2183.78244,0.00730
2181.72227,0.00584
2179.66210,0.00475
2177.60193,0.00477
2175.54176,0.00485
2173.48158,0.00586
2171.42141,0.00726
2169.36124,0.00714
2167.30107,0.00677
2165.24089,0.00737
2163.18072,0.00823
2161.12055,0.00852
2159.06038,0.00752
2157.00021,0.00544
2154.94003,0.00328
2152.87986,0.00228
2150.81969,0.00292
2148.75952,0.00425
2146.69935,0.00505
2144.63917,0.00537
2142.57900,0.00558
2140.51883,0.00608
2138.45866,0.00653
2136.39849,0.00618
2134.33831,0.00543
2132.27814,0.00506
2130.21797,0.00585
2128.15780,0.00696
2126.09762,0.00666
2124.03745,0.00589
2121.97728,0.00574
2119.91711,0.00534
2117.85694,0.00525
2115.79676,0.00581
2113.73659,0.00573
2111.67642,0.00549
2109.61625,0.00609
2107.55608,0.00672
2105.49590,0.00626
2103.43573,0.00534
2101.37556,0.00523
2099.31539,0.00572
2097.25521,0.00627
2095.19504,0.00685
2093.13487,0.00654
2091.07470,0.00530
2089.01453,0.00516
2086.95435,0.00585
2084.89418,0.00564
2082.83401,0.00481
2080.77384,0.00450
2078.71367,0.00489
2076.65349,0.00533
2074.59332,0.00568
2072.53315,0.00640
2070.47298,0.00734
2068.41281,0.00770
2066.35263,0.00727
2064.29246,0.00634
2062.23229,0.00540
2060.17212,0.00529
2058.11194,0.00597
2056.05177,0.00644
2053.99160,0.00666
2051.93143,0.00720
2049.87126,0.00726
2047.81108,0.00623
2045.75091,0.00488
2043.69074,0.00396
2041.63057,0.00395
2039.57040,0.00399
2037.51022,0.00388
2035.45005,0.00495
2033.38988,0.00648
2031.32971,0.00729
2029.26954,0.00734
2027.20936,0.00674
2025.14919,0.00617
2023.08902,0.00556
2021.02885,0.00495
2018.96867,0.00533
2016.90850,0.00662
2014.84833,0.00835
2012.78816,0.00972
2010.72799,0.00893
2008.66781,0.00621
2006.60764,0.00438
2004.54747,0.00483
2002.48730,0.00599
2000.42713,0.00622
1998.36695,0.00622
1996.30678,0.00695
1994.24661,0.00773
1992.18644,0.00778
1990.12626,0.00764
1988.06609,0.00840
1986.00592,0.00943
1983.94575,0.00824
1981.88558,0.00435
1979.82540,0.00060
1977.76523,0.00000
1975.70506,0.00181
1973.64489,0.00274
1971.58472,0.00335
1969.52454,0.00476
1967.46437,0.00517
1965.40420,0.00415
1963.34403,0.00335
1961.28386,0.00370
1959.22368,0.00449
1957.16351,0.00502
1955.10334,0.00514
1953.04317,0.00500
1950.98299,0.00481
1948.92282,0.00491
1946.86265,0.00548
1944.80248,0.00581
1942.74231,0.00587
1940.68213,0.00574
1938.62196,0.00531
1936.56179,0.00535
1934.50162,0.00585
1932.44145,0.00564
1930.38127,0.00484
1928.32110,0.00470
1926.26093,0.00509
1924.20076,0.00522
1922.14059,0.00526
1920.08041,0.00545
1918.02024,0.00538
1915.96007,0.00495
1913.89990,0.00449
1911.83972,0.00427
1909.77955,0.00432
1907.71938,0.00448
1905.65921,0.00452
1903.59904,0.00422
1901.53886,0.00409
1899.47869,0.00462
1897.41852,0.00524
1895.35835,0.00542
1893.29818,0.00529
1891.23800,0.00505
1889.17783,0.00463
1887.11766,0.00423
1885.05749,0.00437
1882.99731,0.00495
1880.93714,0.00542
1878.87697,0.00556
1876.81680,0.00561
1874.75663,0.00574
1872.69645,0.00569
1870.63628,0.00542
1868.57611,0.00545
1866.51594,0.00604
1864.45577,0.00652
1862.39559,0.00623
1860.33542,0.00538
1858.27525,0.00473
1856.21508,0.00476
1854.15491,0.00512
1852.09473,0.00537
1850.03456,0.00540
1847.97439,0.00519
1845.91422,0.00494
1843.85404,0.00502
1841.79387,0.00537
1839.73370,0.00565
1837.67353,0.00580
1835.61336,0.00583
1833.55318,0.00596
1831.49301,0.00631
1829.43284,0.00655
1827.37267,0.00643
1825.31250,0.00607
1823.25232,0.00574
1821.19215,0.00562
1819.13198,0.00558
1817.07181,0.00542
1815.01163,0.00529
1812.95146,0.00544
1810.89129,0.00588
1808.83112,0.00625
1806.77095,0.00642
1804.71077,0.00639
1802.65060,0.00612
1800.59043,0.00581
1798.53026,0.00574
1796.47009,0.00586
1794.40991,0.00599
1792.34974,0.00602
1790.28957,0.00605
1788.22940,0.00614
1786.16923,0.00616
1784.10905,0.00611
1782.04888,0.00602
1779.98871,0.00588
1777.92854,0.00584
1775.86836,0.00594
1773.80819,0.00609
1771.74802,0.00625
1769.68785,0.00644
1767.62768,0.00662
1765.56750,0.00662
1763.50733,0.00632
1761.44716,0.00593
1759.38699,0.00590
1757.32682,0.00634
1755.26664,0.00688
1753.20647,0.00702
1751.14630,0.00654
1749.08613,0.00601
1747.02596,0.00620
1744.96578,0.00693
1742.90561,0.00748
1740.84544,0.00766
1738.78527,0.00779
1736.72509,0.00781
1734.66492,0.00723
1732.60475,0.00651
1730.54458,0.00663
1728.48441,0.00728
1726.42423,0.00773
1724.36406,0.00781
1722.30389,0.00773
1720.24372,0.00758
1718.18355,0.00723
1716.12337,0.00702
1714.06320,0.00737
1712.00303,0.00782
1709.94286,0.00807
1707.88268,0.00821
1705.82251,0.00836
1703.76234,0.00843
1701.70217,0.00817
1699.64200,0.00775
1697.58182,0.00817
1695.52165,0.00960
1693.46148,0.01078
1691.40131,0.01118
1689.34114,0.01124
1687.28096,0.01136
1685.22079,0.01160
1683.16062,0.01193
1681.10045,0.01246
1679.04028,0.01340
1676.98010,0.01465
1674.91993,0.01550
1672.85976,0.01545
1670.79959,0.01503
1668.73941,0.01505
1666.67924,0.01568
1664.61907,0.01649
1662.55890,0.01721
1660.49873,0.01771
1658.43855,0.01797
1656.37838,0.01804
1654.31821,0.01786
1652.25804,0.01755
1650.19787,0.01741
1648.13769,0.01722
1646.07752,0.01707
1644.01735,0.01716
1641.95718,0.01722
1639.89701,0.01707
1637.83683,0.01667
1635.77666,0.01605
1633.71649,0.01563
1631.65632,0.01556
1629.59614,0.01543
1627.53597,0.01513
1625.47580,0.01483
1623.41563,0.01450
1621.35546,0.01413
1619.29528,0.01381
1617.23511,0.01365
1615.17494,0.01361
1613.11477,0.01341
1611.05460,0.01300
1608.99442,0.01269
1606.93425,0.01264
1604.87408,0.01276
1602.81391,0.01287
1600.75373,0.01287
1598.69356,0.01273
1596.63339,0.01245
1594.57322,0.01203
1592.51305,0.01166
1590.45287,0.01142
1588.39270,0.01107
1586.33253,0.01062
1584.27236,0.01034
1582.21219,0.01034
1580.15201,0.01055
1578.09184,0.01074
1576.03167,0.01057
1573.97150,0.01005
1571.91133,0.00968
1569.85115,0.00981
1567.79098,0.01021
1565.73081,0.01034
1563.67064,0.01036
1561.61046,0.01044
1559.55029,0.01004
1557.49012,0.00926
1555.42995,0.00883
1553.36978,0.00863
1551.30960,0.00864
1549.24943,0.00895
1547.18926,0.00919
1545.12909,0.00871
1543.06892,0.00769
1541.00874,0.00722
1538.94857,0.00764
1536.88840,0.00807
1534.82823,0.00823
1532.76805,0.00829
1530.70788,0.00826
1528.64771,0.00798
1526.58754,0.00747
1524.52737,0.00697
1522.46719,0.00669
1520.40702,0.00686
1518.34685,0.00718
1516.28668,0.00723
1514.22651,0.00718
1512.16633,0.00701
1510.10616,0.00653
1508.04599,0.00595
1505.98582,0.00602
1503.92565,0.00657
1501.86547,0.00693
1499.80530,0.00714
1497.74513,0.00721
1495.68496,0.00697
1493.62478,0.00655
1491.56461,0.00607
1489.50444,0.00569
1487.44427,0.00575
1485.38410,0.00610
1483.32392,0.00646
1481.26375,0.00681
1479.20358,0.00701
1477.14341,0.00690
1475.08324,0.00660
1473.02306,0.00647
1470.96289,0.00680
1468.90272,0.00728
1466.84255,0.00759
1464.78238,0.00773
1462.72220,0.00761
1460.66203,0.00710
1458.60186,0.00654
1456.54169,0.00664
1454.48151,0.00732
1452.42134,0.00783
1450.36117,0.00785
1448.30100,0.00744
1446.24083,0.00714
1444.18065,0.00728
1442.12048,0.00769
1440.06031,0.00805
1438.00014,0.00804
1435.93997,0.00773
1433.87979,0.00744
1431.81962,0.00733
1429.75945,0.00740
1427.69928,0.00746
1425.63910,0.00742
1423.57893,0.00750
1421.51876,0.00775
1419.45859,0.00787
1417.39842,0.00796
1415.33824,0.00811
1413.27807,0.00817
1411.21790,0.00823
1409.15773,0.00840
1407.09756,0.00851
1405.03738,0.00836
1402.97721,0.00801
1400.91704,0.00772
1398.85687,0.00764
1396.79670,0.00772
1394.73652,0.00781
1392.67635,0.00784
1390.61618,0.00778
1388.55601,0.00758
1386.49583,0.00750
1384.43566,0.00770
1382.37549,0.00794
1380.31532,0.00805
1378.25515,0.00799
1376.19497,0.00776
1374.13480,0.00759
1372.07463,0.00763
1370.01446,0.00764
1367.95429,0.00752
1365.89411,0.00743
1363.83394,0.00726
1361.77377,0.00697
1359.71360,0.00690
1357.65343,0.00714
1355.59325,0.00738
1353.53308,0.00740
1351.47291,0.00728
1349.41274,0.00721
1347.35256,0.00717
1345.29239,0.00703
1343.23222,0.00677
1341.17205,0.00644
1339.11188,0.00619
1337.05170,0.00620
1334.99153,0.00642
1332.93136,0.00666
1330.87119,0.00682
1328.81102,0.00689
1326.75084,0.00690
1324.69067,0.00692
1322.63050,0.00696
1320.57033,0.00710
1318.51015,0.00719
1316.44998,0.00704
1314.38981,0.00684
1312.32964,0.00680
1310.26947,0.00686
1308.20929,0.00693
1306.14912,0.00704
1304.08895,0.00719
1302.02878,0.00734
1299.96861,0.00748
1297.90843,0.00769
1295.84826,0.00775
1293.78809,0.00751
1291.72792,0.00730
1289.66775,0.00732
1287.60757,0.00740
1285.54740,0.00742
1283.48723,0.00737
1281.42706,0.00725
1279.36688,0.00715
1277.30671,0.00723
1275.24654,0.00733
1273.18637,0.00726
1271.12620,0.00717
1269.06602,0.00716
1267.00585,0.00717
1264.94568,0.00719
1262.88551,0.00715
1260.82534,0.00711
1258.76516,0.00733
1256.70499,0.00767
1254.64482,0.00768
1252.58465,0.00745
1250.52447,0.00729
1248.46430,0.00722
1246.40413,0.00714
1244.34396,0.00702
1242.28379,0.00688
1240.22361,0.00674
1238.16344,0.00682
1236.10327,0.00704
1234.04310,0.00700
1231.98293,0.00662
1229.92275,0.00626
1227.86258,0.00608
1225.80241,0.00585
1223.74224,0.00559
1221.68207,0.00544
1219.62189,0.00545
1217.56172,0.00555
1215.50155,0.00548
1213.44138,0.00523
1211.38120,0.00496
1209.32103,0.00476
1207.26086,0.00483
1205.20069,0.00515
1203.14052,0.00520
1201.08034,0.00490
1199.02017,0.00470
1196.96000,0.00483
1194.89983,0.00496
1192.83966,0.00489
1190.77948,0.00492
1188.71931,0.00533
1186.65914,0.00574
1184.59897,0.00595
1182.53880,0.00621
1180.47862,0.00650
1178.41845,0.00671
1176.35828,0.00698
1174.29811,0.00740
1172.23793,0.00785
1170.17776,0.00819
1168.11759,0.00840
1166.05742,0.00854
1163.99725,0.00882
1161.93707,0.00936
1159.87690,0.01009
1157.81673,0.01069
1155.75656,0.01110
1153.69639,0.01169
1151.63621,0.01237
1149.57604,0.01297
1147.51587,0.01372
1145.45570,0.01453
1143.39552,0.01504
1141.33535,0.01537
1139.27518,0.01583
1137.21501,0.01639
1135.15484,0.01709
1133.09466,0.01796
1131.03449,0.01880
1128.97432,0.01944
1126.91415,0.01984
1124.85398,0.02028
1122.79380,0.02087
1120.73363,0.02165
1118.67346,0.02265
1116.61329,0.02355
1114.55312,0.02412
1112.49294,0.02472
1110.43277,0.02559
1108.37260,0.02634
1106.31243,0.02694
1104.25225,0.02761
1102.19208,0.02813
1100.13191,0.02847
1098.07174,0.02883
1096.01157,0.02916
1093.95139,0.02957
1091.89122,0.03001
1089.83105,0.03039
1087.77088,0.03065
1085.71071,0.03089
1083.65053,0.03137
1081.59036,0.03199
1079.53019,0.03249
1077.47002,0.03276
1075.40985,0.03278
1073.34967,0.03275
1071.28950,0.03289
1069.22933,0.03318
1067.16916,0.03321
1065.10898,0.03268
1063.04881,0.03207
1060.98864,0.03193
1058.92847,0.03192
1056.86830,0.03149
1054.80812,0.03086
1052.74795,0.03041
1050.68778,0.02986
1048.62761,0.02880
1046.56744,0.02758
1044.50726,0.02675
1042.44709,0.02606
1040.38692,0.02519
1038.32675,0.02427
1036.26657,0.02325
1034.20640,0.02192
1032.14623,0.02055
1030.08606,0.01991
1028.02589,0.01985
1025.96571,0.01933
1023.90554,0.01817
1021.84537,0.01706
1019.78520,0.01642
1017.72503,0.01641
1015.66485,0.01677
1013.60468,0.01689
1011.54451,0.01678
1009.48434,0.01683
1007.42417,0.01688
1005.36399,0.01690
1003.30382,0.01736
1001.24365,0.01830
999.18348,0.01905
997.12330,0.01944
995.06313,0.01963
993.00296,0.01966
990.94279,0.01978
988.88262,0.02026
986.82244,0.02081
984.76227,0.02112
982.70210,0.02129
980.64193,0.02153
978.58176,0.02194
976.52158,0.02223
974.46141,0.02186
972.40124,0.02087
970.34107,0.01998
968.28089,0.01960
966.22072,0.01938
964.16055,0.01911
962.10038,0.01884
960.04021,0.01825
957.98003,0.01740
955.91986,0.01686
953.85969,0.01648
951.79952,0.01601
949.73935,0.01550
947.67917,0.01484
945.61900,0.01424
943.55883,0.01390
941.49866,0.01362
939.43849,0.01313
937.37831,0.01241
935.31814,0.01179
933.25797,0.01154
931.19780,0.01153
929.13762,0.01148
927.07745,0.01111
925.01728,0.01033
922.95711,0.00950
920.89694,0.00927
918.83676,0.00960
916.77659,0.00949
914.71642,0.00879
912.65625,0.00860
910.59608,0.00897
908.53590,0.00919
906.47573,0.00915
904.41556,0.00896
902.35539,0.00880
900.29522,0.00881
898.23504,0.00918
896.17487,0.00965
894.11470,0.00992
892.05453,0.01003
889.99435,0.00979
887.93418,0.00947
885.87401,0.00983
883.81384,0.01056
881.75367,0.01080
879.69349,0.01091
877.63332,0.01163
875.57315,0.01256
873.51298,0.01294
871.45281,0.01280
869.39263,0.01300
867.33246,0.01362
865.27229,0.01360
863.21212,0.01323
861.15194,0.01358
859.09177,0.01421
857.03160,0.01445
854.97143,0.01468
852.91126,0.01527
850.85108,0.01579
848.79091,0.01548
846.73074,0.01461
844.67057,0.01412
842.61040,0.01378
840.55022,0.01330
838.49005,0.01318
836.42988,0.01312
834.36971,0.01251
832.30954,0.01166
830.24936,0.01095
828.18919,0.01029
826.12902,0.01020
824.06885,0.01070
822.00867,0.01081
819.94850,0.01045
817.88833,0.01019
815.82816,0.00993
813.76799,0.00949
811.70781,0.00889
809.64764,0.00834
807.58747,0.00832
805.52730,0.00840
803.46713,0.00783
801.40695,0.00753
799.34678,0.00841
797.28661,0.00929
795.22644,0.00917
793.16627,0.00852
791.10609,0.00823
789.04592,0.00832
786.98575,0.00824
784.92558,0.00806
782.86540,0.00779
780.80523,0.00742
778.74506,0.00703
776.68489,0.00676
774.62472,0.00707
772.56454,0.00802
770.50437,0.00868
768.44420,0.00849
766.38403,0.00827
764.32386,0.00848
762.26368,0.00835
760.20351,0.00784
758.14334,0.00758
756.08317,0.00732
754.02299,0.00705
751.96282,0.00689
749.90265,0.00638
747.84248,0.00590
745.78231,0.00652
743.72213,0.00739
741.66196,0.00719
739.60179,0.00692
737.54162,0.00741
735.48145,0.00762
733.42127,0.00689
731.36110,0.00632
729.30093,0.00648
727.24076,0.00649
725.18059,0.00579
723.12041,0.00516
721.06024,0.00512
719.00007,0.00599
716.93990,0.00697
714.87972,0.00746
712.81955,0.00698
710.75938,0.00572
708.69921,0.00478
706.63904,0.00460
704.57886,0.00492
702.51869,0.00541
700.45852,0.00566
698.39835,0.00560
696.33818,0.00538
694.27800,0.00520
692.21783,0.00555
690.15766,0.00719
688.09749,0.00933
686.03731,0.01027
683.97714,0.01038
681.91697,0.01038
679.85680,0.00964
677.79663,0.00871
675.73645,0.00883
673.67628,0.00963
671.61611,0.00980
669.55594,0.00684
667.49577,0.00423
665.43559,0.00714
663.37542,0.00762
661.31525,0.00812
659.25508,0.00924
657.19491,0.00973
655.13473,0.00902
653.07456,0.00756
651.01439,0.00694
648.95422,0.00784
646.89404,0.00880
644.83387,0.00880
642.77370,0.00878
640.71353,0.00902
638.65336,0.00904
636.59318,0.00882
634.53301,0.00888
632.47284,0.00990
630.41267,0.01103
628.35250,0.01034
626.29232,0.00877
624.23215,0.00954
622.17198,0.01010
620.11181,0.00900
618.05164,0.00830
615.99146,0.00837
613.93129,0.00955
611.87112,0.01094
609.81095,0.00759
607.75077,0.00091
605.69060,0.00000
603.63043,0.00234
601.57026,0.00168
599.51009,0.00000
