3996.73391,0.00000
3994.67373,0.00009
3992.61356,0.00073
3990.55339,0.00144
3988.49322,0.00143
3986.43305,0.00087
3984.37287,0.00067
3982.31270,0.00087
3980.25253,0.00101
3978.19236,0.00112
3976.13219,0.00123
3974.07201,0.00124
3972.01184,0.00133
3969.95167,0.00144
3967.89150,0.00129
3965.83133,0.00095
3963.77115,0.00076
3961.71098,0.00104
3959.65081,0.00167
3957.59064,0.00199
3955.53046,0.00182
3953.47029,0.00173
3951.41012,0.00188
3949.34995,0.00180
3947.28978,0.00144
3945.22960,0.00119
3943.16943,0.00098
3941.10926,0.00071
3939.04909,0.00074
3936.98892,0.00112
3934.92874,0.00152
3932.86857,0.00173
3930.80840,0.00162
3928.74823,0.00127
3926.68805,0.00100
3924.62788,0.00106
3922.56771,0.00149
3920.50754,0.00189
3918.44737,0.00182
3916.38719,0.00147
3914.32702,0.00129
3912.26685,0.00136
3910.20668,0.00130
3908.14651,0.00101
3906.08633,0.00097
3904.02616,0.00115
3901.96599,0.00132
3899.90582,0.00167
3897.84565,0.00185
3895.78547,0.00166
3893.72530,0.00155
3891.66513,0.00146
3889.60496,0.00105
3887.54478,0.00057
3885.48461,0.00065
3883.42444,0.00157
3881.36427,0.00259
3879.30410,0.00270
3877.24392,0.00197
3875.18375,0.00133
3873.12358,0.00161
3871.06341,0.00279
3869.00324,0.00352
3866.94306,0.00311
3864.88289,0.00278
3862.82272,0.00285
3860.76255,0.00252
3858.70237,0.00195
3856.64220,0.00153
3854.58203,0.00119
3852.52186,0.00105
3850.46169,0.00134
3848.40151,0.00165
3846.34134,0.00159
3844.28117,0.00125
3842.22100,0.00116
3840.16083,0.00165
3838.10065,0.00243
3836.04048,0.00265
3833.98031,0.00193
3831.92014,0.00097
3829.85997,0.00061
3827.79979,0.00094
3825.73962,0.00141
3823.67945,0.00163
3821.61928,0.00164
3819.55910,0.00163
3817.49893,0.00176
3815.43876,0.00190
3813.37859,0.00184
3811.31842,0.00182
3809.25824,0.00202
3807.19807,0.00206
3805.13790,0.00167
3803.07773,0.00132
3801.01756,0.00131
3798.95738,0.00153
3796.89721,0.00190
3794.83704,0.00203
3792.77687,0.00179
3790.71670,0.00172
3788.65652,0.00196
3786.59635,0.00219
3784.53618,0.00226
3782.47601,0.00203
3780.41583,0.00143
3778.35566,0.00100
3776.29549,0.00104
3774.23532,0.00134
3772.17515,0.00151
3770.11497,0.00133
3768.05480,0.00089
3765.99463,0.00060
3763.93446,0.00080
3761.87429,0.00136
3759.81411,0.00198
3757.75394,0.00235
3755.69377,0.00238
3753.63360,0.00275
3751.57342,0.00339
3749.51325,0.00312
3747.45308,0.00221
3745.39291,0.00168
3743.33274,0.00180
3741.27256,0.00246
3739.21239,0.00342
3737.15222,0.00429
3735.09205,0.00407
3733.03188,0.00257
3730.97170,0.00145
3728.91153,0.00137
3726.85136,0.00180
3724.79119,0.00265
3722.73102,0.00380
3720.67084,0.00424
3718.61067,0.00340
3716.55050,0.00239
3714.49033,0.00203
3712.43015,0.00211
3710.36998,0.00223
3708.30981,0.00215
3706.24964,0.00215
3704.18947,0.00252
3702.12929,0.00290
3700.06912,0.00267
3698.00895,0.00196
3695.94878,0.00163
3693.88861,0.00215
3691.82843,0.00307
3689.76826,0.00346
3687.70809,0.00317
3685.64792,0.00249
3683.58775,0.00172
3681.52757,0.00110
3679.46740,0.00075
3677.40723,0.00118
3675.34706,0.00247
3673.28688,0.00324
3671.22671,0.00330
3669.16654,0.00328
3667.10637,0.00316
3665.04620,0.00307
3662.98602,0.00301
3660.92585,0.00288
3658.86568,0.00282
3656.80551,0.00289
3654.74534,0.00298
3652.68516,0.00312
3650.62499,0.00345
3648.56482,0.00375
3646.50465,0.00369
3644.44447,0.00332
3642.38430,0.00283
3640.32413,0.00239
3638.26396,0.00225
3636.20379,0.00265
3634.14361,0.00334
3632.08344,0.00383
3630.02327,0.00401
3627.96310,0.00398
3625.90293,0.00374
3623.84275,0.00341
3621.78258,0.00336
3619.72241,0.00398
3617.66224,0.00465
3615.60207,0.00429
3613.54189,0.00351
3611.48172,0.00349
3609.42155,0.00395
3607.36138,0.00425
3605.30120,0.00451
3603.24103,0.00488
3601.18086,0.00508
3599.12069,0.00488
3597.06052,0.00469
3595.00034,0.00488
3592.94017,0.00502
3590.88000,0.00503
3588.81983,0.00509
3586.75966,0.00484
3584.69948,0.00443
3582.63931,0.00460
3580.57914,0.00505
3578.51897,0.00523
3576.45879,0.00528
3574.39862,0.00559
3572.33845,0.00612
3570.27828,0.00663
3568.21811,0.00691
3566.15793,0.00684
3564.09776,0.00677
3562.03759,0.00673
3559.97742,0.00638
3557.91725,0.00599
3555.85707,0.00594
3553.79690,0.00593
3551.73673,0.00581
3549.67656,0.00591
3547.61639,0.00641
3545.55621,0.00708
3543.49604,0.00759
3541.43587,0.00787
3539.37570,0.00801
3537.31552,0.00800
3535.25535,0.00778
3533.19518,0.00764
3531.13501,0.00768
3529.07484,0.00756
3527.01466,0.00726
3524.95449,0.00723
3522.89432,0.00767
3520.83415,0.00807
3518.77398,0.00808
3516.71380,0.00816
3514.65363,0.00864
3512.59346,0.00901
3510.53329,0.00882
3508.47312,0.00857
3506.41294,0.00886
3504.35277,0.00921
3502.29260,0.00900
3500.23243,0.00875
3498.17225,0.00896
3496.11208,0.00919
3494.05191,0.00921
3491.99174,0.00920
3489.93157,0.00923
3487.87139,0.00950
3485.81122,0.00993
3483.75105,0.00995
3481.69088,0.00954
3479.63071,0.00950
3477.57053,0.00996
3475.51036,0.01029
3473.45019,0.01040
3471.39002,0.01040
3469.32984,0.01028
3467.26967,0.01023
3465.20950,0.01046
3463.14933,0.01043
3461.08916,0.00989
3459.02898,0.00971
3456.96881,0.01041
3454.90864,0.01126
3452.84847,0.01153
3450.78830,0.01119
3448.72812,0.01060
3446.66795,0.01034
3444.60778,0.01071
3442.54761,0.01141
3440.48744,0.01175
3438.42726,0.01152
3436.36709,0.01132
3434.30692,0.01134
3432.24675,0.01110
3430.18657,0.01085
3428.12640,0.01108
3426.06623,0.01122
3424.00606,0.01092
3421.94589,0.01056
3419.88571,0.01038
3417.82554,0.01074
3415.76537,0.01140
3413.70520,0.01161
3411.64503,0.01147
3409.58485,0.01154
3407.52468,0.01176
3405.46451,0.01191
3403.40434,0.01200
3401.34416,0.01210
3399.28399,0.01222
3397.22382,0.01226
3395.16365,0.01229
3393.10348,0.01253
3391.04330,0.01262
3388.98313,0.01229
3386.92296,0.01214
3384.86279,0.01240
3382.80262,0.01252
3380.74244,0.01251
3378.68227,0.01271
3376.62210,0.01296
3374.56193,0.01271
3372.50176,0.01215
3370.44158,0.01219
3368.38141,0.01262
3366.32124,0.01283
3364.26107,0.01284
3362.20089,0.01274
3360.14072,0.01280
3358.08055,0.01326
3356.02038,0.01361
3353.96021,0.01338
3351.90003,0.01306
3349.83986,0.01302
3347.77969,0.01298
3345.71952,0.01275
3343.65935,0.01253
3341.59917,0.01273
3339.53900,0.01327
3337.47883,0.01349
3335.41866,0.01311
3333.35849,0.01246
3331.29831,0.01226
3329.23814,0.01263
3327.17797,0.01295
3325.11780,0.01313
3323.05762,0.01321
3320.99745,0.01317
3318.93728,0.01347
3316.87711,0.01401
3314.81694,0.01394
3312.75676,0.01357
3310.69659,0.01376
3308.63642,0.01398
3306.57625,0.01360
3304.51608,0.01332
3302.45590,0.01359
3300.39573,0.01393
3298.33556,0.01387
3296.27539,0.01359
3294.21521,0.01363
3292.15504,0.01404
3290.09487,0.01425
3288.03470,0.01390
3285.97453,0.01368
3283.91435,0.01413
3281.85418,0.01461
3279.79401,0.01445
3277.73384,0.01386
3275.67367,0.01356
3273.61349,0.01381
3271.55332,0.01409
3269.49315,0.01414
3267.43298,0.01431
3265.37281,0.01435
3263.31263,0.01379
3261.25246,0.01306
3259.19229,0.01294
3257.13212,0.01320
3255.07194,0.01333
3253.01177,0.01348
3250.95160,0.01364
3248.89143,0.01360
3246.83126,0.01338
3244.77108,0.01313
3242.71091,0.01297
3240.65074,0.01306
3238.59057,0.01331
3236.53040,0.01324
3234.47022,0.01273
3232.41005,0.01234
3230.34988,0.01257
3228.28971,0.01309
3226.22954,0.01317
3224.16936,0.01291
3222.10919,0.01299
3220.04902,0.01329
3217.98885,0.01336
3215.92867,0.01326
3213.86850,0.01335
3211.80833,0.01368
3209.74816,0.01375
3207.68799,0.01351
3205.62781,0.01340
3203.56764,0.01342
3201.50747,0.01343
3199.44730,0.01341
3197.38713,0.01315
3195.32695,0.01298
3193.26678,0.01317
3191.20661,0.01298
3189.14644,0.01241
3187.08626,0.01228
3185.02609,0.01238
3182.96592,0.01221
3180.90575,0.01217
3178.84558,0.01248
3176.78540,0.01267
3174.72523,0.01254
3172.66506,0.01223
3170.60489,0.01187
3168.54472,0.01175
3166.48454,0.01192
3164.42437,0.01230
3162.36420,0.01264
3160.30403,0.01246
3158.24386,0.01192
3156.18368,0.01150
3154.12351,0.01139
3152.06334,0.01162
3150.00317,0.01205
3147.94299,0.01234
3145.88282,0.01226
3143.82265,0.01197
3141.76248,0.01177
3139.70231,0.01180
3137.64213,0.01192
3135.58196,0.01208
3133.52179,0.01218
3131.46162,0.01200
3129.40145,0.01162
3127.34127,0.01147
3125.28110,0.01169
3123.22093,0.01175
3121.16076,0.01148
3119.10058,0.01129
3117.04041,0.01112
3114.98024,0.01088
3112.92007,0.01079
3110.85990,0.01076
3108.79972,0.01056
3106.73955,0.01044
3104.67938,0.01072
3102.61921,0.01114
3100.55904,0.01126
3098.49886,0.01108
3096.43869,0.01098
3094.37852,0.01093
3092.31835,0.01060
3090.25818,0.01033
3088.19800,0.01035
3086.13783,0.01037
3084.07766,0.01063
3082.01749,0.01102
3079.95731,0.01089
3077.89714,0.01046
3075.83697,0.01027
3073.77680,0.01031
3071.71663,0.01034
3069.65645,0.01022
3067.59628,0.01003
3065.53611,0.01014
3063.47594,0.01048
3061.41577,0.01066
3059.35559,0.01054
3057.29542,0.01016
3055.23525,0.00981
3053.17508,0.00975
3051.11491,0.00975
3049.05473,0.00962
3046.99456,0.00952
3044.93439,0.00972
3042.87422,0.01003
3040.81404,0.01003
3038.75387,0.00976
3036.69370,0.00963
3034.63353,0.00978
3032.57336,0.00987
3030.51318,0.00971
3028.45301,0.00961
3026.39284,0.00952
3024.33267,0.00941
3022.27250,0.00949
3020.21232,0.00960
3018.15215,0.00933
3016.09198,0.00870
3014.03181,0.00830
3011.97163,0.00850
3009.91146,0.00901
3007.85129,0.00937
3005.79112,0.00949
3003.73095,0.00943
3001.67077,0.00930
2999.61060,0.00937
2997.55043,0.00969
2995.49026,0.00961
2993.43009,0.00915
2991.36991,0.00904
2989.30974,0.00928
2987.24957,0.00945
2985.18940,0.00923
2983.12923,0.00894
2981.06905,0.00908
2979.00888,0.00930
2976.94871,0.00945
2974.88854,0.00965
2972.82836,0.00974
2970.76819,0.00969
2968.70802,0.00951
2966.64785,0.00927
2964.58768,0.00918
2962.52750,0.00919
2960.46733,0.00922
2958.40716,0.00919
2956.34699,0.00922
2954.28682,0.00944
2952.22664,0.00961
2950.16647,0.00958
2948.10630,0.00942
2946.04613,0.00926
2943.98596,0.00918
2941.92578,0.00922
2939.86561,0.00952
2937.80544,0.00973
2935.74527,0.00952
2933.68509,0.00932
2931.62492,0.00952
2929.56475,0.00994
2927.50458,0.01025
2925.44441,0.01021
2923.38423,0.01001
2921.32406,0.01004
2919.26389,0.01022
2917.20372,0.01012
2915.14355,0.00968
2913.08337,0.00928
2911.02320,0.00927
2908.96303,0.00949
2906.90286,0.00940
2904.84268,0.00914
2902.78251,0.00909
2900.72234,0.00912
2898.66217,0.00924
2896.60200,0.00954
2894.54182,0.00977
2892.48165,0.00958
2890.42148,0.00913
2888.36131,0.00895
2886.30114,0.00904
2884.24096,0.00917
2882.18079,0.00935
2880.12062,0.00923
2878.06045,0.00873
2876.00028,0.00839
2873.94010,0.00832
2871.87993,0.00833
2869.81976,0.00837
2867.75959,0.00838
2865.69941,0.00843
2863.63924,0.00845
2861.57907,0.00833
2859.51890,0.00830
2857.45873,0.00829
2855.39855,0.00824
2853.33838,0.00820
2851.27821,0.00807
2849.21804,0.00802
2847.15787,0.00819
2845.09769,0.00836
2843.03752,0.00834
2840.97735,0.00818
2838.91718,0.00809
2836.85700,0.00825
2834.79683,0.00828
2832.73666,0.00786
2830.67649,0.00742
2828.61632,0.00731
2826.55614,0.00756
2824.49597,0.00803
2822.43580,0.00817
2820.37563,0.00805
2818.31546,0.00821
2816.25528,0.00843
2814.19511,0.00836
2812.13494,0.00810
2810.07477,0.00786
2808.01460,0.00769
2805.95442,0.00749
2803.89425,0.00728
2801.83408,0.00730
2799.77391,0.00743
2797.71373,0.00732
2795.65356,0.00712
2793.59339,0.00708
2791.53322,0.00699
2789.47305,0.00683
2787.41287,0.00694
2785.35270,0.00705
2783.29253,0.00692
2781.23236,0.00680
2779.17219,0.00675
2777.11201,0.00677
2775.05184,0.00676
2772.99167,0.00649
2770.93150,0.00622
2768.87133,0.00620
2766.81115,0.00637
2764.75098,0.00653
2762.69081,0.00652
2760.63064,0.00661
2758.57046,0.00679
2756.51029,0.00676
2754.45012,0.00667
2752.38995,0.00674
2750.32978,0.00666
2748.26960,0.00634
2746.20943,0.00615
2744.14926,0.00622
2742.08909,0.00640
2740.02892,0.00647
2737.96874,0.00641
2735.90857,0.00621
2733.84840,0.00583
2731.78823,0.00560
2729.72805,0.00568
2727.66788,0.00585
2725.60771,0.00608
2723.54754,0.00622
2721.48737,0.00612
2719.42719,0.00604
2717.36702,0.00605
2715.30685,0.00587
2713.24668,0.00551
2711.18651,0.00548
2709.12633,0.00576
2707.06616,0.00596
2705.00599,0.00611
2702.94582,0.00615
2700.88565,0.00595
2698.82547,0.00579
2696.76530,0.00586
2694.70513,0.00586
2692.64496,0.00559
2690.58478,0.00535
2688.52461,0.00541
2686.46444,0.00575
2684.40427,0.00619
2682.34410,0.00645
2680.28392,0.00619
2678.22375,0.00562
2676.16358,0.00546
2674.10341,0.00577
2672.04324,0.00591
2669.98306,0.00567
2667.92289,0.00552
2665.86272,0.00573
2663.80255,0.00605
2661.74238,0.00638
2659.68220,0.00662
2657.62203,0.00657
2655.56186,0.00631
2653.50169,0.00612
2651.44151,0.00625
2649.38134,0.00665
2647.32117,0.00679
2645.26100,0.00642
2643.20083,0.00606
2641.14065,0.00602
2639.08048,0.00607
2637.02031,0.00607
2634.96014,0.00603
2632.89997,0.00603
2630.83979,0.00602
2628.77962,0.00577
2626.71945,0.00530
2624.65928,0.00509
2622.59910,0.00528
2620.53893,0.00550
2618.47876,0.00561
2616.41859,0.00567
2614.35842,0.00553
2612.29824,0.00535
2610.23807,0.00546
2608.17790,0.00555
2606.11773,0.00541
2604.05756,0.00534
2601.99738,0.00538
2599.93721,0.00555
2597.87704,0.00581
2595.81687,0.00584
2593.75670,0.00564
2591.69652,0.00561
2589.63635,0.00567
2587.57618,0.00555
2585.51601,0.00539
2583.45583,0.00524
2581.39566,0.00525
2579.33549,0.00552
2577.27532,0.00565
2575.21515,0.00572
2573.15497,0.00611
2571.09480,0.00649
2569.03463,0.00647
2566.97446,0.00628
2564.91429,0.00587
2562.85411,0.00530
2560.79394,0.00533
2558.73377,0.00571
2556.67360,0.00572
2554.61342,0.00543
2552.55325,0.00520
2550.49308,0.00497
2548.43291,0.00443
2546.37274,0.00393
2544.31256,0.00399
2542.25239,0.00445
2540.19222,0.00522
2538.13205,0.00593
2536.07188,0.00604
2534.01170,0.00582
2531.95153,0.00539
2529.89136,0.00490
2527.83119,0.00486
2525.77102,0.00521
2523.71084,0.00583
2521.65067,0.00642
2519.59050,0.00633
2517.53033,0.00582
2515.47015,0.00556
2513.40998,0.00547
2511.34981,0.00530
2509.28964,0.00511
2507.22947,0.00500
2505.16929,0.00492
2503.10912,0.00487
2501.04895,0.00512
2498.98878,0.00545
2496.92861,0.00534
2494.86843,0.00498
2492.80826,0.00481
2490.74809,0.00495
2488.68792,0.00525
2486.62775,0.00533
2484.56757,0.00529
2482.50740,0.00531
2480.44723,0.00531
2478.38706,0.00516
2476.32688,0.00476
2474.26671,0.00455
2472.20654,0.00461
2470.14637,0.00457
2468.08620,0.00475
2466.02602,0.00531
2463.96585,0.00564
2461.90568,0.00570
2459.84551,0.00581
2457.78534,0.00583
2455.72516,0.00577
2453.66499,0.00578
2451.60482,0.00580
2449.54465,0.00587
2447.48447,0.00592
2445.42430,0.00581
2443.36413,0.00571
2441.30396,0.00578
2439.24379,0.00582
2437.18361,0.00583
2435.12344,0.00602
2433.06327,0.00606
2431.00310,0.00604
2428.94293,0.00606
2426.88275,0.00572
2424.82258,0.00536
2422.76241,0.00542
2420.70224,0.00549
2418.64207,0.00558
2416.58189,0.00570
2414.52172,0.00545
2412.46155,0.00497
2410.40138,0.00472
2408.34120,0.00484
2406.28103,0.00488
2404.22086,0.00457
2402.16069,0.00440
2400.10052,0.00454
2398.04034,0.00484
2395.98017,0.00531
2393.92000,0.00555
2391.85983,0.00556
2389.79966,0.00568
2387.73948,0.00571
2385.67931,0.00553
2383.61914,0.00559
2381.55897,0.00624
2379.49880,0.00709
2377.43862,0.00743
2375.37845,0.00706
2373.31828,0.00690
2371.25811,0.00707
2369.19793,0.00628
2367.13776,0.00456
2365.07759,0.00312
2363.01742,0.00403
2360.95725,0.00907
2358.89707,0.01293
2356.83690,0.01212
2354.77673,0.00859
2352.71656,0.00618
2350.65639,0.00677
2348.59621,0.00727
2346.53604,0.00534
2344.47587,0.00488
2342.41570,0.00541
2340.35552,0.00508
2338.29535,0.00514
2336.23518,0.00685
2334.17501,0.00893
2332.11484,0.00920
2330.05466,0.00809
2327.99449,0.00691
2325.93432,0.00658
2323.87415,0.00634
2321.81398,0.00585
2319.75380,0.00551
2317.69363,0.00637
2315.63346,0.00718
2313.57329,0.00679
2311.51312,0.00576
2309.45294,0.00537
2307.39277,0.00599
2305.33260,0.00660
2303.27243,0.00622
2301.21225,0.00531
2299.15208,0.00514
2297.09191,0.00565
2295.03174,0.00607
2292.97157,0.00620
2290.91139,0.00605
2288.85122,0.00585
2286.79105,0.00596
2284.73088,0.00611
2282.67071,0.00584
2280.61053,0.00529
2278.55036,0.00466
2276.49019,0.00408
2274.43002,0.00376
2272.36984,0.00353
2270.30967,0.00341
2268.24950,0.00405
2266.18933,0.00511
2264.12916,0.00584
2262.06898,0.00639
2260.00881,0.00635
2257.94864,0.00570
2255.88847,0.00557
2253.82830,0.00579
2251.76812,0.00490
2249.70795,0.00330
2247.64778,0.00301
2245.58761,0.00354
2243.52744,0.00307
2241.46726,0.00268
2239.40709,0.00316
2237.34692,0.00302
2235.28675,0.00242
2233.22657,0.00284
2231.16640,0.00408
2229.10623,0.00474
2227.04606,0.00450
2224.98589,0.00356
2222.92571,0.00194
2220.86554,0.00101
2218.80537,0.00151
2216.74520,0.00242
2214.68503,0.00305
2212.62485,0.00309
2210.56468,0.00304
2208.50451,0.00312
2206.44434,0.00245
2204.38417,0.00220
2202.32399,0.00313
2200.26382,0.00314
2198.20365,0.00283
2196.14348,0.00370
2194.08330,0.00401
2192.02313,0.00364
2189.96296,0.00378
2187.90279,0.00369
2185.84262,0.00272
2183.78244,0.00174
2181.72227,0.00299
2179.66210,0.00646
2177.60193,0.00778
2175.54176,0.00532
2173.48158,0.00276
2171.42141,0.00230
2169.36124,0.00227
2167.30107,0.00236
2165.24089,0.00419
2163.18072,0.00499
2161.12055,0.00271
2159.06038,0.00179
2157.00021,0.00298
2154.94003,0.00280
2152.87986,0.00224
2150.81969,0.00303
2148.75952,0.00371
2146.69935,0.00328
2144.63917,0.00209
2142.57900,0.00101
2140.51883,0.00099
2138.45866,0.00215
2136.39849,0.00334
2134.33831,0.00350
2132.27814,0.00322
2130.21797,0.00272
2128.15780,0.00235
2126.09762,0.00256
2124.03745,0.00309
2121.97728,0.00343
2119.91711,0.00325
2117.85694,0.00325
2115.79676,0.00359
2113.73659,0.00370
2111.67642,0.00331
2109.61625,0.00260
2107.55608,0.00229
2105.49590,0.00249
2103.43573,0.00245
2101.37556,0.00192
2099.31539,0.00166
2097.25521,0.00164
2095.19504,0.00120
2093.13487,0.00087
2091.07470,0.00140
2089.01453,0.00214
2086.95435,0.00257
2084.89418,0.00301
2082.83401,0.00347
2080.77384,0.00394
2078.71367,0.00441
2076.65349,0.00419
2074.59332,0.00315
2072.53315,0.00217
2070.47298,0.00171
2068.41281,0.00182
2066.35263,0.00265
2064.29246,0.00371
2062.23229,0.00420
2060.17212,0.00364
2058.11194,0.00234
2056.05177,0.00177
2053.99160,0.00251
2051.93143,0.00353
2049.87126,0.00401
2047.81108,0.00424
2045.75091,0.00453
2043.69074,0.00409
2041.63057,0.00263
2039.57040,0.00158
2037.51022,0.00174
2035.45005,0.00202
2033.38988,0.00123
2031.32971,0.00006
2029.26954,0.00120
2027.20936,0.00378
2025.14919,0.00390
2023.08902,0.00292
2021.02885,0.00336
2018.96867,0.00356
2016.90850,0.00213
2014.84833,0.00063
2012.78816,0.00051
2010.72799,0.00098
2008.66781,0.00133
2006.60764,0.00139
2004.54747,0.00098
2002.48730,0.00054
2000.42713,0.00043
1998.36695,0.00104
1996.30678,0.00182
1994.24661,0.00198
1992.18644,0.00263
1990.12626,0.00408
1988.06609,0.00438
1986.00592,0.00378
1983.94575,0.00424
1981.88558,0.00536
1979.82540,0.00529
1977.76523,0.00352
1975.70506,0.00128
1973.64489,0.00000
1971.58472,0.00047
1969.52454,0.00182
1967.46437,0.00241
1965.40420,0.00274
1963.34403,0.00379
1961.28386,0.00459
1959.22368,0.00437
1957.16351,0.00406
1955.10334,0.00409
1953.04317,0.00394
1950.98299,0.00392
1948.92282,0.00410
1946.86265,0.00387
1944.80248,0.00368
1942.74231,0.00373
1940.68213,0.00354
1938.62196,0.00388
1936.56179,0.00456
1934.50162,0.00447
1932.44145,0.00393
1930.38127,0.00346
1928.32110,0.00332
1926.26093,0.00362
1924.20076,0.00352
1922.14059,0.00278
1920.08041,0.00239
1918.02024,0.00264
1915.96007,0.00329
1913.89990,0.00408
1911.83972,0.00470
1909.77955,0.00502
1907.71938,0.00468
1905.65921,0.00365
1903.59904,0.00289
1901.53886,0.00295
1899.47869,0.00320
1897.41852,0.00319
1895.35835,0.00317
1893.29818,0.00299
1891.23800,0.00290
1889.17783,0.00365
1887.11766,0.00468
1885.05749,0.00507
1882.99731,0.00493
1880.93714,0.00455
1878.87697,0.00425
1876.81680,0.00444
1874.75663,0.00477
1872.69645,0.00469
1870.63628,0.00453
1868.57611,0.00470
1866.51594,0.00484
1864.45577,0.00449
1862.39559,0.00385
1860.33542,0.00337
1858.27525,0.00346
1856.21508,0.00411
1854.15491,0.00480
1852.09473,0.00492
1850.03456,0.00443
1847.97439,0.00396
1845.91422,0.00397
1843.85404,0.00424
1841.79387,0.00443
1839.73370,0.00448
1837.67353,0.00443
1835.61336,0.00439
1833.55318,0.00456
1831.49301,0.00482
1829.43284,0.00493
1827.37267,0.00499
1825.31250,0.00502
1823.25232,0.00490
1821.19215,0.00477
1819.13198,0.00473
1817.07181,0.00450
1815.01163,0.00426
1812.95146,0.00444
1810.89129,0.00471
1808.83112,0.00469
1806.77095,0.00462
1804.71077,0.00476
1802.65060,0.00513
1800.59043,0.00543
1798.53026,0.00532
1796.47009,0.00511
1794.40991,0.00522
1792.34974,0.00543
1790.28957,0.00541
1788.22940,0.00525
1786.16923,0.00516
1784.10905,0.00516
1782.04888,0.00506
1779.98871,0.00471
1777.92854,0.00437
1775.86836,0.00466
1773.80819,0.00557
1771.74802,0.00616
1769.68785,0.00588
1767.62768,0.00556
1765.56750,0.00581
1763.50733,0.00624
1761.44716,0.00618
1759.38699,0.00574
1757.32682,0.00554
1755.26664,0.00570
1753.20647,0.00608
1751.14630,0.00650
1749.08613,0.00667
1747.02596,0.00657
1744.96578,0.00643
1742.90561,0.00641
1740.84544,0.00651
1738.78527,0.00657
1736.72509,0.00644
1734.66492,0.00622
1732.60475,0.00612
1730.54458,0.00607
1728.48441,0.00603
1726.42423,0.00622
1724.36406,0.00652
1722.30389,0.00653
1720.24372,0.00648
1718.18355,0.00676
1716.12337,0.00692
1714.06320,0.00658
1712.00303,0.00620
1709.94286,0.00616
1707.88268,0.00629
1705.82251,0.00638
1703.76234,0.00677
1701.70217,0.00761
1699.64200,0.00823
1697.58182,0.00809
1695.52165,0.00763
1693.46148,0.00742
1691.40131,0.00758
1689.34114,0.00797
1687.28096,0.00861
1685.22079,0.00948
1683.16062,0.01010
1681.10045,0.01018
1679.04028,0.01021
1676.98010,0.01038
1674.91993,0.01053
1672.85976,0.01074
1670.79959,0.01110
1668.73941,0.01123
1666.67924,0.01108
1664.61907,0.01108
1662.55890,0.01130
1660.49873,0.01151
1658.43855,0.01175
1656.37838,0.01209
1654.31821,0.01225
1652.25804,0.01203
1650.19787,0.01203
1648.13769,0.01237
1646.07752,0.01238
1644.01735,0.01189
1641.95718,0.01149
1639.89701,0.01151
1637.83683,0.01178
1635.77666,0.01165
1633.71649,0.01088
1631.65632,0.01034
1629.59614,0.01040
1627.53597,0.01062
1625.47580,0.01063
1623.41563,0.01037
1621.35546,0.01005
1619.29528,0.01009
1617.23511,0.01031
1615.17494,0.01019
1613.11477,0.00984
1611.05460,0.00963
1608.99442,0.00965
1606.93425,0.00971
1604.87408,0.00942
1602.81391,0.00883
1600.75373,0.00841
1598.69356,0.00834
1596.63339,0.00846
1594.57322,0.00852
1592.51305,0.00841
1590.45287,0.00814
1588.39270,0.00785
1586.33253,0.00771
1584.27236,0.00769
1582.21219,0.00773
1580.15201,0.00784
1578.09184,0.00800
1576.03167,0.00812
1573.97150,0.00816
1571.91133,0.00820
1569.85115,0.00814
1567.79098,0.00783
1565.73081,0.00759
1563.67064,0.00762
1561.61046,0.00784
1559.55029,0.00812
1557.49012,0.00851
1555.42995,0.00867
1553.36978,0.00831
1551.30960,0.00774
1549.24943,0.00737
1547.18926,0.00737
1545.12909,0.00770
1543.06892,0.00802
1541.00874,0.00802
1538.94857,0.00766
1536.88840,0.00735
1534.82823,0.00731
1532.76805,0.00738
1530.70788,0.00738
1528.64771,0.00738
1526.58754,0.00748
1524.52737,0.00777
1522.46719,0.00817
1520.40702,0.00827
1518.34685,0.00788
1516.28668,0.00725
1514.22651,0.00686
1512.16633,0.00702
1510.10616,0.00747
1508.04599,0.00746
1505.98582,0.00661
1503.92565,0.00573
1501.86547,0.00537
1499.80530,0.00547
1497.74513,0.00575
1495.68496,0.00596
1493.62478,0.00608
1491.56461,0.00632
1489.50444,0.00648
1487.44427,0.00606
1485.38410,0.00528
1483.32392,0.00491
1481.26375,0.00514
1479.20358,0.00559
1477.14341,0.00597
1475.08324,0.00624
1473.02306,0.00626
1470.96289,0.00603
1468.90272,0.00591
1466.84255,0.00603
1464.78238,0.00614
1462.72220,0.00612
1460.66203,0.00634
1458.60186,0.00693
1456.54169,0.00721
1454.48151,0.00680
1452.42134,0.00635
1450.36117,0.00622
1448.30100,0.00633
1446.24083,0.00652
1444.18065,0.00658
1442.12048,0.00647
1440.06031,0.00638
1438.00014,0.00654
1435.93997,0.00690
1433.87979,0.00720
1431.81962,0.00726
1429.75945,0.00700
1427.69928,0.00670
1425.63910,0.00671
1423.57893,0.00693
1421.51876,0.00715
1419.45859,0.00739
1417.39842,0.00752
1415.33824,0.00738
1413.27807,0.00710
1411.21790,0.00688
1409.15773,0.00690
1407.09756,0.00717
1405.03738,0.00746
1402.97721,0.00753
1400.91704,0.00743
1398.85687,0.00734
1396.79670,0.00736
1394.73652,0.00731
1392.67635,0.00713
1390.61618,0.00716
1388.55601,0.00734
1386.49583,0.00733
1384.43566,0.00720
1382.37549,0.00715
1380.31532,0.00711
1378.25515,0.00705
1376.19497,0.00726
1374.13480,0.00773
1372.07463,0.00802
1370.01446,0.00800
1367.95429,0.00792
1365.89411,0.00790
1363.83394,0.00787
1361.77377,0.00764
1359.71360,0.00725
1357.65343,0.00696
1355.59325,0.00688
1353.53308,0.00689
1351.47291,0.00687
1349.41274,0.00673
1347.35256,0.00651
1345.29239,0.00634
1343.23222,0.00641
1341.17205,0.00670
1339.11188,0.00673
1337.05170,0.00625
1334.99153,0.00573
1332.93136,0.00559
1330.87119,0.00573
1328.81102,0.00588
1326.75084,0.00589
1324.69067,0.00578
1322.63050,0.00572
1320.57033,0.00575
1318.51015,0.00575
1316.44998,0.00576
1314.38981,0.00585
1312.32964,0.00578
1310.26947,0.00555
1308.20929,0.00548
1306.14912,0.00572
1304.08895,0.00592
1302.02878,0.00581
1299.96861,0.00569
1297.90843,0.00576
1295.84826,0.00578
1293.78809,0.00570
1291.72792,0.00557
1289.66775,0.00540
1287.60757,0.00529
1285.54740,0.00534
1283.48723,0.00553
1281.42706,0.00579
1279.36688,0.00589
1277.30671,0.00565
1275.24654,0.00518
1273.18637,0.00484
1271.12620,0.00483
1269.06602,0.00492
1267.00585,0.00495
1264.94568,0.00504
1262.88551,0.00518
1260.82534,0.00524
1258.76516,0.00534
1256.70499,0.00544
1254.64482,0.00527
1252.58465,0.00505
1250.52447,0.00513
1248.46430,0.00538
1246.40413,0.00546
1244.34396,0.00536
1242.28379,0.00525
1240.22361,0.00509
1238.16344,0.00487
1236.10327,0.00471
1234.04310,0.00457
1231.98293,0.00453
1229.92275,0.00474
1227.86258,0.00492
1225.80241,0.00480
1223.74224,0.00453
1221.68207,0.00427
1219.62189,0.00410
1217.56172,0.00401
1215.50155,0.00399
1213.44138,0.00417
1211.38120,0.00453
1209.32103,0.00469
1207.26086,0.00457
1205.20069,0.00435
1203.14052,0.00421
1201.08034,0.00427
1199.02017,0.00443
1196.96000,0.00481
1194.89983,0.00539
1192.83966,0.00579
1190.77948,0.00598
1188.71931,0.00618
1186.65914,0.00644
1184.59897,0.00685
1182.53880,0.00741
1180.47862,0.00775
1178.41845,0.00791
1176.35828,0.00823
1174.29811,0.00880
1172.23793,0.00926
1170.17776,0.00947
1168.11759,0.00974
1166.05742,0.01018
1163.99725,0.01063
1161.93707,0.01103
1159.87690,0.01132
1157.81673,0.01158
1155.75656,0.01189
1153.69639,0.01219
1151.63621,0.01245
1149.57604,0.01255
1147.51587,0.01261
1145.45570,0.01277
1143.39552,0.01301
1141.33535,0.01324
1139.27518,0.01335
1137.21501,0.01334
1135.15484,0.01332
1133.09466,0.01334
1131.03449,0.01340
1128.97432,0.01367
1126.91415,0.01405
1124.85398,0.01428
1122.79380,0.01419
1120.73363,0.01389
1118.67346,0.01382
1116.61329,0.01424
1114.55312,0.01478
1112.49294,0.01519
1110.43277,0.01556
1108.37260,0.01593
1106.31243,0.01636
1104.25225,0.01666
1102.19208,0.01687
1100.13191,0.01720
1098.07174,0.01746
1096.01157,0.01759
1093.95139,0.01792
1091.89122,0.01817
1089.83105,0.01825
1087.77088,0.01867
1085.71071,0.01919
1083.65053,0.01945
1081.59036,0.01969
1079.53019,0.02008
1077.47002,0.02031
1075.40985,0.02016
1073.34967,0.01989
1071.28950,0.01980
1069.22933,0.01974
1067.16916,0.01961
1065.10898,0.01949
1063.04881,0.01924
1060.98864,0.01891
1058.92847,0.01883
1056.86830,0.01897
1054.80812,0.01893
1052.74795,0.01861
1050.68778,0.01821
1048.62761,0.01783
1046.56744,0.01743
1044.50726,0.01683
1042.44709,0.01604
1040.38692,0.01536
1038.32675,0.01502
1036.26657,0.01488
1034.20640,0.01475
1032.14623,0.01433
1030.08606,0.01357
1028.02589,0.01282
1025.96571,0.01237
1023.90554,0.01220
1021.84537,0.01201
1019.78520,0.01154
1017.72503,0.01114
1015.66485,0.01100
1013.60468,0.01082
1011.54451,0.01060
1009.48434,0.01062
1007.42417,0.01074
1005.36399,0.01065
1003.30382,0.01059
1001.24365,0.01088
999.18348,0.01109
997.12330,0.01110
995.06313,0.01141
993.00296,0.01180
990.94279,0.01183
988.88262,0.01172
986.82244,0.01192
984.76227,0.01238
982.70210,0.01271
980.64193,0.01267
978.58176,0.01247
976.52158,0.01233
974.46141,0.01213
972.40124,0.01187
970.34107,0.01187
968.28089,0.01198
966.22072,0.01198
964.16055,0.01218
962.10038,0.01227
960.04021,0.01183
957.98003,0.01124
955.91986,0.01093
953.85969,0.01110
951.79952,0.01146
949.73935,0.01160
947.67917,0.01145
945.61900,0.01117
943.55883,0.01070
941.49866,0.01006
939.43849,0.00968
937.37831,0.00949
935.31814,0.00920
933.25797,0.00896
931.19780,0.00917
929.13762,0.00963
927.07745,0.00966
925.01728,0.00933
922.95711,0.00898
920.89694,0.00828
918.83676,0.00753
916.77659,0.00734
914.71642,0.00741
912.65625,0.00705
910.59608,0.00641
908.53590,0.00618
906.47573,0.00639
904.41556,0.00663
902.35539,0.00651
900.29522,0.00626
898.23504,0.00633
896.17487,0.00654
894.11470,0.00659
892.05453,0.00658
889.99435,0.00674
887.93418,0.00704
885.87401,0.00732
883.81384,0.00745
881.75367,0.00759
879.69349,0.00810
877.63332,0.00875
875.57315,0.00897
873.51298,0.00896
871.45281,0.00941
869.39263,0.01025
867.33246,0.01101
865.27229,0.01168
863.21212,0.01189
861.15194,0.01138
859.09177,0.01074
857.03160,0.01028
854.97143,0.01043
852.91126,0.01109
850.85108,0.01142
848.79091,0.01150
846.73074,0.01142
844.67057,0.01102
842.61040,0.01059
840.55022,0.01030
838.49005,0.01022
836.42988,0.01000
834.36971,0.00931
832.30954,0.00874
830.24936,0.00857
828.18919,0.00833
826.12902,0.00788
824.06885,0.00738
822.00867,0.00742
819.94850,0.00811
817.88833,0.00824
815.82816,0.00755
813.76799,0.00702
811.70781,0.00666
809.64764,0.00635
807.58747,0.00650
805.52730,0.00712
803.46713,0.00792
801.40695,0.00802
799.34678,0.00730
797.28661,0.00670
795.22644,0.00649
793.16627,0.00646
791.10609,0.00646
789.04592,0.00607
786.98575,0.00542
784.92558,0.00505
782.86540,0.00459
780.80523,0.00422
778.74506,0.00456
776.68489,0.00510
774.62472,0.00576
772.56454,0.00628
770.50437,0.00618
768.44420,0.00572
766.38403,0.00538
764.32386,0.00552
762.26368,0.00553
760.20351,0.00502
758.14334,0.00425
756.08317,0.00352
754.02299,0.00394
751.96282,0.00515
749.90265,0.00545
747.84248,0.00486
745.78231,0.00410
743.72213,0.00329
741.66196,0.00281
739.60179,0.00291
737.54162,0.00300
735.48145,0.00297
733.42127,0.00360
731.36110,0.00463
729.30093,0.00533
727.24076,0.00563
725.18059,0.00518
723.12041,0.00449
721.06024,0.00368
719.00007,0.00328
716.93990,0.00314
714.87972,0.00301
712.81955,0.00269
710.75938,0.00256
708.69921,0.00318
706.63904,0.00400
704.57886,0.00416
702.51869,0.00388
700.45852,0.00425
698.39835,0.00532
696.33818,0.00544
694.27800,0.00409
692.21783,0.00294
690.15766,0.00328
688.09749,0.00456
686.03731,0.00540
683.97714,0.00538
681.91697,0.00524
679.85680,0.00525
677.79663,0.00469
675.73645,0.00342
673.67628,0.00292
671.61611,0.00395
669.55594,0.00341
667.49577,0.00212
665.43559,0.00442
663.37542,0.00422
661.31525,0.00388
659.25508,0.00385
657.19491,0.00416
655.13473,0.00484
653.07456,0.00499
651.01439,0.00470
648.95422,0.00511
646.89404,0.00630
644.83387,0.00658
642.77370,0.00503
640.71353,0.00341
638.65336,0.00407
636.59318,0.00590
634.53301,0.00668
632.47284,0.00667
630.41267,0.00567
628.35250,0.00262
626.29232,0.00000
624.23215,0.00213
622.17198,0.00515
620.11181,0.00437
618.05164,0.00212
615.99146,0.00015
613.93129,-0.00083
611.87112,-0.00002
609.81095,0.00067
607.75077,0.00070
605.69060,0.00017
603.63043,-0.00084
601.57026,-0.00032
599.51009,0.00000
