3996.73391,0.00108
3994.67373,0.00099
3992.61356,0.00094
3990.55339,0.00089
3988.49322,0.00069
3986.43305,0.00031
3984.37287,0.00000
3982.31270,0.00003
3980.25253,0.00042
3978.19236,0.00083
3976.13219,0.00075
3974.07201,0.00034
3972.01184,0.00022
3969.95167,0.00049
3967.89150,0.00085
3965.83133,0.00116
3963.77115,0.00133
3961.71098,0.00109
3959.65081,0.00055
3957.59064,0.00027
3955.53046,0.00049
3953.47029,0.00077
3951.41012,0.00079
3949.34995,0.00077
3947.28978,0.00079
3945.22960,0.00080
3943.16943,0.00087
3941.10926,0.00080
3939.04909,0.00062
3936.98892,0.00058
3934.92874,0.00074
3932.86857,0.00109
3930.80840,0.00139
3928.74823,0.00154
3926.68805,0.00176
3924.62788,0.00195
3922.56771,0.00164
3920.50754,0.00095
3918.44737,0.00053
3916.38719,0.00057
3914.32702,0.00079
3912.26685,0.00097
3910.20668,0.00097
3908.14651,0.00084
3906.08633,0.00093
3904.02616,0.00123
3901.96599,0.00123
3899.90582,0.00105
3897.84565,0.00105
3895.78547,0.00087
3893.72530,0.00059
3891.66513,0.00064
3889.60496,0.00072
3887.54478,0.00075
3885.48461,0.00107
3883.42444,0.00134
3881.36427,0.00125
3879.30410,0.00101
3877.24392,0.00055
3875.18375,0.00017
3873.12358,0.00035
3871.06341,0.00089
3869.00324,0.00124
3866.94306,0.00117
3864.88289,0.00111
3862.82272,0.00137
3860.76255,0.00162
3858.70237,0.00157
3856.64220,0.00135
3854.58203,0.00143
3852.52186,0.00186
3850.46169,0.00180
3848.40151,0.00128
3846.34134,0.00070
3844.28117,0.00037
3842.22100,0.00047
3840.16083,0.00085
3838.10065,0.00126
3836.04048,0.00156
3833.98031,0.00168
3831.92014,0.00168
3829.85997,0.00147
3827.79979,0.00109
3825.73962,0.00086
3823.67945,0.00099
3821.61928,0.00142
3819.55910,0.00169
3817.49893,0.00136
3815.43876,0.00093
3813.37859,0.00076
3811.31842,0.00057
3809.25824,0.00024
3807.19807,0.00009
3805.13790,0.00031
3803.07773,0.00069
3801.01756,0.00094
3798.95738,0.00075
3796.89721,0.00045
3794.83704,0.00057
3792.77687,0.00093
3790.71670,0.00106
3788.65652,0.00092
3786.59635,0.00085
3784.53618,0.00093
3782.47601,0.00090
3780.41583,0.00072
3778.35566,0.00057
3776.29549,0.00045
3774.23532,0.00043
3772.17515,0.00059
3770.11497,0.00090
3768.05480,0.00116
3765.99463,0.00109
3763.93446,0.00057
3761.87429,0.00032
3759.81411,0.00088
3757.75394,0.00148
3755.69377,0.00135
3753.63360,0.00089
3751.57342,0.00061
3749.51325,0.00095
3747.45308,0.00170
3745.39291,0.00238
3743.33274,0.00264
3741.27256,0.00251
3739.21239,0.00251
3737.15222,0.00258
3735.09205,0.00231
3733.03188,0.00175
3730.97170,0.00168
3728.91153,0.00186
3726.85136,0.00175
3724.79119,0.00140
3722.73102,0.00116
3720.67084,0.00135
3718.61067,0.00171
3716.55050,0.00199
3714.49033,0.00170
3712.43015,0.00094
3710.36998,0.00072
3708.30981,0.00104
3706.24964,0.00163
3704.18947,0.00198
3702.12929,0.00171
3700.06912,0.00120
3698.00895,0.00121
3695.94878,0.00172
3693.88861,0.00179
3691.82843,0.00126
3689.76826,0.00107
3687.70809,0.00159
3685.64792,0.00184
3683.58775,0.00164
3681.52757,0.00131
3679.46740,0.00106
3677.40723,0.00095
3675.34706,0.00133
3673.28688,0.00195
3671.22671,0.00234
3669.16654,0.00267
3667.10637,0.00279
3665.04620,0.00255
3662.98602,0.00214
3660.92585,0.00188
3658.86568,0.00214
3656.80551,0.00299
3654.74534,0.00348
3652.68516,0.00310
3650.62499,0.00309
3648.56482,0.00429
3646.50465,0.00503
3644.44447,0.00457
3642.38430,0.00383
3640.32413,0.00342
3638.26396,0.00353
3636.20379,0.00401
3634.14361,0.00444
3632.08344,0.00478
3630.02327,0.00550
3627.96310,0.00640
3625.90293,0.00645
3623.84275,0.00600
3621.78258,0.00555
3619.72241,0.00530
3617.66224,0.00558
3615.60207,0.00644
3613.54189,0.00763
3611.48172,0.00829
3609.42155,0.00825
3607.36138,0.00811
3605.30120,0.00812
3603.24103,0.00810
3601.18086,0.00797
3599.12069,0.00814
3597.06052,0.00849
3595.00034,0.00860
3592.94017,0.00842
3590.88000,0.00847
3588.81983,0.00874
3586.75966,0.00905
3584.69948,0.00927
3582.63931,0.00961
3580.57914,0.01004
3578.51897,0.01024
3576.45879,0.01009
3574.39862,0.00982
3572.33845,0.00975
3570.27828,0.01018
3568.21811,0.01091
3566.15793,0.01119
3564.09776,0.01091
3562.03759,0.01087
3559.97742,0.01140
3557.91725,0.01202
3555.85707,0.01231
3553.79690,0.01238
3551.73673,0.01243
3549.67656,0.01256
3547.61639,0.01296
3545.55621,0.01354
3543.49604,0.01373
3541.43587,0.01342
3539.37570,0.01329
3537.31552,0.01359
3535.25535,0.01386
3533.19518,0.01383
3531.13501,0.01388
3529.07484,0.01425
3527.01466,0.01476
3524.95449,0.01511
3522.89432,0.01519
3520.83415,0.01509
3518.77398,0.01479
3516.71380,0.01441
3514.65363,0.01440
3512.59346,0.01495
3510.53329,0.01555
3508.47312,0.01581
3506.41294,0.01595
3504.35277,0.01619
3502.29260,0.01643
3500.23243,0.01649
3498.17225,0.01651
3496.11208,0.01691
3494.05191,0.01743
3491.99174,0.01746
3489.93157,0.01731
3487.87139,0.01758
3485.81122,0.01805
3483.75105,0.01837
3481.69088,0.01860
3479.63071,0.01876
3477.57053,0.01881
3475.51036,0.01868
3473.45019,0.01844
3471.39002,0.01864
3469.32984,0.01940
3467.26967,0.01998
3465.20950,0.02026
3463.14933,0.02056
3461.08916,0.02067
3459.02898,0.02058
3456.96881,0.02056
3454.90864,0.02050
3452.84847,0.02034
3450.78830,0.02036
3448.72812,0.02056
3446.66795,0.02071
3444.60778,0.02075
3442.54761,0.02089
3440.48744,0.02117
3438.42726,0.02137
3436.36709,0.02143
3434.30692,0.02151
3432.24675,0.02170
3430.18657,0.02187
3428.12640,0.02189
3426.06623,0.02192
3424.00606,0.02222
3421.94589,0.02277
3419.88571,0.02332
3417.82554,0.02342
3415.76537,0.02303
3413.70520,0.02254
3411.64503,0.02238
3409.58485,0.02268
3407.52468,0.02297
3405.46451,0.02303
3403.40434,0.02314
3401.34416,0.02315
3399.28399,0.02307
3397.22382,0.02296
3395.16365,0.02302
3393.10348,0.02336
3391.04330,0.02384
3388.98313,0.02400
3386.92296,0.02391
3384.86279,0.02386
3382.80262,0.02369
3380.74244,0.02349
3378.68227,0.02378
3376.62210,0.02439
3374.56193,0.02456
3372.50176,0.02416
3370.44158,0.02375
3368.38141,0.02381
3366.32124,0.02448
3364.26107,0.02514
3362.20089,0.02505
3360.14072,0.02452
3358.08055,0.02424
3356.02038,0.02424
3353.96021,0.02426
3351.90003,0.02441
3349.83986,0.02463
3347.77969,0.02453
3345.71952,0.02421
3343.65935,0.02427
3341.59917,0.02463
3339.53900,0.02480
3337.47883,0.02465
3335.41866,0.02426
3333.35849,0.02406
3331.29831,0.02430
3329.23814,0.02464
3327.17797,0.02492
3325.11780,0.02530
3323.05762,0.02542
3320.99745,0.02504
3318.93728,0.02446
3316.87711,0.02424
3314.81694,0.02462
3312.75676,0.02508
3310.69659,0.02522
3308.63642,0.02521
3306.57625,0.02518
3304.51608,0.02504
3302.45590,0.02486
3300.39573,0.02499
3298.33556,0.02523
3296.27539,0.02521
3294.21521,0.02506
3292.15504,0.02494
3290.09487,0.02505
3288.03470,0.02541
3285.97453,0.02554
3283.91435,0.02536
3281.85418,0.02536
3279.79401,0.02552
3277.73384,0.02551
3275.67367,0.02541
3273.61349,0.02546
3271.55332,0.02552
3269.49315,0.02553
3267.43298,0.02543
3265.37281,0.02522
3263.31263,0.02512
3261.25246,0.02511
3259.19229,0.02512
3257.13212,0.02528
3255.07194,0.02536
3253.01177,0.02515
3250.95160,0.02505
3248.89143,0.02525
3246.83126,0.02542
3244.77108,0.02558
3242.71091,0.02570
3240.65074,0.02559
3238.59057,0.02545
3236.53040,0.02557
3234.47022,0.02567
3232.41005,0.02551
3230.34988,0.02548
3228.28971,0.02550
3226.22954,0.02534
3224.16936,0.02525
3222.10919,0.02518
3220.04902,0.02502
3217.98885,0.02498
3215.92867,0.02530
3213.86850,0.02560
3211.80833,0.02554
3209.74816,0.02549
3207.68799,0.02542
3205.62781,0.02510
3203.56764,0.02487
3201.50747,0.02492
3199.44730,0.02498
3197.38713,0.02486
3195.32695,0.02477
3193.26678,0.02480
3191.20661,0.02472
3189.14644,0.02452
3187.08626,0.02449
3185.02609,0.02471
3182.96592,0.02495
3180.90575,0.02501
3178.84558,0.02496
3176.78540,0.02478
3174.72523,0.02450
3172.66506,0.02448
3170.60489,0.02470
3168.54472,0.02469
3166.48454,0.02460
3164.42437,0.02463
3162.36420,0.02468
3160.30403,0.02469
3158.24386,0.02453
3156.18368,0.02418
3154.12351,0.02389
3152.06334,0.02388
3150.00317,0.02405
3147.94299,0.02422
3145.88282,0.02423
3143.82265,0.02415
3141.76248,0.02400
3139.70231,0.02384
3137.64213,0.02367
3135.58196,0.02349
3133.52179,0.02354
3131.46162,0.02375
3129.40145,0.02375
3127.34127,0.02361
3125.28110,0.02349
3123.22093,0.02343
3121.16076,0.02348
3119.10058,0.02340
3117.04041,0.02311
3114.98024,0.02287
3112.92007,0.02274
3110.85990,0.02266
3108.79972,0.02261
3106.73955,0.02258
3104.67938,0.02254
3102.61921,0.02248
3100.55904,0.02248
3098.49886,0.02245
3096.43869,0.02213
3094.37852,0.02187
3092.31835,0.02187
3090.25818,0.02179
3088.19800,0.02167
3086.13783,0.02169
3084.07766,0.02183
3082.01749,0.02203
3079.95731,0.02209
3077.89714,0.02184
3075.83697,0.02145
3073.77680,0.02114
3071.71663,0.02096
3069.65645,0.02094
3067.59628,0.02108
3065.53611,0.02110
3063.47594,0.02076
3061.41577,0.02039
3059.35559,0.02040
3057.29542,0.02057
3055.23525,0.02059
3053.17508,0.02049
3051.11491,0.02042
3049.05473,0.02043
3046.99456,0.02038
3044.93439,0.02015
3042.87422,0.01987
3040.81404,0.01973
3038.75387,0.01986
3036.69370,0.02006
3034.63353,0.01996
3032.57336,0.01967
3030.51318,0.01958
3028.45301,0.01952
3026.39284,0.01931
3024.33267,0.01920
3022.27250,0.01929
3020.21232,0.01931
3018.15215,0.01912
3016.09198,0.01906
3014.03181,0.01922
3011.97163,0.01937
3009.91146,0.01946
3007.85129,0.01952
3005.79112,0.01946
3003.73095,0.01928
3001.67077,0.01919
2999.61060,0.01930
2997.55043,0.01930
2995.49026,0.01902
2993.43009,0.01892
2991.36991,0.01897
2989.30974,0.01885
2987.24957,0.01878
2985.18940,0.01905
2983.12923,0.01927
2981.06905,0.01910
2979.00888,0.01873
2976.94871,0.01833
2974.88854,0.01820
2972.82836,0.01820
2970.76819,0.01792
2968.70802,0.01766
2966.64785,0.01783
2964.58768,0.01814
2962.52750,0.01823
2960.46733,0.01805
2958.40716,0.01775
2956.34699,0.01739
2954.28682,0.01713
2952.22664,0.01719
2950.16647,0.01728
2948.10630,0.01703
2946.04613,0.01673
2943.98596,0.01674
2941.92578,0.01688
2939.86561,0.01695
2937.80544,0.01691
2935.74527,0.01671
2933.68509,0.01654
2931.62492,0.01655
2929.56475,0.01664
2927.50458,0.01671
2925.44441,0.01673
2923.38423,0.01669
2921.32406,0.01646
2919.26389,0.01626
2917.20372,0.01635
2915.14355,0.01654
2913.08337,0.01656
2911.02320,0.01626
2908.96303,0.01589
2906.90286,0.01573
2904.84268,0.01569
2902.78251,0.01571
2900.72234,0.01558
2898.66217,0.01523
2896.60200,0.01504
2894.54182,0.01505
2892.48165,0.01495
2890.42148,0.01470
2888.36131,0.01453
2886.30114,0.01461
2884.24096,0.01472
2882.18079,0.01459
2880.12062,0.01431
2878.06045,0.01423
2876.00028,0.01430
2873.94010,0.01413
2871.87993,0.01385
2869.81976,0.01374
2867.75959,0.01381
2865.69941,0.01369
2863.63924,0.01330
2861.57907,0.01302
2859.51890,0.01299
2857.45873,0.01299
2855.39855,0.01292
2853.33838,0.01276
2851.27821,0.01267
2849.21804,0.01267
2847.15787,0.01244
2845.09769,0.01210
2843.03752,0.01199
2840.97735,0.01204
2838.91718,0.01202
2836.85700,0.01191
2834.79683,0.01184
2832.73666,0.01168
2830.67649,0.01141
2828.61632,0.01116
2826.55614,0.01103
2824.49597,0.01101
2822.43580,0.01100
2820.37563,0.01102
2818.31546,0.01101
2816.25528,0.01097
2814.19511,0.01092
2812.13494,0.01095
2810.07477,0.01093
2808.01460,0.01076
2805.95442,0.01069
2803.89425,0.01074
2801.83408,0.01072
2799.77391,0.01063
2797.71373,0.01045
2795.65356,0.01014
2793.59339,0.00991
2791.53322,0.00991
2789.47305,0.00991
2787.41287,0.00981
2785.35270,0.00974
2783.29253,0.00972
2781.23236,0.00970
2779.17219,0.00967
2777.11201,0.00954
2775.05184,0.00939
2772.99167,0.00930
2770.93150,0.00923
2768.87133,0.00935
2766.81115,0.00967
2764.75098,0.00978
2762.69081,0.00961
2760.63064,0.00951
2758.57046,0.00960
2756.51029,0.00948
2754.45012,0.00911
2752.38995,0.00902
2750.32978,0.00925
2748.26960,0.00931
2746.20943,0.00919
2744.14926,0.00907
2742.08909,0.00890
2740.02892,0.00860
2737.96874,0.00830
2735.90857,0.00819
2733.84840,0.00808
2731.78823,0.00799
2729.72805,0.00814
2727.66788,0.00829
2725.60771,0.00826
2723.54754,0.00822
2721.48737,0.00820
2719.42719,0.00818
2717.36702,0.00813
2715.30685,0.00808
2713.24668,0.00823
2711.18651,0.00835
2709.12633,0.00819
2707.06616,0.00801
2705.00599,0.00804
2702.94582,0.00799
2700.88565,0.00774
2698.82547,0.00759
2696.76530,0.00761
2694.70513,0.00756
2692.64496,0.00737
2690.58478,0.00730
2688.52461,0.00757
2686.46444,0.00784
2684.40427,0.00762
2682.34410,0.00712
2680.28392,0.00688
2678.22375,0.00706
2676.16358,0.00738
2674.10341,0.00757
2672.04324,0.00751
2669.98306,0.00718
2667.92289,0.00699
2665.86272,0.00718
2663.80255,0.00731
2661.74238,0.00723
2659.68220,0.00709
2657.62203,0.00691
2655.56186,0.00679
2653.50169,0.00675
2651.44151,0.00674
2649.38134,0.00675
2647.32117,0.00674
2645.26100,0.00683
2643.20083,0.00708
2641.14065,0.00715
2639.08048,0.00706
2637.02031,0.00693
2634.96014,0.00676
2632.89997,0.00657
2630.83979,0.00643
2628.77962,0.00638
2626.71945,0.00625
2624.65928,0.00592
2622.59910,0.00573
2620.53893,0.00595
2618.47876,0.00606
2616.41859,0.00575
2614.35842,0.00555
2612.29824,0.00580
2610.23807,0.00621
2608.17790,0.00650
2606.11773,0.00653
2604.05756,0.00645
2601.99738,0.00646
2599.93721,0.00656
2597.87704,0.00653
2595.81687,0.00634
2593.75670,0.00615
2591.69652,0.00593
2589.63635,0.00567
2587.57618,0.00558
2585.51601,0.00560
2583.45583,0.00564
2581.39566,0.00585
2579.33549,0.00588
2577.27532,0.00569
2575.21515,0.00573
2573.15497,0.00578
2571.09480,0.00553
2569.03463,0.00539
2566.97446,0.00548
2564.91429,0.00532
2562.85411,0.00525
2560.79394,0.00541
2558.73377,0.00546
2556.67360,0.00562
2554.61342,0.00572
2552.55325,0.00542
2550.49308,0.00519
2548.43291,0.00540
2546.37274,0.00594
2544.31256,0.00634
2542.25239,0.00624
2540.19222,0.00578
2538.13205,0.00538
2536.07188,0.00539
2534.01170,0.00561
2531.95153,0.00554
2529.89136,0.00534
2527.83119,0.00511
2525.77102,0.00471
2523.71084,0.00453
2521.65067,0.00488
2519.59050,0.00514
2517.53033,0.00486
2515.47015,0.00464
2513.40998,0.00507
2511.34981,0.00581
2509.28964,0.00623
2507.22947,0.00630
2505.16929,0.00624
2503.10912,0.00608
2501.04895,0.00621
2498.98878,0.00649
2496.92861,0.00605
2494.86843,0.00531
2492.80826,0.00507
2490.74809,0.00532
2488.68792,0.00578
2486.62775,0.00614
2484.56757,0.00635
2482.50740,0.00634
2480.44723,0.00629
2478.38706,0.00655
2476.32688,0.00670
2474.26671,0.00652
2472.20654,0.00633
2470.14637,0.00633
2468.08620,0.00649
2466.02602,0.00654
2463.96585,0.00649
2461.90568,0.00652
2459.84551,0.00651
2457.78534,0.00637
2455.72516,0.00617
2453.66499,0.00593
2451.60482,0.00582
2449.54465,0.00604
2447.48447,0.00638
2445.42430,0.00648
2443.36413,0.00642
2441.30396,0.00639
2439.24379,0.00632
2437.18361,0.00614
2435.12344,0.00602
2433.06327,0.00593
2431.00310,0.00579
2428.94293,0.00576
2426.88275,0.00605
2424.82258,0.00645
2422.76241,0.00652
2420.70224,0.00607
2418.64207,0.00566
2416.58189,0.00599
2414.52172,0.00653
2412.46155,0.00664
2410.40138,0.00653
2408.34120,0.00633
2406.28103,0.00602
2404.22086,0.00583
2402.16069,0.00594
2400.10052,0.00609
2398.04034,0.00549
2395.98017,0.00547
2393.92000,0.00583
2391.85983,0.00623
2389.79966,0.00667
2387.73948,0.00728
2385.67931,0.00799
2383.61914,0.00850
2381.55897,0.00875
2379.49880,0.00899
2377.43862,0.00943
2375.37845,0.00937
2373.31828,0.00953
2371.25811,0.01009
2369.19793,0.00960
2367.13776,0.00924
2365.07759,0.00985
2363.01742,0.00772
2360.95725,0.00689
2358.89707,0.00629
2356.83690,0.00754
2354.77673,0.00906
2352.71656,0.00967
2350.65639,0.01436
2348.59621,0.01700
2346.53604,0.00934
2344.47587,0.00704
2342.41570,0.00893
2340.35552,0.01105
2338.29535,0.01233
2336.23518,0.01164
2334.17501,0.01072
2332.11484,0.01032
2330.05466,0.01116
2327.99449,0.01135
2325.93432,0.01199
2323.87415,0.01089
2321.81398,0.01006
2319.75380,0.00967
2317.69363,0.01111
2315.63346,0.01119
2313.57329,0.01019
2311.51312,0.01008
2309.45294,0.01047
2307.39277,0.01055
2305.33260,0.01029
2303.27243,0.00993
2301.21225,0.00911
2299.15208,0.00866
2297.09191,0.00865
2295.03174,0.00876
2292.97157,0.00893
2290.91139,0.00900
2288.85122,0.00879
2286.79105,0.00830
2284.73088,0.00771
2282.67071,0.00723
2280.61053,0.00695
2278.55036,0.00676
2276.49019,0.00664
2274.43002,0.00687
2272.36984,0.00711
2270.30967,0.00703
2268.24950,0.00675
2266.18933,0.00643
2264.12916,0.00611
2262.06898,0.00584
2260.00881,0.00542
2257.94864,0.00536
2255.88847,0.00597
2253.82830,0.00663
2251.76812,0.00665
2249.70795,0.00644
2247.64778,0.00686
2245.58761,0.00693
2243.52744,0.00636
2241.46726,0.00628
2239.40709,0.00664
2237.34692,0.00628
2235.28675,0.00567
2233.22657,0.00523
2231.16640,0.00484
2229.10623,0.00484
2227.04606,0.00507
2224.98589,0.00525
2222.92571,0.00558
2220.86554,0.00606
2218.80537,0.00658
2216.74520,0.00658
2214.68503,0.00593
2212.62485,0.00539
2210.56468,0.00490
2208.50451,0.00453
2206.44434,0.00510
2204.38417,0.00603
2202.32399,0.00610
2200.26382,0.00570
2198.20365,0.00560
2196.14348,0.00577
2194.08330,0.00643
2192.02313,0.00724
2189.96296,0.00746
2187.90279,0.00659
2185.84262,0.00524
2183.78244,0.00546
2181.72227,0.00714
2179.66210,0.00737
2177.60193,0.00565
2175.54176,0.00451
2173.48158,0.00486
2171.42141,0.00569
2169.36124,0.00639
2167.30107,0.00670
2165.24089,0.00651
2163.18072,0.00547
2161.12055,0.00361
2159.06038,0.00205
2157.00021,0.00098
2154.94003,0.00100
2152.87986,0.00261
2150.81969,0.00412
2148.75952,0.00480
2146.69935,0.00485
2144.63917,0.00445
2142.57900,0.00431
2140.51883,0.00424
2138.45866,0.00353
2136.39849,0.00250
2134.33831,0.00234
2132.27814,0.00333
2130.21797,0.00433
2128.15780,0.00483
2126.09762,0.00524
2124.03745,0.00557
2121.97728,0.00550
2119.91711,0.00533
2117.85694,0.00536
2115.79676,0.00549
2113.73659,0.00600
2111.67642,0.00644
2109.61625,0.00602
2107.55608,0.00504
2105.49590,0.00452
2103.43573,0.00494
2101.37556,0.00543
2099.31539,0.00550
2097.25521,0.00572
2095.19504,0.00583
2093.13487,0.00576
2091.07470,0.00570
2089.01453,0.00567
2086.95435,0.00548
2084.89418,0.00522
2082.83401,0.00538
2080.77384,0.00552
2078.71367,0.00476
2076.65349,0.00372
2074.59332,0.00360
2072.53315,0.00427
2070.47298,0.00466
2068.41281,0.00451
2066.35263,0.00469
2064.29246,0.00524
2062.23229,0.00533
2060.17212,0.00535
2058.11194,0.00564
2056.05177,0.00588
2053.99160,0.00614
2051.93143,0.00612
2049.87126,0.00566
2047.81108,0.00540
2045.75091,0.00505
2043.69074,0.00412
2041.63057,0.00375
2039.57040,0.00450
2037.51022,0.00486
2035.45005,0.00426
2033.38988,0.00403
2031.32971,0.00438
2029.26954,0.00486
2027.20936,0.00534
2025.14919,0.00509
2023.08902,0.00416
2021.02885,0.00331
2018.96867,0.00266
2016.90850,0.00195
2014.84833,0.00072
2012.78816,0.00000
2010.72799,0.00143
2008.66781,0.00370
2006.60764,0.00453
2004.54747,0.00377
2002.48730,0.00288
2000.42713,0.00312
1998.36695,0.00415
1996.30678,0.00483
1994.24661,0.00461
1992.18644,0.00406
1990.12626,0.00424
1988.06609,0.00492
1986.00592,0.00487
1983.94575,0.00398
1981.88558,0.00334
1979.82540,0.00384
1977.76523,0.00544
1975.70506,0.00596
1973.64489,0.00398
1971.58472,0.00189
1969.52454,0.00169
1967.46437,0.00259
1965.40420,0.00355
1963.34403,0.00405
1961.28386,0.00412
1959.22368,0.00417
1957.16351,0.00421
1955.10334,0.00430
1953.04317,0.00451
1950.98299,0.00457
1948.92282,0.00474
1946.86265,0.00495
1944.80248,0.00515
1942.74231,0.00566
1940.68213,0.00578
1938.62196,0.00508
1936.56179,0.00414
1934.50162,0.00356
1932.44145,0.00342
1930.38127,0.00335
1928.32110,0.00358
1926.26093,0.00405
1924.20076,0.00433
1922.14059,0.00441
1920.08041,0.00423
1918.02024,0.00387
1915.96007,0.00389
1913.89990,0.00397
1911.83972,0.00350
1909.77955,0.00311
1907.71938,0.00331
1905.65921,0.00363
1903.59904,0.00377
1901.53886,0.00374
1899.47869,0.00375
1897.41852,0.00397
1895.35835,0.00399
1893.29818,0.00373
1891.23800,0.00379
1889.17783,0.00418
1887.11766,0.00421
1885.05749,0.00384
1882.99731,0.00365
1880.93714,0.00378
1878.87697,0.00385
1876.81680,0.00363
1874.75663,0.00335
1872.69645,0.00324
1870.63628,0.00324
1868.57611,0.00341
1866.51594,0.00361
1864.45577,0.00353
1862.39559,0.00317
1860.33542,0.00285
1858.27525,0.00306
1856.21508,0.00361
1854.15491,0.00375
1852.09473,0.00340
1850.03456,0.00305
1847.97439,0.00297
1845.91422,0.00301
1843.85404,0.00313
1841.79387,0.00339
1839.73370,0.00373
1837.67353,0.00406
1835.61336,0.00433
1833.55318,0.00446
1831.49301,0.00432
1829.43284,0.00374
1827.37267,0.00300
1825.31250,0.00263
1823.25232,0.00272
1821.19215,0.00297
1819.13198,0.00319
1817.07181,0.00317
1815.01163,0.00297
1812.95146,0.00293
1810.89129,0.00299
1808.83112,0.00309
1806.77095,0.00342
1804.71077,0.00383
1802.65060,0.00410
1800.59043,0.00420
1798.53026,0.00422
1796.47009,0.00421
1794.40991,0.00429
1792.34974,0.00446
1790.28957,0.00449
1788.22940,0.00430
1786.16923,0.00413
1784.10905,0.00409
1782.04888,0.00411
1779.98871,0.00410
1777.92854,0.00389
1775.86836,0.00355
1773.80819,0.00348
1771.74802,0.00392
1769.68785,0.00454
1767.62768,0.00472
1765.56750,0.00448
1763.50733,0.00436
1761.44716,0.00449
1759.38699,0.00459
1757.32682,0.00463
1755.26664,0.00472
1753.20647,0.00482
1751.14630,0.00491
1749.08613,0.00508
1747.02596,0.00538
1744.96578,0.00556
1742.90561,0.00530
1740.84544,0.00488
1738.78527,0.00476
1736.72509,0.00493
1734.66492,0.00533
1732.60475,0.00578
1730.54458,0.00578
1728.48441,0.00554
1726.42423,0.00541
1724.36406,0.00545
1722.30389,0.00549
1720.24372,0.00540
1718.18355,0.00538
1716.12337,0.00579
1714.06320,0.00626
1712.00303,0.00651
1709.94286,0.00656
1707.88268,0.00654
1705.82251,0.00684
1703.76234,0.00736
1701.70217,0.00743
1699.64200,0.00718
1697.58182,0.00729
1695.52165,0.00774
1693.46148,0.00824
1691.40131,0.00876
1689.34114,0.00918
1687.28096,0.00915
1685.22079,0.00889
1683.16062,0.00927
1681.10045,0.01008
1679.04028,0.01045
1676.98010,0.01042
1674.91993,0.01047
1672.85976,0.01077
1670.79959,0.01112
1668.73941,0.01148
1666.67924,0.01178
1664.61907,0.01199
1662.55890,0.01227
1660.49873,0.01276
1658.43855,0.01324
1656.37838,0.01339
1654.31821,0.01312
1652.25804,0.01282
1650.19787,0.01302
1648.13769,0.01349
1646.07752,0.01363
1644.01735,0.01343
1641.95718,0.01337
1639.89701,0.01345
1637.83683,0.01330
1635.77666,0.01276
1633.71649,0.01229
1631.65632,0.01215
1629.59614,0.01200
1627.53597,0.01167
1625.47580,0.01133
1623.41563,0.01101
1621.35546,0.01064
1619.29528,0.01015
1617.23511,0.00964
1615.17494,0.00959
1613.11477,0.00995
1611.05460,0.01008
1608.99442,0.00974
1606.93425,0.00925
1604.87408,0.00885
1602.81391,0.00857
1600.75373,0.00840
1598.69356,0.00838
1596.63339,0.00839
1594.57322,0.00825
1592.51305,0.00804
1590.45287,0.00794
1588.39270,0.00784
1586.33253,0.00771
1584.27236,0.00761
1582.21219,0.00755
1580.15201,0.00747
1578.09184,0.00736
1576.03167,0.00722
1573.97150,0.00706
1571.91133,0.00681
1569.85115,0.00658
1567.79098,0.00664
1565.73081,0.00682
1563.67064,0.00677
1561.61046,0.00618
1559.55029,0.00543
1557.49012,0.00574
1555.42995,0.00677
1553.36978,0.00739
1551.30960,0.00743
1549.24943,0.00719
1547.18926,0.00702
1545.12909,0.00709
1543.06892,0.00707
1541.00874,0.00659
1538.94857,0.00610
1536.88840,0.00614
1534.82823,0.00631
1532.76805,0.00633
1530.70788,0.00635
1528.64771,0.00643
1526.58754,0.00650
1524.52737,0.00642
1522.46719,0.00617
1520.40702,0.00596
1518.34685,0.00590
1516.28668,0.00590
1514.22651,0.00593
1512.16633,0.00621
1510.10616,0.00660
1508.04599,0.00636
1505.98582,0.00528
1503.92565,0.00461
1501.86547,0.00457
1499.80530,0.00446
1497.74513,0.00414
1495.68496,0.00400
1493.62478,0.00409
1491.56461,0.00421
1489.50444,0.00425
1487.44427,0.00407
1485.38410,0.00387
1483.32392,0.00387
1481.26375,0.00392
1479.20358,0.00393
1477.14341,0.00403
1475.08324,0.00421
1473.02306,0.00432
1470.96289,0.00431
1468.90272,0.00422
1466.84255,0.00411
1464.78238,0.00406
1462.72220,0.00412
1460.66203,0.00419
1458.60186,0.00422
1456.54169,0.00418
1454.48151,0.00402
1452.42134,0.00388
1450.36117,0.00370
1448.30100,0.00351
1446.24083,0.00346
1444.18065,0.00352
1442.12048,0.00355
1440.06031,0.00352
1438.00014,0.00357
1435.93997,0.00376
1433.87979,0.00389
1431.81962,0.00378
1429.75945,0.00363
1427.69928,0.00368
1425.63910,0.00387
1423.57893,0.00409
1421.51876,0.00429
1419.45859,0.00442
1417.39842,0.00433
1415.33824,0.00406
1413.27807,0.00398
1411.21790,0.00423
1409.15773,0.00445
1407.09756,0.00442
1405.03738,0.00424
1402.97721,0.00411
1400.91704,0.00418
1398.85687,0.00443
1396.79670,0.00458
1394.73652,0.00438
1392.67635,0.00395
1390.61618,0.00356
1388.55601,0.00337
1386.49583,0.00330
1384.43566,0.00330
1382.37549,0.00330
1380.31532,0.00328
1378.25515,0.00329
1376.19497,0.00328
1374.13480,0.00310
1372.07463,0.00287
1370.01446,0.00279
1367.95429,0.00285
1365.89411,0.00297
1363.83394,0.00317
1361.77377,0.00319
1359.71360,0.00279
1357.65343,0.00231
1355.59325,0.00213
1353.53308,0.00219
1351.47291,0.00225
1349.41274,0.00222
1347.35256,0.00211
1345.29239,0.00200
1343.23222,0.00203
1341.17205,0.00233
1339.11188,0.00259
1337.05170,0.00237
1334.99153,0.00186
1332.93136,0.00155
1330.87119,0.00155
1328.81102,0.00164
1326.75084,0.00168
1324.69067,0.00173
1322.63050,0.00182
1320.57033,0.00183
1318.51015,0.00177
1316.44998,0.00184
1314.38981,0.00188
1312.32964,0.00173
1310.26947,0.00168
1308.20929,0.00181
1306.14912,0.00182
1304.08895,0.00175
1302.02878,0.00180
1299.96861,0.00189
1297.90843,0.00187
1295.84826,0.00172
1293.78809,0.00167
1291.72792,0.00178
1289.66775,0.00190
1287.60757,0.00197
1285.54740,0.00199
1283.48723,0.00195
1281.42706,0.00194
1279.36688,0.00201
1277.30671,0.00213
1275.24654,0.00227
1273.18637,0.00234
1271.12620,0.00230
1269.06602,0.00218
1267.00585,0.00208
1264.94568,0.00216
1262.88551,0.00245
1260.82534,0.00263
1258.76516,0.00248
1256.70499,0.00223
1254.64482,0.00216
1252.58465,0.00225
1250.52447,0.00226
1248.46430,0.00215
1246.40413,0.00206
1244.34396,0.00204
1242.28379,0.00203
1240.22361,0.00197
1238.16344,0.00185
1236.10327,0.00182
1234.04310,0.00182
1231.98293,0.00176
1229.92275,0.00176
1227.86258,0.00175
1225.80241,0.00153
1223.74224,0.00122
1221.68207,0.00109
1219.62189,0.00113
1217.56172,0.00112
1215.50155,0.00103
1213.44138,0.00093
1211.38120,0.00086
1209.32103,0.00084
1207.26086,0.00080
1205.20069,0.00070
1203.14052,0.00057
1201.08034,0.00045
1199.02017,0.00043
1196.96000,0.00040
1194.89983,0.00021
1192.83966,0.00000
1190.77948,-0.00003
1188.71931,0.00009
1186.65914,0.00027
1184.59897,0.00042
1182.53880,0.00057
1180.47862,0.00076
1178.41845,0.00084
1176.35828,0.00077
1174.29811,0.00074
1172.23793,0.00081
1170.17776,0.00088
1168.11759,0.00094
1166.05742,0.00108
1163.99725,0.00132
1161.93707,0.00152
1159.87690,0.00163
1157.81673,0.00181
1155.75656,0.00214
1153.69639,0.00249
1151.63621,0.00280
1149.57604,0.00314
1147.51587,0.00341
1145.45570,0.00351
1143.39552,0.00363
1141.33535,0.00406
1139.27518,0.00486
1137.21501,0.00566
1135.15484,0.00623
1133.09466,0.00679
1131.03449,0.00752
1128.97432,0.00828
1126.91415,0.00882
1124.85398,0.00935
1122.79380,0.01020
1120.73363,0.01136
1118.67346,0.01257
1116.61329,0.01360
1114.55312,0.01444
1112.49294,0.01535
1110.43277,0.01645
1108.37260,0.01746
1106.31243,0.01835
1104.25225,0.01953
1102.19208,0.02083
1100.13191,0.02177
1098.07174,0.02248
1096.01157,0.02327
1093.95139,0.02402
1091.89122,0.02458
1089.83105,0.02523
1087.77088,0.02600
1085.71071,0.02676
1083.65053,0.02747
1081.59036,0.02817
1079.53019,0.02896
1077.47002,0.02976
1075.40985,0.03038
1073.34967,0.03074
1071.28950,0.03098
1069.22933,0.03135
1067.16916,0.03170
1065.10898,0.03164
1063.04881,0.03120
1060.98864,0.03082
1058.92847,0.03059
1056.86830,0.03017
1054.80812,0.02926
1052.74795,0.02799
1050.68778,0.02661
1048.62761,0.02539
1046.56744,0.02439
1044.50726,0.02333
1042.44709,0.02187
1040.38692,0.02020
1038.32675,0.01881
1036.26657,0.01785
1034.20640,0.01698
1032.14623,0.01577
1030.08606,0.01441
1028.02589,0.01348
1025.96571,0.01287
1023.90554,0.01211
1021.84537,0.01135
1019.78520,0.01086
1017.72503,0.01067
1015.66485,0.01061
1013.60468,0.01044
1011.54451,0.01020
1009.48434,0.01017
1007.42417,0.01048
1005.36399,0.01100
1003.30382,0.01165
1001.24365,0.01248
999.18348,0.01347
997.12330,0.01427
995.06313,0.01486
993.00296,0.01585
990.94279,0.01688
988.88262,0.01736
986.82244,0.01768
984.76227,0.01794
982.70210,0.01799
980.64193,0.01798
978.58176,0.01764
976.52158,0.01695
974.46141,0.01630
972.40124,0.01573
970.34107,0.01502
968.28089,0.01411
966.22072,0.01312
964.16055,0.01217
962.10038,0.01132
960.04021,0.01057
957.98003,0.00975
955.91986,0.00887
953.85969,0.00809
951.79952,0.00743
949.73935,0.00682
947.67917,0.00624
945.61900,0.00565
943.55883,0.00505
941.49866,0.00440
939.43849,0.00383
937.37831,0.00351
935.31814,0.00325
933.25797,0.00292
931.19780,0.00269
929.13762,0.00251
927.07745,0.00232
925.01728,0.00236
922.95711,0.00245
920.89694,0.00215
918.83676,0.00161
916.77659,0.00130
914.71642,0.00139
912.65625,0.00156
910.59608,0.00144
908.53590,0.00142
906.47573,0.00181
904.41556,0.00218
902.35539,0.00225
900.29522,0.00227
898.23504,0.00228
896.17487,0.00213
894.11470,0.00195
892.05453,0.00203
889.99435,0.00255
887.93418,0.00335
885.87401,0.00396
883.81384,0.00425
881.75367,0.00462
879.69349,0.00522
877.63332,0.00584
875.57315,0.00628
873.51298,0.00641
871.45281,0.00664
869.39263,0.00732
867.33246,0.00772
865.27229,0.00738
863.21212,0.00697
861.15194,0.00700
859.09177,0.00751
857.03160,0.00835
854.97143,0.00891
852.91126,0.00874
850.85108,0.00825
848.79091,0.00797
846.73074,0.00791
844.67057,0.00787
842.61040,0.00791
840.55022,0.00775
838.49005,0.00707
836.42988,0.00638
834.36971,0.00603
832.30954,0.00598
830.24936,0.00618
828.18919,0.00609
826.12902,0.00542
824.06885,0.00487
822.00867,0.00493
819.94850,0.00513
817.88833,0.00484
815.82816,0.00414
813.76799,0.00388
811.70781,0.00456
809.64764,0.00556
807.58747,0.00585
805.52730,0.00537
803.46713,0.00465
801.40695,0.00407
799.34678,0.00400
797.28661,0.00400
795.22644,0.00369
793.16627,0.00367
791.10609,0.00387
789.04592,0.00363
786.98575,0.00334
784.92558,0.00344
782.86540,0.00358
780.80523,0.00355
778.74506,0.00360
776.68489,0.00377
774.62472,0.00378
772.56454,0.00350
770.50437,0.00331
768.44420,0.00353
766.38403,0.00370
764.32386,0.00357
762.26368,0.00369
760.20351,0.00374
758.14334,0.00347
756.08317,0.00369
754.02299,0.00434
751.96282,0.00482
749.90265,0.00494
747.84248,0.00464
745.78231,0.00402
743.72213,0.00344
741.66196,0.00353
739.60179,0.00407
737.54162,0.00443
735.48145,0.00454
733.42127,0.00462
731.36110,0.00464
729.30093,0.00449
727.24076,0.00461
725.18059,0.00504
723.12041,0.00606
721.06024,0.00558
719.00007,0.00620
716.93990,0.00632
714.87972,0.00549
712.81955,0.00500
710.75938,0.00501
708.69921,0.00561
706.63904,0.00639
704.57886,0.00689
702.51869,0.00720
700.45852,0.00737
698.39835,0.00749
696.33818,0.00818
694.27800,0.00952
692.21783,0.01026
690.15766,0.00968
688.09749,0.00839
686.03731,0.00706
683.97714,0.00678
681.91697,0.00784
679.85680,0.00861
677.79663,0.00834
675.73645,0.00827
673.67628,0.01051
671.61611,0.01410
669.55594,0.00730
667.49577,0.00000
665.43559,0.01346
663.37542,0.01168
661.31525,0.00854
659.25508,0.00835
657.19491,0.00786
655.13473,0.00697
653.07456,0.00703
651.01439,0.00724
648.95422,0.00649
646.89404,0.00665
644.83387,0.00724
642.77370,0.00756
640.71353,0.00723
638.65336,0.00612
636.59318,0.00467
634.53301,0.00432
632.47284,0.00492
630.41267,0.00509
628.35250,0.00504
626.29232,0.00532
624.23215,0.00407
622.17198,0.00222
620.11181,0.00179
618.05164,0.00177
615.99146,0.00093
613.93129,0.00000
611.87112,-0.00007
609.81095,0.00008
607.75077,-0.00061
605.69060,-0.00117
603.63043,-0.00051
601.57026,0.00002
599.51009,0.00000
