3996.73391,0.00078
3994.67373,0.00070
3992.61356,0.00058
3990.55339,0.00048
3988.49322,0.00032
3986.43305,0.00011
3984.37287,0.00000
3982.31270,0.00009
3980.25253,0.00024
3978.19236,0.00031
3976.13219,0.00035
3974.07201,0.00042
3972.01184,0.00043
3969.95167,0.00042
3967.89150,0.00060
3965.83133,0.00088
3963.77115,0.00080
3961.71098,0.00043
3959.65081,0.00031
3957.59064,0.00050
3955.53046,0.00077
3953.47029,0.00090
3951.41012,0.00074
3949.34995,0.00049
3947.28978,0.00036
3945.22960,0.00028
3943.16943,0.00036
3941.10926,0.00070
3939.04909,0.00083
3936.98892,0.00063
3934.92874,0.00037
3932.86857,0.00027
3930.80840,0.00032
3928.74823,0.00031
3926.68805,0.00013
3924.62788,0.00005
3922.56771,0.00029
3920.50754,0.00057
3918.44737,0.00065
3916.38719,0.00076
3914.32702,0.00099
3912.26685,0.00122
3910.20668,0.00139
3908.14651,0.00133
3906.08633,0.00085
3904.02616,0.00021
3901.96599,0.00000
3899.90582,0.00028
3897.84565,0.00055
3895.78547,0.00047
3893.72530,0.00025
3891.66513,0.00039
3889.60496,0.00089
3887.54478,0.00121
3885.48461,0.00119
3883.42444,0.00099
3881.36427,0.00079
3879.30410,0.00079
3877.24392,0.00099
3875.18375,0.00113
3873.12358,0.00114
3871.06341,0.00105
3869.00324,0.00084
3866.94306,0.00061
3864.88289,0.00046
3862.82272,0.00034
3860.76255,0.00039
3858.70237,0.00071
3856.64220,0.00118
3854.58203,0.00149
3852.52186,0.00131
3850.46169,0.00097
3848.40151,0.00077
3846.34134,0.00066
3844.28117,0.00072
3842.22100,0.00104
3840.16083,0.00136
3838.10065,0.00132
3836.04048,0.00102
3833.98031,0.00087
3831.92014,0.00100
3829.85997,0.00125
3827.79979,0.00134
3825.73962,0.00113
3823.67945,0.00074
3821.61928,0.00041
3819.55910,0.00035
3817.49893,0.00068
3815.43876,0.00099
3813.37859,0.00086
3811.31842,0.00054
3809.25824,0.00053
3807.19807,0.00092
3805.13790,0.00140
3803.07773,0.00162
3801.01756,0.00142
3798.95738,0.00124
3796.89721,0.00139
3794.83704,0.00148
3792.77687,0.00141
3790.71670,0.00134
3788.65652,0.00129
3786.59635,0.00142
3784.53618,0.00167
3782.47601,0.00162
3780.41583,0.00134
3778.35566,0.00138
3776.29549,0.00176
3774.23532,0.00203
3772.17515,0.00203
3770.11497,0.00184
3768.05480,0.00156
3765.99463,0.00141
3763.93446,0.00138
3761.87429,0.00125
3759.81411,0.00109
3757.75394,0.00114
3755.69377,0.00132
3753.63360,0.00134
3751.57342,0.00135
3749.51325,0.00132
3747.45308,0.00098
3745.39291,0.00042
3743.33274,0.00031
3741.27256,0.00071
3739.21239,0.00081
3737.15222,0.00050
3735.09205,0.00052
3733.03188,0.00120
3730.97170,0.00155
3728.91153,0.00128
3726.85136,0.00099
3724.79119,0.00105
3722.73102,0.00137
3720.67084,0.00152
3718.61067,0.00138
3716.55050,0.00118
3714.49033,0.00131
3712.43015,0.00170
3710.36998,0.00175
3708.30981,0.00164
3706.24964,0.00161
3704.18947,0.00158
3702.12929,0.00151
3700.06912,0.00150
3698.00895,0.00159
3695.94878,0.00164
3693.88861,0.00187
3691.82843,0.00236
3689.76826,0.00258
3687.70809,0.00214
3685.64792,0.00174
3683.58775,0.00165
3681.52757,0.00165
3679.46740,0.00167
3677.40723,0.00191
3675.34706,0.00225
3673.28688,0.00251
3671.22671,0.00254
3669.16654,0.00212
3667.10637,0.00173
3665.04620,0.00182
3662.98602,0.00215
3660.92585,0.00242
3658.86568,0.00244
3656.80551,0.00221
3654.74534,0.00204
3652.68516,0.00227
3650.62499,0.00280
3648.56482,0.00326
3646.50465,0.00347
3644.44447,0.00352
3642.38430,0.00349
3640.32413,0.00364
3638.26396,0.00412
3636.20379,0.00466
3634.14361,0.00493
3632.08344,0.00502
3630.02327,0.00504
3627.96310,0.00503
3625.90293,0.00538
3623.84275,0.00594
3621.78258,0.00637
3619.72241,0.00651
3617.66224,0.00637
3615.60207,0.00624
3613.54189,0.00633
3611.48172,0.00660
3609.42155,0.00681
3607.36138,0.00713
3605.30120,0.00784
3603.24103,0.00857
3601.18086,0.00888
3599.12069,0.00868
3597.06052,0.00845
3595.00034,0.00854
3592.94017,0.00894
3590.88000,0.00911
3588.81983,0.00897
3586.75966,0.00907
3584.69948,0.00970
3582.63931,0.01025
3580.57914,0.01059
3578.51897,0.01104
3576.45879,0.01153
3574.39862,0.01181
3572.33845,0.01186
3570.27828,0.01173
3568.21811,0.01153
3566.15793,0.01158
3564.09776,0.01209
3562.03759,0.01273
3559.97742,0.01331
3557.91725,0.01382
3555.85707,0.01418
3553.79690,0.01432
3551.73673,0.01430
3549.67656,0.01416
3547.61639,0.01399
3545.55621,0.01414
3543.49604,0.01482
3541.43587,0.01555
3539.37570,0.01585
3537.31552,0.01592
3535.25535,0.01617
3533.19518,0.01654
3531.13501,0.01675
3529.07484,0.01683
3527.01466,0.01694
3524.95449,0.01716
3522.89432,0.01742
3520.83415,0.01761
3518.77398,0.01785
3516.71380,0.01820
3514.65363,0.01855
3512.59346,0.01882
3510.53329,0.01902
3508.47312,0.01919
3506.41294,0.01925
3504.35277,0.01927
3502.29260,0.01951
3500.23243,0.02005
3498.17225,0.02061
3496.11208,0.02092
3494.05191,0.02094
3491.99174,0.02084
3489.93157,0.02090
3487.87139,0.02128
3485.81122,0.02180
3483.75105,0.02205
3481.69088,0.02197
3479.63071,0.02195
3477.57053,0.02224
3475.51036,0.02266
3473.45019,0.02299
3471.39002,0.02314
3469.32984,0.02313
3467.26967,0.02314
3465.20950,0.02316
3463.14933,0.02326
3461.08916,0.02364
3459.02898,0.02421
3456.96881,0.02472
3454.90864,0.02504
3452.84847,0.02522
3450.78830,0.02537
3448.72812,0.02544
3446.66795,0.02546
3444.60778,0.02567
3442.54761,0.02597
3440.48744,0.02614
3438.42726,0.02632
3436.36709,0.02656
3434.30692,0.02675
3432.24675,0.02679
3430.18657,0.02680
3428.12640,0.02696
3426.06623,0.02707
3424.00606,0.02704
3421.94589,0.02720
3419.88571,0.02763
3417.82554,0.02810
3415.76537,0.02830
3413.70520,0.02822
3411.64503,0.02815
3409.58485,0.02826
3407.52468,0.02848
3405.46451,0.02870
3403.40434,0.02879
3401.34416,0.02893
3399.28399,0.02916
3397.22382,0.02921
3395.16365,0.02908
3393.10348,0.02917
3391.04330,0.02943
3388.98313,0.02963
3386.92296,0.02968
3384.86279,0.02964
3382.80262,0.02967
3380.74244,0.02978
3378.68227,0.02986
3376.62210,0.02996
3374.56193,0.03028
3372.50176,0.03068
3370.44158,0.03090
3368.38141,0.03095
3366.32124,0.03106
3364.26107,0.03128
3362.20089,0.03138
3360.14072,0.03131
3358.08055,0.03115
3356.02038,0.03115
3353.96021,0.03143
3351.90003,0.03164
3349.83986,0.03170
3347.77969,0.03174
3345.71952,0.03170
3343.65935,0.03170
3341.59917,0.03187
3339.53900,0.03206
3337.47883,0.03213
3335.41866,0.03215
3333.35849,0.03216
3331.29831,0.03213
3329.23814,0.03225
3327.17797,0.03253
3325.11780,0.03262
3323.05762,0.03252
3320.99745,0.03256
3318.93728,0.03281
3316.87711,0.03313
3314.81694,0.03341
3312.75676,0.03343
3310.69659,0.03322
3308.63642,0.03314
3306.57625,0.03321
3304.51608,0.03323
3302.45590,0.03322
3300.39573,0.03326
3298.33556,0.03337
3296.27539,0.03349
3294.21521,0.03352
3292.15504,0.03342
3290.09487,0.03347
3288.03470,0.03383
3285.97453,0.03416
3283.91435,0.03426
3281.85418,0.03418
3279.79401,0.03399
3277.73384,0.03384
3275.67367,0.03387
3273.61349,0.03394
3271.55332,0.03396
3269.49315,0.03396
3267.43298,0.03401
3265.37281,0.03415
3263.31263,0.03429
3261.25246,0.03442
3259.19229,0.03460
3257.13212,0.03472
3255.07194,0.03472
3253.01177,0.03469
3250.95160,0.03460
3248.89143,0.03457
3246.83126,0.03468
3244.77108,0.03479
3242.71091,0.03483
3240.65074,0.03474
3238.59057,0.03468
3236.53040,0.03466
3234.47022,0.03446
3232.41005,0.03427
3230.34988,0.03437
3228.28971,0.03466
3226.22954,0.03490
3224.16936,0.03494
3222.10919,0.03492
3220.04902,0.03493
3217.98885,0.03489
3215.92867,0.03485
3213.86850,0.03480
3211.80833,0.03480
3209.74816,0.03502
3207.68799,0.03514
3205.62781,0.03499
3203.56764,0.03484
3201.50747,0.03473
3199.44730,0.03468
3197.38713,0.03484
3195.32695,0.03503
3193.26678,0.03498
3191.20661,0.03488
3189.14644,0.03494
3187.08626,0.03503
3185.02609,0.03496
3182.96592,0.03485
3180.90575,0.03490
3178.84558,0.03494
3176.78540,0.03497
3174.72523,0.03504
3172.66506,0.03494
3170.60489,0.03476
3168.54472,0.03467
3166.48454,0.03449
3164.42437,0.03436
3162.36420,0.03444
3160.30403,0.03439
3158.24386,0.03408
3156.18368,0.03392
3154.12351,0.03401
3152.06334,0.03414
3150.00317,0.03420
3147.94299,0.03417
3145.88282,0.03410
3143.82265,0.03395
3141.76248,0.03379
3139.70231,0.03379
3137.64213,0.03384
3135.58196,0.03375
3133.52179,0.03358
3131.46162,0.03354
3129.40145,0.03377
3127.34127,0.03407
3125.28110,0.03400
3123.22093,0.03368
3121.16076,0.03346
3119.10058,0.03323
3117.04041,0.03300
3114.98024,0.03296
3112.92007,0.03296
3110.85990,0.03284
3108.79972,0.03273
3106.73955,0.03277
3104.67938,0.03275
3102.61921,0.03260
3100.55904,0.03259
3098.49886,0.03271
3096.43869,0.03273
3094.37852,0.03264
3092.31835,0.03243
3090.25818,0.03212
3088.19800,0.03182
3086.13783,0.03171
3084.07766,0.03182
3082.01749,0.03185
3079.95731,0.03164
3077.89714,0.03141
3075.83697,0.03124
3073.77680,0.03107
3071.71663,0.03089
3069.65645,0.03072
3067.59628,0.03052
3065.53611,0.03043
3063.47594,0.03049
3061.41577,0.03051
3059.35559,0.03047
3057.29542,0.03047
3055.23525,0.03044
3053.17508,0.03043
3051.11491,0.03037
3049.05473,0.03008
3046.99456,0.02961
3044.93439,0.02939
3042.87422,0.02950
3040.81404,0.02951
3038.75387,0.02917
3036.69370,0.02878
3034.63353,0.02859
3032.57336,0.02851
3030.51318,0.02846
3028.45301,0.02846
3026.39284,0.02848
3024.33267,0.02840
3022.27250,0.02818
3020.21232,0.02801
3018.15215,0.02796
3016.09198,0.02786
3014.03181,0.02770
3011.97163,0.02754
3009.91146,0.02736
3007.85129,0.02716
3005.79112,0.02701
3003.73095,0.02691
3001.67077,0.02680
2999.61060,0.02680
2997.55043,0.02683
2995.49026,0.02657
2993.43009,0.02613
2991.36991,0.02586
2989.30974,0.02577
2987.24957,0.02572
2985.18940,0.02574
2983.12923,0.02589
2981.06905,0.02601
2979.00888,0.02591
2976.94871,0.02563
2974.88854,0.02544
2972.82836,0.02546
2970.76819,0.02547
2968.70802,0.02536
2966.64785,0.02521
2964.58768,0.02512
2962.52750,0.02514
2960.46733,0.02507
2958.40716,0.02482
2956.34699,0.02453
2954.28682,0.02438
2952.22664,0.02435
2950.16647,0.02437
2948.10630,0.02444
2946.04613,0.02435
2943.98596,0.02402
2941.92578,0.02365
2939.86561,0.02341
2937.80544,0.02344
2935.74527,0.02355
2933.68509,0.02342
2931.62492,0.02312
2929.56475,0.02291
2927.50458,0.02286
2925.44441,0.02290
2923.38423,0.02300
2921.32406,0.02299
2919.26389,0.02282
2917.20372,0.02265
2915.14355,0.02255
2913.08337,0.02236
2911.02320,0.02205
2908.96303,0.02185
2906.90286,0.02187
2904.84268,0.02195
2902.78251,0.02182
2900.72234,0.02156
2898.66217,0.02136
2896.60200,0.02122
2894.54182,0.02110
2892.48165,0.02106
2890.42148,0.02112
2888.36131,0.02106
2886.30114,0.02079
2884.24096,0.02057
2882.18079,0.02057
2880.12062,0.02062
2878.06045,0.02055
2876.00028,0.02032
2873.94010,0.02012
2871.87993,0.02011
2869.81976,0.02009
2867.75959,0.01999
2865.69941,0.01995
2863.63924,0.01996
2861.57907,0.02004
2859.51890,0.02004
2857.45873,0.01975
2855.39855,0.01943
2853.33838,0.01936
2851.27821,0.01933
2849.21804,0.01923
2847.15787,0.01908
2845.09769,0.01883
2843.03752,0.01862
2840.97735,0.01847
2838.91718,0.01826
2836.85700,0.01806
2834.79683,0.01800
2832.73666,0.01806
2830.67649,0.01809
2828.61632,0.01798
2826.55614,0.01776
2824.49597,0.01766
2822.43580,0.01773
2820.37563,0.01776
2818.31546,0.01761
2816.25528,0.01739
2814.19511,0.01726
2812.13494,0.01718
2810.07477,0.01703
2808.01460,0.01681
2805.95442,0.01669
2803.89425,0.01659
2801.83408,0.01645
2799.77391,0.01637
2797.71373,0.01637
2795.65356,0.01640
2793.59339,0.01643
2791.53322,0.01634
2789.47305,0.01613
2787.41287,0.01598
2785.35270,0.01589
2783.29253,0.01572
2781.23236,0.01553
2779.17219,0.01553
2777.11201,0.01562
2775.05184,0.01556
2772.99167,0.01541
2770.93150,0.01529
2768.87133,0.01515
2766.81115,0.01497
2764.75098,0.01482
2762.69081,0.01474
2760.63064,0.01469
2758.57046,0.01467
2756.51029,0.01475
2754.45012,0.01480
2752.38995,0.01461
2750.32978,0.01433
2748.26960,0.01425
2746.20943,0.01423
2744.14926,0.01410
2742.08909,0.01390
2740.02892,0.01377
2737.96874,0.01372
2735.90857,0.01363
2733.84840,0.01353
2731.78823,0.01353
2729.72805,0.01354
2727.66788,0.01344
2725.60771,0.01333
2723.54754,0.01329
2721.48737,0.01328
2719.42719,0.01323
2717.36702,0.01304
2715.30685,0.01280
2713.24668,0.01271
2711.18651,0.01268
2709.12633,0.01261
2707.06616,0.01243
2705.00599,0.01228
2702.94582,0.01232
2700.88565,0.01236
2698.82547,0.01222
2696.76530,0.01210
2694.70513,0.01204
2692.64496,0.01193
2690.58478,0.01176
2688.52461,0.01166
2686.46444,0.01162
2684.40427,0.01146
2682.34410,0.01127
2680.28392,0.01121
2678.22375,0.01120
2676.16358,0.01118
2674.10341,0.01109
2672.04324,0.01096
2669.98306,0.01080
2667.92289,0.01074
2665.86272,0.01092
2663.80255,0.01110
2661.74238,0.01109
2659.68220,0.01093
2657.62203,0.01077
2655.56186,0.01055
2653.50169,0.01028
2651.44151,0.01016
2649.38134,0.01029
2647.32117,0.01043
2645.26100,0.01030
2643.20083,0.01002
2641.14065,0.00991
2639.08048,0.01005
2637.02031,0.01008
2634.96014,0.00993
2632.89997,0.00981
2630.83979,0.00974
2628.77962,0.00962
2626.71945,0.00960
2624.65928,0.00964
2622.59910,0.00942
2620.53893,0.00915
2618.47876,0.00912
2616.41859,0.00917
2614.35842,0.00922
2612.29824,0.00915
2610.23807,0.00895
2608.17790,0.00888
2606.11773,0.00898
2604.05756,0.00904
2601.99738,0.00886
2599.93721,0.00850
2597.87704,0.00826
2595.81687,0.00820
2593.75670,0.00827
2591.69652,0.00846
2589.63635,0.00848
2587.57618,0.00826
2585.51601,0.00825
2583.45583,0.00846
2581.39566,0.00852
2579.33549,0.00836
2577.27532,0.00821
2575.21515,0.00819
2573.15497,0.00825
2571.09480,0.00821
2569.03463,0.00801
2566.97446,0.00793
2564.91429,0.00804
2562.85411,0.00804
2560.79394,0.00777
2558.73377,0.00767
2556.67360,0.00786
2554.61342,0.00801
2552.55325,0.00818
2550.49308,0.00826
2548.43291,0.00811
2546.37274,0.00807
2544.31256,0.00810
2542.25239,0.00787
2540.19222,0.00760
2538.13205,0.00765
2536.07188,0.00778
2534.01170,0.00781
2531.95153,0.00783
2529.89136,0.00778
2527.83119,0.00761
2525.77102,0.00760
2523.71084,0.00775
2521.65067,0.00776
2519.59050,0.00784
2517.53033,0.00808
2515.47015,0.00819
2513.40998,0.00824
2511.34981,0.00830
2509.28964,0.00836
2507.22947,0.00835
2505.16929,0.00806
2503.10912,0.00784
2501.04895,0.00807
2498.98878,0.00841
2496.92861,0.00849
2494.86843,0.00835
2492.80826,0.00828
2490.74809,0.00846
2488.68792,0.00861
2486.62775,0.00864
2484.56757,0.00881
2482.50740,0.00899
2480.44723,0.00897
2478.38706,0.00888
2476.32688,0.00899
2474.26671,0.00915
2472.20654,0.00903
2470.14637,0.00884
2468.08620,0.00888
2466.02602,0.00918
2463.96585,0.00952
2461.90568,0.00967
2459.84551,0.00950
2457.78534,0.00920
2455.72516,0.00924
2453.66499,0.00952
2451.60482,0.00966
2449.54465,0.00967
2447.48447,0.00959
2445.42430,0.00941
2443.36413,0.00933
2441.30396,0.00934
2439.24379,0.00919
2437.18361,0.00888
2435.12344,0.00880
2433.06327,0.00901
2431.00310,0.00925
2428.94293,0.00949
2426.88275,0.00964
2424.82258,0.00952
2422.76241,0.00922
2420.70224,0.00892
2418.64207,0.00892
2416.58189,0.00923
2414.52172,0.00933
2412.46155,0.00923
2410.40138,0.00933
2408.34120,0.00944
2406.28103,0.00941
2404.22086,0.00935
2402.16069,0.00929
2400.10052,0.00914
2398.04034,0.00904
2395.98017,0.00921
2393.92000,0.00945
2391.85983,0.00943
2389.79966,0.00911
2387.73948,0.00864
2385.67931,0.00820
2383.61914,0.00801
2381.55897,0.00795
2379.49880,0.00783
2377.43862,0.00770
2375.37845,0.00820
2373.31828,0.00897
2371.25811,0.00966
2369.19793,0.01070
2367.13776,0.01123
2365.07759,0.01100
2363.01742,0.01190
2360.95725,0.01184
2358.89707,0.01312
2356.83690,0.01388
2354.77673,0.01293
2352.71656,0.01061
2350.65639,0.00609
2348.59621,0.00429
2346.53604,0.00972
2344.47587,0.01131
2342.41570,0.01029
2340.35552,0.00962
2338.29535,0.00883
2336.23518,0.00845
2334.17501,0.00849
2332.11484,0.00903
2330.05466,0.00934
2327.99449,0.00999
2325.93432,0.00961
2323.87415,0.00924
2321.81398,0.00855
2319.75380,0.00889
2317.69363,0.00854
2315.63346,0.00810
2313.57329,0.00766
2311.51312,0.00717
2309.45294,0.00712
2307.39277,0.00744
2305.33260,0.00780
2303.27243,0.00801
2301.21225,0.00824
2299.15208,0.00819
2297.09191,0.00806
2295.03174,0.00813
2292.97157,0.00830
2290.91139,0.00841
2288.85122,0.00829
2286.79105,0.00812
2284.73088,0.00821
2282.67071,0.00853
2280.61053,0.00874
2278.55036,0.00866
2276.49019,0.00859
2274.43002,0.00855
2272.36984,0.00823
2270.30967,0.00779
2268.24950,0.00760
2266.18933,0.00751
2264.12916,0.00765
2262.06898,0.00805
2260.00881,0.00826
2257.94864,0.00794
2255.88847,0.00738
2253.82830,0.00696
2251.76812,0.00663
2249.70795,0.00620
2247.64778,0.00619
2245.58761,0.00675
2243.52744,0.00695
2241.46726,0.00667
2239.40709,0.00644
2237.34692,0.00635
2235.28675,0.00626
2233.22657,0.00582
2231.16640,0.00533
2229.10623,0.00551
2227.04606,0.00611
2224.98589,0.00658
2222.92571,0.00672
2220.86554,0.00668
2218.80537,0.00667
2216.74520,0.00641
2214.68503,0.00596
2212.62485,0.00582
2210.56468,0.00605
2208.50451,0.00640
2206.44434,0.00664
2204.38417,0.00635
2202.32399,0.00546
2200.26382,0.00504
2198.20365,0.00534
2196.14348,0.00549
2194.08330,0.00558
2192.02313,0.00589
2189.96296,0.00602
2187.90279,0.00607
2185.84262,0.00583
2183.78244,0.00517
2181.72227,0.00425
2179.66210,0.00335
2177.60193,0.00312
2175.54176,0.00337
2173.48158,0.00376
2171.42141,0.00434
2169.36124,0.00491
2167.30107,0.00493
2165.24089,0.00475
2163.18072,0.00523
2161.12055,0.00504
2159.06038,0.00315
2157.00021,0.00162
2154.94003,0.00151
2152.87986,0.00161
2150.81969,0.00153
2148.75952,0.00191
2146.69935,0.00276
2144.63917,0.00345
2142.57900,0.00346
2140.51883,0.00302
2138.45866,0.00253
2136.39849,0.00225
2134.33831,0.00248
2132.27814,0.00284
2130.21797,0.00296
2128.15780,0.00338
2126.09762,0.00397
2124.03745,0.00401
2121.97728,0.00367
2119.91711,0.00359
2117.85694,0.00371
2115.79676,0.00365
2113.73659,0.00357
2111.67642,0.00378
2109.61625,0.00393
2107.55608,0.00401
2105.49590,0.00452
2103.43573,0.00534
2101.37556,0.00544
2099.31539,0.00456
2097.25521,0.00372
2095.19504,0.00350
2093.13487,0.00343
2091.07470,0.00358
2089.01453,0.00409
2086.95435,0.00446
2084.89418,0.00415
2082.83401,0.00321
2080.77384,0.00245
2078.71367,0.00235
2076.65349,0.00271
2074.59332,0.00323
2072.53315,0.00360
2070.47298,0.00374
2068.41281,0.00386
2066.35263,0.00362
2064.29246,0.00300
2062.23229,0.00285
2060.17212,0.00349
2058.11194,0.00448
2056.05177,0.00523
2053.99160,0.00545
2051.93143,0.00519
2049.87126,0.00444
2047.81108,0.00355
2045.75091,0.00305
2043.69074,0.00293
2041.63057,0.00269
2039.57040,0.00236
2037.51022,0.00237
2035.45005,0.00240
2033.38988,0.00236
2031.32971,0.00268
2029.26954,0.00294
2027.20936,0.00263
2025.14919,0.00209
2023.08902,0.00166
2021.02885,0.00154
2018.96867,0.00213
2016.90850,0.00275
2014.84833,0.00237
2012.78816,0.00190
2010.72799,0.00224
2008.66781,0.00218
2006.60764,0.00138
2004.54747,0.00144
2002.48730,0.00223
2000.42713,0.00282
1998.36695,0.00356
1996.30678,0.00391
1994.24661,0.00302
1992.18644,0.00179
1990.12626,0.00163
1988.06609,0.00235
1986.00592,0.00298
1983.94575,0.00320
1981.88558,0.00324
1979.82540,0.00292
1977.76523,0.00190
1975.70506,0.00142
1973.64489,0.00231
1971.58472,0.00312
1969.52454,0.00289
1967.46437,0.00238
1965.40420,0.00208
1963.34403,0.00180
1961.28386,0.00119
1959.22368,0.00027
1957.16351,0.00000
1955.10334,0.00079
1953.04317,0.00183
1950.98299,0.00223
1948.92282,0.00192
1946.86265,0.00151
1944.80248,0.00157
1942.74231,0.00207
1940.68213,0.00223
1938.62196,0.00186
1936.56179,0.00160
1934.50162,0.00196
1932.44145,0.00269
1930.38127,0.00292
1928.32110,0.00262
1926.26093,0.00228
1924.20076,0.00187
1922.14059,0.00182
1920.08041,0.00249
1918.02024,0.00303
1915.96007,0.00288
1913.89990,0.00272
1911.83972,0.00282
1909.77955,0.00289
1907.71938,0.00283
1905.65921,0.00278
1903.59904,0.00279
1901.53886,0.00269
1899.47869,0.00244
1897.41852,0.00222
1895.35835,0.00204
1893.29818,0.00182
1891.23800,0.00168
1889.17783,0.00195
1887.11766,0.00258
1885.05749,0.00293
1882.99731,0.00277
1880.93714,0.00242
1878.87697,0.00220
1876.81680,0.00216
1874.75663,0.00223
1872.69645,0.00240
1870.63628,0.00273
1868.57611,0.00316
1866.51594,0.00336
1864.45577,0.00327
1862.39559,0.00322
1860.33542,0.00329
1858.27525,0.00340
1856.21508,0.00365
1854.15491,0.00390
1852.09473,0.00384
1850.03456,0.00346
1847.97439,0.00298
1845.91422,0.00265
1843.85404,0.00270
1841.79387,0.00305
1839.73370,0.00335
1837.67353,0.00335
1835.61336,0.00307
1833.55318,0.00273
1831.49301,0.00252
1829.43284,0.00251
1827.37267,0.00272
1825.31250,0.00299
1823.25232,0.00322
1821.19215,0.00330
1819.13198,0.00317
1817.07181,0.00300
1815.01163,0.00296
1812.95146,0.00303
1810.89129,0.00315
1808.83112,0.00328
1806.77095,0.00325
1804.71077,0.00300
1802.65060,0.00283
1800.59043,0.00303
1798.53026,0.00344
1796.47009,0.00378
1794.40991,0.00396
1792.34974,0.00384
1790.28957,0.00346
1788.22940,0.00323
1786.16923,0.00324
1784.10905,0.00335
1782.04888,0.00341
1779.98871,0.00345
1777.92854,0.00359
1775.86836,0.00379
1773.80819,0.00391
1771.74802,0.00378
1769.68785,0.00342
1767.62768,0.00325
1765.56750,0.00336
1763.50733,0.00366
1761.44716,0.00408
1759.38699,0.00434
1757.32682,0.00432
1755.26664,0.00416
1753.20647,0.00398
1751.14630,0.00389
1749.08613,0.00404
1747.02596,0.00428
1744.96578,0.00439
1742.90561,0.00448
1740.84544,0.00468
1738.78527,0.00492
1736.72509,0.00504
1734.66492,0.00488
1732.60475,0.00465
1730.54458,0.00485
1728.48441,0.00537
1726.42423,0.00577
1724.36406,0.00591
1722.30389,0.00608
1720.24372,0.00643
1718.18355,0.00658
1716.12337,0.00622
1714.06320,0.00595
1712.00303,0.00613
1709.94286,0.00651
1707.88268,0.00682
1705.82251,0.00695
1703.76234,0.00697
1701.70217,0.00704
1699.64200,0.00725
1697.58182,0.00768
1695.52165,0.00831
1693.46148,0.00888
1691.40131,0.00920
1689.34114,0.00945
1687.28096,0.00987
1685.22079,0.01049
1683.16062,0.01099
1681.10045,0.01123
1679.04028,0.01144
1676.98010,0.01181
1674.91993,0.01236
1672.85976,0.01289
1670.79959,0.01332
1668.73941,0.01363
1666.67924,0.01379
1664.61907,0.01398
1662.55890,0.01420
1660.49873,0.01429
1658.43855,0.01437
1656.37838,0.01461
1654.31821,0.01490
1652.25804,0.01510
1650.19787,0.01533
1648.13769,0.01554
1646.07752,0.01544
1644.01735,0.01505
1641.95718,0.01472
1639.89701,0.01458
1637.83683,0.01463
1635.77666,0.01464
1633.71649,0.01444
1631.65632,0.01419
1629.59614,0.01400
1627.53597,0.01392
1625.47580,0.01384
1623.41563,0.01351
1621.35546,0.01314
1619.29528,0.01308
1617.23511,0.01311
1615.17494,0.01291
1613.11477,0.01262
1611.05460,0.01238
1608.99442,0.01214
1606.93425,0.01191
1604.87408,0.01175
1602.81391,0.01162
1600.75373,0.01148
1598.69356,0.01138
1596.63339,0.01124
1594.57322,0.01098
1592.51305,0.01066
1590.45287,0.01041
1588.39270,0.01018
1586.33253,0.00989
1584.27236,0.00953
1582.21219,0.00920
1580.15201,0.00908
1578.09184,0.00912
1576.03167,0.00900
1573.97150,0.00874
1571.91133,0.00862
1569.85115,0.00847
1567.79098,0.00809
1565.73081,0.00773
1563.67064,0.00766
1561.61046,0.00799
1559.55029,0.00820
1557.49012,0.00750
1555.42995,0.00671
1553.36978,0.00643
1551.30960,0.00633
1549.24943,0.00618
1547.18926,0.00601
1545.12909,0.00587
1543.06892,0.00591
1541.00874,0.00611
1538.94857,0.00602
1536.88840,0.00572
1534.82823,0.00544
1532.76805,0.00512
1530.70788,0.00480
1528.64771,0.00463
1526.58754,0.00459
1524.52737,0.00463
1522.46719,0.00453
1520.40702,0.00416
1518.34685,0.00387
1516.28668,0.00372
1514.22651,0.00357
1512.16633,0.00334
1510.10616,0.00307
1508.04599,0.00304
1505.98582,0.00329
1503.92565,0.00340
1501.86547,0.00338
1499.80530,0.00334
1497.74513,0.00321
1495.68496,0.00310
1493.62478,0.00312
1491.56461,0.00307
1489.50444,0.00278
1487.44427,0.00256
1485.38410,0.00260
1483.32392,0.00275
1481.26375,0.00283
1479.20358,0.00276
1477.14341,0.00256
1475.08324,0.00240
1473.02306,0.00243
1470.96289,0.00261
1468.90272,0.00281
1466.84255,0.00299
1464.78238,0.00312
1462.72220,0.00309
1460.66203,0.00294
1458.60186,0.00270
1456.54169,0.00243
1454.48151,0.00235
1452.42134,0.00243
1450.36117,0.00257
1448.30100,0.00267
1446.24083,0.00270
1444.18065,0.00274
1442.12048,0.00278
1440.06031,0.00275
1438.00014,0.00252
1435.93997,0.00222
1433.87979,0.00217
1431.81962,0.00237
1429.75945,0.00262
1427.69928,0.00279
1425.63910,0.00292
1423.57893,0.00299
1421.51876,0.00290
1419.45859,0.00273
1417.39842,0.00278
1415.33824,0.00308
1413.27807,0.00332
1411.21790,0.00334
1409.15773,0.00324
1407.09756,0.00311
1405.03738,0.00299
1402.97721,0.00295
1400.91704,0.00286
1398.85687,0.00263
1396.79670,0.00242
1394.73652,0.00230
1392.67635,0.00223
1390.61618,0.00220
1388.55601,0.00224
1386.49583,0.00238
1384.43566,0.00252
1382.37549,0.00246
1380.31532,0.00218
1378.25515,0.00195
1376.19497,0.00189
1374.13480,0.00192
1372.07463,0.00200
1370.01446,0.00212
1367.95429,0.00220
1365.89411,0.00215
1363.83394,0.00187
1361.77377,0.00156
1359.71360,0.00156
1357.65343,0.00183
1355.59325,0.00206
1353.53308,0.00208
1351.47291,0.00201
1349.41274,0.00203
1347.35256,0.00206
1345.29239,0.00192
1343.23222,0.00155
1341.17205,0.00103
1339.11188,0.00070
1337.05170,0.00089
1334.99153,0.00135
1332.93136,0.00167
1330.87119,0.00179
1328.81102,0.00179
1326.75084,0.00175
1324.69067,0.00171
1322.63050,0.00169
1320.57033,0.00164
1318.51015,0.00160
1316.44998,0.00165
1314.38981,0.00177
1312.32964,0.00188
1310.26947,0.00200
1308.20929,0.00211
1306.14912,0.00214
1304.08895,0.00218
1302.02878,0.00226
1299.96861,0.00230
1297.90843,0.00221
1295.84826,0.00210
1293.78809,0.00217
1291.72792,0.00232
1289.66775,0.00233
1287.60757,0.00231
1285.54740,0.00244
1283.48723,0.00254
1281.42706,0.00246
1279.36688,0.00237
1277.30671,0.00234
1275.24654,0.00232
1273.18637,0.00234
1271.12620,0.00242
1269.06602,0.00242
1267.00585,0.00238
1264.94568,0.00254
1262.88551,0.00281
1260.82534,0.00292
1258.76516,0.00282
1256.70499,0.00274
1254.64482,0.00269
1252.58465,0.00259
1250.52447,0.00254
1248.46430,0.00258
1246.40413,0.00255
1244.34396,0.00245
1242.28379,0.00242
1240.22361,0.00236
1238.16344,0.00219
1236.10327,0.00196
1234.04310,0.00178
1231.98293,0.00171
1229.92275,0.00169
1227.86258,0.00160
1225.80241,0.00141
1223.74224,0.00116
1221.68207,0.00092
1219.62189,0.00078
1217.56172,0.00077
1215.50155,0.00068
1213.44138,0.00042
1211.38120,0.00018
1209.32103,0.00007
1207.26086,0.00007
1205.20069,0.00015
1203.14052,0.00017
1201.08034,0.00010
1199.02017,0.00004
1196.96000,0.00004
1194.89983,0.00005
1192.83966,0.00008
1190.77948,0.00013
1188.71931,0.00014
1186.65914,0.00022
1184.59897,0.00045
1182.53880,0.00071
1180.47862,0.00088
1178.41845,0.00103
1176.35828,0.00131
1174.29811,0.00172
1172.23793,0.00206
1170.17776,0.00233
1168.11759,0.00271
1166.05742,0.00311
1163.99725,0.00341
1161.93707,0.00381
1159.87690,0.00435
1157.81673,0.00495
1155.75656,0.00557
1153.69639,0.00612
1151.63621,0.00658
1149.57604,0.00704
1147.51587,0.00761
1145.45570,0.00837
1143.39552,0.00927
1141.33535,0.01026
1139.27518,0.01125
1137.21501,0.01219
1135.15484,0.01306
1133.09466,0.01391
1131.03449,0.01490
1128.97432,0.01601
1126.91415,0.01712
1124.85398,0.01814
1122.79380,0.01912
1120.73363,0.02016
1118.67346,0.02126
1116.61329,0.02239
1114.55312,0.02352
1112.49294,0.02463
1110.43277,0.02575
1108.37260,0.02684
1106.31243,0.02778
1104.25225,0.02867
1102.19208,0.02966
1100.13191,0.03076
1098.07174,0.03183
1096.01157,0.03275
1093.95139,0.03369
1091.89122,0.03467
1089.83105,0.03540
1087.77088,0.03590
1085.71071,0.03655
1083.65053,0.03740
1081.59036,0.03823
1079.53019,0.03898
1077.47002,0.03963
1075.40985,0.04029
1073.34967,0.04098
1071.28950,0.04154
1069.22933,0.04191
1067.16916,0.04212
1065.10898,0.04214
1063.04881,0.04221
1060.98864,0.04241
1058.92847,0.04238
1056.86830,0.04182
1054.80812,0.04091
1052.74795,0.04004
1050.68778,0.03926
1048.62761,0.03823
1046.56744,0.03681
1044.50726,0.03517
1042.44709,0.03349
1040.38692,0.03184
1038.32675,0.03023
1036.26657,0.02865
1034.20640,0.02723
1032.14623,0.02584
1030.08606,0.02431
1028.02589,0.02278
1025.96571,0.02138
1023.90554,0.02031
1021.84537,0.01955
1019.78520,0.01892
1017.72503,0.01850
1015.66485,0.01822
1013.60468,0.01797
1011.54451,0.01799
1009.48434,0.01834
1007.42417,0.01884
1005.36399,0.01934
1003.30382,0.01995
1001.24365,0.02085
999.18348,0.02188
997.12330,0.02299
995.06313,0.02425
993.00296,0.02555
990.94279,0.02672
988.88262,0.02762
986.82244,0.02821
984.76227,0.02867
982.70210,0.02913
980.64193,0.02961
978.58176,0.03000
976.52158,0.03011
974.46141,0.03009
972.40124,0.03010
970.34107,0.02973
968.28089,0.02892
966.22072,0.02796
964.16055,0.02693
962.10038,0.02575
960.04021,0.02458
957.98003,0.02360
955.91986,0.02273
953.85969,0.02176
951.79952,0.02075
949.73935,0.01991
947.67917,0.01903
945.61900,0.01801
943.55883,0.01717
941.49866,0.01650
939.43849,0.01578
937.37831,0.01504
935.31814,0.01439
933.25797,0.01388
931.19780,0.01340
929.13762,0.01282
927.07745,0.01222
925.01728,0.01176
922.95711,0.01137
920.89694,0.01091
918.83676,0.01040
916.77659,0.00998
914.71642,0.00981
912.65625,0.00980
910.59608,0.00962
908.53590,0.00937
906.47573,0.00933
904.41556,0.00949
902.35539,0.00979
900.29522,0.01008
898.23504,0.01017
896.17487,0.01025
894.11470,0.01062
892.05453,0.01116
889.99435,0.01142
887.93418,0.01154
885.87401,0.01199
883.81384,0.01260
881.75367,0.01306
879.69349,0.01355
877.63332,0.01423
875.57315,0.01482
873.51298,0.01519
871.45281,0.01571
869.39263,0.01639
867.33246,0.01699
865.27229,0.01753
863.21212,0.01776
861.15194,0.01772
859.09177,0.01785
857.03160,0.01810
854.97143,0.01819
852.91126,0.01802
850.85108,0.01777
848.79091,0.01779
846.73074,0.01778
844.67057,0.01740
842.61040,0.01686
840.55022,0.01649
838.49005,0.01618
836.42988,0.01564
834.36971,0.01524
832.30954,0.01512
830.24936,0.01458
828.18919,0.01359
826.12902,0.01275
824.06885,0.01227
822.00867,0.01192
819.94850,0.01169
817.88833,0.01167
815.82816,0.01156
813.76799,0.01105
811.70781,0.01036
809.64764,0.00994
807.58747,0.00977
805.52730,0.00946
803.46713,0.00893
801.40695,0.00844
799.34678,0.00830
797.28661,0.00862
795.22644,0.00901
793.16627,0.00896
791.10609,0.00862
789.04592,0.00835
786.98575,0.00831
784.92558,0.00836
782.86540,0.00834
780.80523,0.00841
778.74506,0.00835
776.68489,0.00792
774.62472,0.00746
772.56454,0.00735
770.50437,0.00761
768.44420,0.00770
766.38403,0.00727
764.32386,0.00682
762.26368,0.00688
760.20351,0.00701
758.14334,0.00710
756.08317,0.00764
754.02299,0.00793
751.96282,0.00755
749.90265,0.00718
747.84248,0.00691
745.78231,0.00656
743.72213,0.00636
741.66196,0.00666
739.60179,0.00730
737.54162,0.00769
735.48145,0.00766
733.42127,0.00739
731.36110,0.00693
729.30093,0.00655
727.24076,0.00664
725.18059,0.00695
723.12041,0.00667
721.06024,0.00665
719.00007,0.00585
716.93990,0.00528
714.87972,0.00527
712.81955,0.00551
710.75938,0.00584
708.69921,0.00611
706.63904,0.00626
704.57886,0.00612
702.51869,0.00597
700.45852,0.00604
698.39835,0.00609
696.33818,0.00617
694.27800,0.00606
692.21783,0.00547
690.15766,0.00498
688.09749,0.00526
686.03731,0.00621
683.97714,0.00708
681.91697,0.00753
679.85680,0.00785
677.79663,0.00781
675.73645,0.00690
673.67628,0.00410
671.61611,0.00000
669.55594,0.00388
667.49577,0.01082
665.43559,0.00276
663.37542,0.00474
661.31525,0.00733
659.25508,0.00738
657.19491,0.00656
655.13473,0.00582
653.07456,0.00539
651.01439,0.00524
648.95422,0.00536
646.89404,0.00531
644.83387,0.00587
642.77370,0.00674
640.71353,0.00699
638.65336,0.00600
636.59318,0.00440
634.53301,0.00355
632.47284,0.00402
630.41267,0.00498
628.35250,0.00549
626.29232,0.00543
624.23215,0.00504
622.17198,0.00437
620.11181,0.00354
618.05164,0.00277
615.99146,0.00369
613.93129,0.00560
611.87112,0.00504
609.81095,0.00213
607.75077,0.00000
605.69060,-0.00040
603.63043,0.00030
601.57026,0.00040
599.51009,0.00000
