3996.73391,0.00015
3994.67373,-0.00006
3992.61356,0.00007
3990.55339,0.00040
3988.49322,0.00053
3986.43305,0.00037
3984.37287,0.00011
3982.31270,0.00000
3980.25253,0.00003
3978.19236,0.00013
3976.13219,0.00035
3974.07201,0.00055
3972.01184,0.00044
3969.95167,0.00019
3967.89150,0.00029
3965.83133,0.00067
3963.77115,0.00066
3961.71098,0.00028
3959.65081,0.00018
3957.59064,0.00046
3955.53046,0.00072
3953.47029,0.00075
3951.41012,0.00059
3949.34995,0.00043
3947.28978,0.00042
3945.22960,0.00040
3943.16943,0.00031
3941.10926,0.00046
3939.04909,0.00080
3936.98892,0.00097
3934.92874,0.00085
3932.86857,0.00051
3930.80840,0.00015
3928.74823,0.00000
3926.68805,0.00004
3924.62788,0.00019
3922.56771,0.00040
3920.50754,0.00046
3918.44737,0.00040
3916.38719,0.00040
3914.32702,0.00051
3912.26685,0.00074
3910.20668,0.00102
3908.14651,0.00120
3906.08633,0.00107
3904.02616,0.00064
3901.96599,0.00021
3899.90582,0.00003
3897.84565,0.00018
3895.78547,0.00046
3893.72530,0.00056
3891.66513,0.00055
3889.60496,0.00071
3887.54478,0.00088
3885.48461,0.00088
3883.42444,0.00086
3881.36427,0.00086
3879.30410,0.00082
3877.24392,0.00093
3875.18375,0.00108
3873.12358,0.00103
3871.06341,0.00077
3869.00324,0.00055
3866.94306,0.00066
3864.88289,0.00084
3862.82272,0.00073
3860.76255,0.00055
3858.70237,0.00078
3856.64220,0.00151
3854.58203,0.00204
3852.52186,0.00157
3850.46169,0.00085
3848.40151,0.00073
3846.34134,0.00097
3844.28117,0.00130
3842.22100,0.00157
3840.16083,0.00148
3838.10065,0.00103
3836.04048,0.00072
3833.98031,0.00069
3831.92014,0.00063
3829.85997,0.00063
3827.79979,0.00078
3825.73962,0.00088
3823.67945,0.00076
3821.61928,0.00041
3819.55910,0.00022
3817.49893,0.00041
3815.43876,0.00054
3813.37859,0.00045
3811.31842,0.00048
3809.25824,0.00068
3807.19807,0.00090
3805.13790,0.00113
3803.07773,0.00137
3801.01756,0.00149
3798.95738,0.00167
3796.89721,0.00194
3794.83704,0.00194
3792.77687,0.00166
3790.71670,0.00139
3788.65652,0.00137
3786.59635,0.00162
3784.53618,0.00185
3782.47601,0.00175
3780.41583,0.00143
3778.35566,0.00127
3776.29549,0.00143
3774.23532,0.00166
3772.17515,0.00174
3770.11497,0.00159
3768.05480,0.00127
3765.99463,0.00111
3763.93446,0.00129
3761.87429,0.00155
3759.81411,0.00159
3757.75394,0.00151
3755.69377,0.00158
3753.63360,0.00187
3751.57342,0.00208
3749.51325,0.00196
3747.45308,0.00169
3745.39291,0.00143
3743.33274,0.00143
3741.27256,0.00179
3739.21239,0.00192
3737.15222,0.00150
3735.09205,0.00099
3733.03188,0.00094
3730.97170,0.00116
3728.91153,0.00128
3726.85136,0.00119
3724.79119,0.00104
3722.73102,0.00095
3720.67084,0.00082
3718.61067,0.00079
3716.55050,0.00103
3714.49033,0.00126
3712.43015,0.00108
3710.36998,0.00073
3708.30981,0.00081
3706.24964,0.00114
3704.18947,0.00131
3702.12929,0.00121
3700.06912,0.00108
3698.00895,0.00118
3695.94878,0.00138
3693.88861,0.00154
3691.82843,0.00159
3689.76826,0.00165
3687.70809,0.00182
3685.64792,0.00190
3683.58775,0.00176
3681.52757,0.00154
3679.46740,0.00139
3677.40723,0.00135
3675.34706,0.00134
3673.28688,0.00143
3671.22671,0.00144
3669.16654,0.00115
3667.10637,0.00097
3665.04620,0.00118
3662.98602,0.00158
3660.92585,0.00207
3658.86568,0.00245
3656.80551,0.00242
3654.74534,0.00222
3652.68516,0.00227
3650.62499,0.00241
3648.56482,0.00246
3646.50465,0.00256
3644.44447,0.00271
3642.38430,0.00267
3640.32413,0.00258
3638.26396,0.00288
3636.20379,0.00346
3634.14361,0.00379
3632.08344,0.00371
3630.02327,0.00342
3627.96310,0.00317
3625.90293,0.00326
3623.84275,0.00357
3621.78258,0.00391
3619.72241,0.00412
3617.66224,0.00415
3615.60207,0.00415
3613.54189,0.00415
3611.48172,0.00410
3609.42155,0.00407
3607.36138,0.00418
3605.30120,0.00450
3603.24103,0.00498
3601.18086,0.00534
3599.12069,0.00528
3597.06052,0.00494
3595.00034,0.00472
3592.94017,0.00490
3590.88000,0.00518
3588.81983,0.00505
3586.75966,0.00489
3584.69948,0.00517
3582.63931,0.00543
3580.57914,0.00545
3578.51897,0.00543
3576.45879,0.00549
3574.39862,0.00568
3572.33845,0.00596
3570.27828,0.00612
3568.21811,0.00599
3566.15793,0.00576
3564.09776,0.00582
3562.03759,0.00615
3559.97742,0.00651
3557.91725,0.00687
3555.85707,0.00736
3553.79690,0.00779
3551.73673,0.00790
3549.67656,0.00771
3547.61639,0.00739
3545.55621,0.00718
3543.49604,0.00739
3541.43587,0.00785
3539.37570,0.00805
3537.31552,0.00797
3535.25535,0.00801
3533.19518,0.00829
3531.13501,0.00853
3529.07484,0.00861
3527.01466,0.00863
3524.95449,0.00871
3522.89432,0.00879
3520.83415,0.00879
3518.77398,0.00884
3516.71380,0.00894
3514.65363,0.00891
3512.59346,0.00878
3510.53329,0.00879
3508.47312,0.00907
3506.41294,0.00946
3504.35277,0.00980
3502.29260,0.01008
3500.23243,0.01027
3498.17225,0.01046
3496.11208,0.01056
3494.05191,0.01042
3491.99174,0.01021
3489.93157,0.01022
3487.87139,0.01035
3485.81122,0.01046
3483.75105,0.01053
3481.69088,0.01048
3479.63071,0.01045
3477.57053,0.01057
3475.51036,0.01074
3473.45019,0.01092
3471.39002,0.01110
3469.32984,0.01118
3467.26967,0.01129
3465.20950,0.01144
3463.14933,0.01150
3461.08916,0.01161
3459.02898,0.01181
3456.96881,0.01176
3454.90864,0.01155
3452.84847,0.01157
3450.78830,0.01170
3448.72812,0.01167
3446.66795,0.01157
3444.60778,0.01166
3442.54761,0.01187
3440.48744,0.01213
3438.42726,0.01253
3436.36709,0.01282
3434.30692,0.01284
3432.24675,0.01268
3430.18657,0.01253
3428.12640,0.01251
3426.06623,0.01252
3424.00606,0.01248
3421.94589,0.01254
3419.88571,0.01285
3417.82554,0.01318
3415.76537,0.01320
3413.70520,0.01291
3411.64503,0.01265
3409.58485,0.01268
3407.52468,0.01306
3405.46451,0.01348
3403.40434,0.01358
3401.34416,0.01350
3399.28399,0.01353
3397.22382,0.01347
3395.16365,0.01335
3393.10348,0.01346
3391.04330,0.01371
3388.98313,0.01380
3386.92296,0.01371
3384.86279,0.01359
3382.80262,0.01345
3380.74244,0.01330
3378.68227,0.01330
3376.62210,0.01358
3374.56193,0.01389
3372.50176,0.01400
3370.44158,0.01408
3368.38141,0.01405
3366.32124,0.01380
3364.26107,0.01361
3362.20089,0.01364
3360.14072,0.01374
3358.08055,0.01380
3356.02038,0.01388
3353.96021,0.01399
3351.90003,0.01399
3349.83986,0.01383
3347.77969,0.01367
3345.71952,0.01362
3343.65935,0.01374
3341.59917,0.01390
3339.53900,0.01392
3337.47883,0.01386
3335.41866,0.01395
3333.35849,0.01414
3331.29831,0.01418
3329.23814,0.01412
3327.17797,0.01411
3325.11780,0.01421
3323.05762,0.01436
3320.99745,0.01443
3318.93728,0.01447
3316.87711,0.01456
3314.81694,0.01459
3312.75676,0.01452
3310.69659,0.01447
3308.63642,0.01450
3306.57625,0.01455
3304.51608,0.01457
3302.45590,0.01455
3300.39573,0.01444
3298.33556,0.01437
3296.27539,0.01449
3294.21521,0.01467
3292.15504,0.01474
3290.09487,0.01469
3288.03470,0.01466
3285.97453,0.01478
3283.91435,0.01495
3281.85418,0.01500
3279.79401,0.01485
3277.73384,0.01474
3275.67367,0.01483
3273.61349,0.01495
3271.55332,0.01496
3269.49315,0.01490
3267.43298,0.01479
3265.37281,0.01461
3263.31263,0.01451
3261.25246,0.01471
3259.19229,0.01504
3257.13212,0.01506
3255.07194,0.01473
3253.01177,0.01452
3250.95160,0.01461
3248.89143,0.01479
3246.83126,0.01479
3244.77108,0.01451
3242.71091,0.01425
3240.65074,0.01418
3238.59057,0.01428
3236.53040,0.01444
3234.47022,0.01442
3232.41005,0.01431
3230.34988,0.01437
3228.28971,0.01460
3226.22954,0.01468
3224.16936,0.01446
3222.10919,0.01424
3220.04902,0.01427
3217.98885,0.01437
3215.92867,0.01438
3213.86850,0.01430
3211.80833,0.01420
3209.74816,0.01421
3207.68799,0.01434
3205.62781,0.01449
3203.56764,0.01447
3201.50747,0.01429
3199.44730,0.01417
3197.38713,0.01418
3195.32695,0.01423
3193.26678,0.01425
3191.20661,0.01423
3189.14644,0.01420
3187.08626,0.01421
3185.02609,0.01419
3182.96592,0.01422
3180.90575,0.01419
3178.84558,0.01396
3176.78540,0.01395
3174.72523,0.01424
3172.66506,0.01431
3170.60489,0.01416
3168.54472,0.01404
3166.48454,0.01389
3164.42437,0.01384
3162.36420,0.01401
3160.30403,0.01407
3158.24386,0.01383
3156.18368,0.01367
3154.12351,0.01384
3152.06334,0.01411
3150.00317,0.01414
3147.94299,0.01394
3145.88282,0.01378
3143.82265,0.01378
3141.76248,0.01377
3139.70231,0.01369
3137.64213,0.01370
3135.58196,0.01375
3133.52179,0.01370
3131.46162,0.01362
3129.40145,0.01366
3127.34127,0.01370
3125.28110,0.01361
3123.22093,0.01351
3121.16076,0.01341
3119.10058,0.01334
3117.04041,0.01328
3114.98024,0.01324
3112.92007,0.01327
3110.85990,0.01333
3108.79972,0.01333
3106.73955,0.01337
3104.67938,0.01343
3102.61921,0.01343
3100.55904,0.01350
3098.49886,0.01361
3096.43869,0.01352
3094.37852,0.01329
3092.31835,0.01311
3090.25818,0.01301
3088.19800,0.01293
3086.13783,0.01294
3084.07766,0.01311
3082.01749,0.01318
3079.95731,0.01295
3077.89714,0.01260
3075.83697,0.01242
3073.77680,0.01240
3071.71663,0.01237
3069.65645,0.01229
3067.59628,0.01230
3065.53611,0.01247
3063.47594,0.01263
3061.41577,0.01258
3059.35559,0.01258
3057.29542,0.01268
3055.23525,0.01270
3053.17508,0.01267
3051.11491,0.01268
3049.05473,0.01248
3046.99456,0.01202
3044.93439,0.01171
3042.87422,0.01179
3040.81404,0.01195
3038.75387,0.01190
3036.69370,0.01175
3034.63353,0.01163
3032.57336,0.01162
3030.51318,0.01177
3028.45301,0.01190
3026.39284,0.01188
3024.33267,0.01178
3022.27250,0.01169
3020.21232,0.01164
3018.15215,0.01163
3016.09198,0.01162
3014.03181,0.01161
3011.97163,0.01170
3009.91146,0.01166
3007.85129,0.01136
3005.79112,0.01114
3003.73095,0.01124
3001.67077,0.01134
2999.61060,0.01137
2997.55043,0.01151
2995.49026,0.01148
2993.43009,0.01113
2991.36991,0.01091
2989.30974,0.01112
2987.24957,0.01133
2985.18940,0.01125
2983.12923,0.01113
2981.06905,0.01103
2979.00888,0.01094
2976.94871,0.01094
2974.88854,0.01098
2972.82836,0.01101
2970.76819,0.01102
2968.70802,0.01092
2966.64785,0.01075
2964.58768,0.01082
2962.52750,0.01107
2960.46733,0.01117
2958.40716,0.01105
2956.34699,0.01085
2954.28682,0.01069
2952.22664,0.01059
2950.16647,0.01062
2948.10630,0.01078
2946.04613,0.01082
2943.98596,0.01069
2941.92578,0.01061
2939.86561,0.01058
2937.80544,0.01061
2935.74527,0.01069
2933.68509,0.01063
2931.62492,0.01041
2929.56475,0.01022
2927.50458,0.01017
2925.44441,0.01018
2923.38423,0.01017
2921.32406,0.01014
2919.26389,0.01004
2917.20372,0.00991
2915.14355,0.00993
2913.08337,0.00999
2911.02320,0.00986
2908.96303,0.00968
2906.90286,0.00971
2904.84268,0.00989
2902.78251,0.00990
2900.72234,0.00967
2898.66217,0.00946
2896.60200,0.00941
2894.54182,0.00945
2892.48165,0.00951
2890.42148,0.00953
2888.36131,0.00942
2886.30114,0.00920
2884.24096,0.00905
2882.18079,0.00902
2880.12062,0.00899
2878.06045,0.00902
2876.00028,0.00909
2873.94010,0.00917
2871.87993,0.00931
2869.81976,0.00945
2867.75959,0.00935
2865.69941,0.00911
2863.63924,0.00902
2861.57907,0.00909
2859.51890,0.00907
2857.45873,0.00877
2855.39855,0.00838
2853.33838,0.00821
2851.27821,0.00825
2849.21804,0.00828
2847.15787,0.00824
2845.09769,0.00816
2843.03752,0.00812
2840.97735,0.00813
2838.91718,0.00816
2836.85700,0.00817
2834.79683,0.00810
2832.73666,0.00812
2830.67649,0.00820
2828.61632,0.00813
2826.55614,0.00808
2824.49597,0.00821
2822.43580,0.00829
2820.37563,0.00821
2818.31546,0.00801
2816.25528,0.00780
2814.19511,0.00765
2812.13494,0.00760
2810.07477,0.00762
2808.01460,0.00769
2805.95442,0.00769
2803.89425,0.00758
2801.83408,0.00748
2799.77391,0.00737
2797.71373,0.00727
2795.65356,0.00736
2793.59339,0.00758
2791.53322,0.00768
2789.47305,0.00765
2787.41287,0.00755
2785.35270,0.00739
2783.29253,0.00715
2781.23236,0.00692
2779.17219,0.00698
2777.11201,0.00724
2775.05184,0.00735
2772.99167,0.00726
2770.93150,0.00712
2768.87133,0.00697
2766.81115,0.00684
2764.75098,0.00672
2762.69081,0.00665
2760.63064,0.00670
2758.57046,0.00675
2756.51029,0.00683
2754.45012,0.00695
2752.38995,0.00692
2750.32978,0.00676
2748.26960,0.00674
2746.20943,0.00680
2744.14926,0.00674
2742.08909,0.00657
2740.02892,0.00647
2737.96874,0.00647
2735.90857,0.00642
2733.84840,0.00635
2731.78823,0.00641
2729.72805,0.00650
2727.66788,0.00647
2725.60771,0.00635
2723.54754,0.00634
2721.48737,0.00650
2719.42719,0.00662
2717.36702,0.00649
2715.30685,0.00623
2713.24668,0.00623
2711.18651,0.00641
2709.12633,0.00634
2707.06616,0.00617
2705.00599,0.00618
2702.94582,0.00636
2700.88565,0.00651
2698.82547,0.00643
2696.76530,0.00624
2694.70513,0.00614
2692.64496,0.00613
2690.58478,0.00613
2688.52461,0.00611
2686.46444,0.00605
2684.40427,0.00597
2682.34410,0.00590
2680.28392,0.00580
2678.22375,0.00581
2676.16358,0.00590
2674.10341,0.00586
2672.04324,0.00567
2669.98306,0.00553
2667.92289,0.00561
2665.86272,0.00588
2663.80255,0.00614
2661.74238,0.00627
2659.68220,0.00623
2657.62203,0.00605
2655.56186,0.00576
2653.50169,0.00547
2651.44151,0.00543
2649.38134,0.00572
2647.32117,0.00595
2645.26100,0.00585
2643.20083,0.00559
2641.14065,0.00549
2639.08048,0.00561
2637.02031,0.00575
2634.96014,0.00565
2632.89997,0.00542
2630.83979,0.00533
2628.77962,0.00541
2626.71945,0.00559
2624.65928,0.00565
2622.59910,0.00548
2620.53893,0.00535
2618.47876,0.00539
2616.41859,0.00544
2614.35842,0.00543
2612.29824,0.00533
2610.23807,0.00520
2608.17790,0.00532
2606.11773,0.00557
2604.05756,0.00559
2601.99738,0.00528
2599.93721,0.00476
2597.87704,0.00449
2595.81687,0.00474
2593.75670,0.00509
2591.69652,0.00512
2589.63635,0.00493
2587.57618,0.00479
2585.51601,0.00494
2583.45583,0.00511
2581.39566,0.00492
2579.33549,0.00466
2577.27532,0.00470
2575.21515,0.00496
2573.15497,0.00510
2571.09480,0.00506
2569.03463,0.00497
2566.97446,0.00484
2564.91429,0.00461
2562.85411,0.00440
2560.79394,0.00443
2558.73377,0.00457
2556.67360,0.00445
2554.61342,0.00430
2552.55325,0.00451
2550.49308,0.00474
2548.43291,0.00471
2546.37274,0.00474
2544.31256,0.00479
2542.25239,0.00443
2540.19222,0.00417
2538.13205,0.00439
2536.07188,0.00455
2534.01170,0.00449
2531.95153,0.00441
2529.89136,0.00427
2527.83119,0.00429
2525.77102,0.00456
2523.71084,0.00466
2521.65067,0.00454
2519.59050,0.00443
2517.53033,0.00438
2515.47015,0.00463
2513.40998,0.00523
2511.34981,0.00566
2509.28964,0.00564
2507.22947,0.00527
2505.16929,0.00473
2503.10912,0.00419
2501.04895,0.00393
2498.98878,0.00410
2496.92861,0.00450
2494.86843,0.00474
2492.80826,0.00480
2490.74809,0.00488
2488.68792,0.00508
2486.62775,0.00516
2484.56757,0.00507
2482.50740,0.00506
2480.44723,0.00516
2478.38706,0.00509
2476.32688,0.00490
2474.26671,0.00483
2472.20654,0.00500
2470.14637,0.00527
2468.08620,0.00540
2466.02602,0.00532
2463.96585,0.00510
2461.90568,0.00501
2459.84551,0.00510
2457.78534,0.00505
2455.72516,0.00495
2453.66499,0.00510
2451.60482,0.00528
2449.54465,0.00522
2447.48447,0.00497
2445.42430,0.00482
2443.36413,0.00502
2441.30396,0.00531
2439.24379,0.00516
2437.18361,0.00477
2435.12344,0.00478
2433.06327,0.00498
2431.00310,0.00492
2428.94293,0.00485
2426.88275,0.00498
2424.82258,0.00505
2422.76241,0.00498
2420.70224,0.00501
2418.64207,0.00526
2416.58189,0.00552
2414.52172,0.00542
2412.46155,0.00508
2410.40138,0.00492
2408.34120,0.00489
2406.28103,0.00489
2404.22086,0.00495
2402.16069,0.00500
2400.10052,0.00486
2398.04034,0.00474
2395.98017,0.00494
2393.92000,0.00536
2391.85983,0.00558
2389.79966,0.00527
2387.73948,0.00464
2385.67931,0.00427
2383.61914,0.00438
2381.55897,0.00451
2379.49880,0.00440
2377.43862,0.00431
2375.37845,0.00459
2373.31828,0.00521
2371.25811,0.00583
2369.19793,0.00610
2367.13776,0.00588
2365.07759,0.00546
2363.01742,0.00563
2360.95725,0.00646
2358.89707,0.00803
2356.83690,0.00826
2354.77673,0.00691
2352.71656,0.00556
2350.65639,0.00449
2348.59621,0.00446
2346.53604,0.00623
2344.47587,0.00680
2342.41570,0.00621
2340.35552,0.00555
2338.29535,0.00530
2336.23518,0.00572
2334.17501,0.00622
2332.11484,0.00642
2330.05466,0.00646
2327.99449,0.00675
2325.93432,0.00690
2323.87415,0.00698
2321.81398,0.00671
2319.75380,0.00654
2317.69363,0.00636
2315.63346,0.00613
2313.57329,0.00557
2311.51312,0.00492
2309.45294,0.00491
2307.39277,0.00539
2305.33260,0.00572
2303.27243,0.00575
2301.21225,0.00565
2299.15208,0.00555
2297.09191,0.00561
2295.03174,0.00579
2292.97157,0.00594
2290.91139,0.00585
2288.85122,0.00557
2286.79105,0.00558
2284.73088,0.00595
2282.67071,0.00623
2280.61053,0.00629
2278.55036,0.00623
2276.49019,0.00601
2274.43002,0.00557
2272.36984,0.00516
2270.30967,0.00504
2268.24950,0.00507
2266.18933,0.00519
2264.12916,0.00560
2262.06898,0.00607
2260.00881,0.00615
2257.94864,0.00579
2255.88847,0.00531
2253.82830,0.00499
2251.76812,0.00468
2249.70795,0.00416
2247.64778,0.00372
2245.58761,0.00377
2243.52744,0.00398
2241.46726,0.00409
2239.40709,0.00420
2237.34692,0.00412
2235.28675,0.00394
2233.22657,0.00381
2231.16640,0.00382
2229.10623,0.00437
2227.04606,0.00496
2224.98589,0.00480
2222.92571,0.00430
2220.86554,0.00406
2218.80537,0.00437
2216.74520,0.00502
2214.68503,0.00506
2212.62485,0.00468
2210.56468,0.00491
2208.50451,0.00519
2206.44434,0.00507
2204.38417,0.00503
2202.32399,0.00494
2200.26382,0.00477
2198.20365,0.00446
2196.14348,0.00423
2194.08330,0.00469
2192.02313,0.00498
2189.96296,0.00451
2187.90279,0.00436
2185.84262,0.00433
2183.78244,0.00346
2181.72227,0.00224
2179.66210,0.00169
2177.60193,0.00203
2175.54176,0.00253
2173.48158,0.00308
2171.42141,0.00402
2169.36124,0.00454
2167.30107,0.00391
2165.24089,0.00351
2163.18072,0.00433
2161.12055,0.00432
2159.06038,0.00261
2157.00021,0.00162
2154.94003,0.00163
2152.87986,0.00129
2150.81969,0.00124
2148.75952,0.00194
2146.69935,0.00276
2144.63917,0.00322
2142.57900,0.00285
2140.51883,0.00196
2138.45866,0.00114
2136.39849,0.00105
2134.33831,0.00204
2132.27814,0.00282
2130.21797,0.00262
2128.15780,0.00227
2126.09762,0.00245
2124.03745,0.00298
2121.97728,0.00317
2119.91711,0.00311
2117.85694,0.00337
2115.79676,0.00360
2113.73659,0.00359
2111.67642,0.00366
2109.61625,0.00360
2107.55608,0.00348
2105.49590,0.00370
2103.43573,0.00396
2101.37556,0.00388
2099.31539,0.00363
2097.25521,0.00370
2095.19504,0.00402
2093.13487,0.00398
2091.07470,0.00356
2089.01453,0.00353
2086.95435,0.00416
2084.89418,0.00470
2082.83401,0.00456
2080.77384,0.00409
2078.71367,0.00362
2076.65349,0.00346
2074.59332,0.00367
2072.53315,0.00369
2070.47298,0.00362
2068.41281,0.00381
2066.35263,0.00374
2064.29246,0.00335
2062.23229,0.00323
2060.17212,0.00369
2058.11194,0.00436
2056.05177,0.00470
2053.99160,0.00510
2051.93143,0.00569
2049.87126,0.00521
2047.81108,0.00386
2045.75091,0.00359
2043.69074,0.00426
2041.63057,0.00440
2039.57040,0.00358
2037.51022,0.00255
2035.45005,0.00253
2033.38988,0.00287
2031.32971,0.00265
2029.26954,0.00273
2027.20936,0.00323
2025.14919,0.00342
2023.08902,0.00316
2021.02885,0.00254
2018.96867,0.00196
2016.90850,0.00167
2014.84833,0.00149
2012.78816,0.00161
2010.72799,0.00178
2008.66781,0.00153
2006.60764,0.00177
2004.54747,0.00304
2002.48730,0.00372
2000.42713,0.00336
1998.36695,0.00354
1996.30678,0.00459
1994.24661,0.00511
1992.18644,0.00443
1990.12626,0.00383
1988.06609,0.00419
1986.00592,0.00448
1983.94575,0.00417
1981.88558,0.00420
1979.82540,0.00455
1977.76523,0.00434
1975.70506,0.00385
1973.64489,0.00340
1971.58472,0.00253
1969.52454,0.00160
1967.46437,0.00139
1965.40420,0.00152
1963.34403,0.00105
1961.28386,0.00017
1959.22368,0.00000
1957.16351,0.00089
1955.10334,0.00210
1953.04317,0.00296
1950.98299,0.00320
1948.92282,0.00297
1946.86265,0.00257
1944.80248,0.00211
1942.74231,0.00175
1940.68213,0.00159
1938.62196,0.00144
1936.56179,0.00130
1934.50162,0.00138
1932.44145,0.00175
1930.38127,0.00215
1928.32110,0.00242
1926.26093,0.00258
1924.20076,0.00265
1922.14059,0.00276
1920.08041,0.00296
1918.02024,0.00300
1915.96007,0.00281
1913.89990,0.00285
1911.83972,0.00313
1909.77955,0.00317
1907.71938,0.00301
1905.65921,0.00277
1903.59904,0.00246
1901.53886,0.00235
1899.47869,0.00264
1897.41852,0.00288
1895.35835,0.00277
1893.29818,0.00256
1891.23800,0.00247
1889.17783,0.00259
1887.11766,0.00285
1885.05749,0.00289
1882.99731,0.00278
1880.93714,0.00288
1878.87697,0.00318
1876.81680,0.00335
1874.75663,0.00325
1872.69645,0.00313
1870.63628,0.00327
1868.57611,0.00354
1866.51594,0.00354
1864.45577,0.00331
1862.39559,0.00322
1860.33542,0.00332
1858.27525,0.00348
1856.21508,0.00368
1854.15491,0.00384
1852.09473,0.00385
1850.03456,0.00371
1847.97439,0.00339
1845.91422,0.00297
1843.85404,0.00278
1841.79387,0.00297
1839.73370,0.00331
1837.67353,0.00345
1835.61336,0.00342
1833.55318,0.00337
1831.49301,0.00329
1829.43284,0.00315
1827.37267,0.00317
1825.31250,0.00338
1823.25232,0.00344
1821.19215,0.00322
1819.13198,0.00296
1817.07181,0.00295
1815.01163,0.00311
1812.95146,0.00320
1810.89129,0.00324
1808.83112,0.00333
1806.77095,0.00336
1804.71077,0.00321
1802.65060,0.00304
1800.59043,0.00302
1798.53026,0.00317
1796.47009,0.00339
1794.40991,0.00353
1792.34974,0.00343
1790.28957,0.00324
1788.22940,0.00323
1786.16923,0.00323
1784.10905,0.00322
1782.04888,0.00338
1779.98871,0.00371
1777.92854,0.00392
1775.86836,0.00403
1773.80819,0.00411
1771.74802,0.00405
1769.68785,0.00386
1767.62768,0.00375
1765.56750,0.00372
1763.50733,0.00375
1761.44716,0.00391
1759.38699,0.00406
1757.32682,0.00400
1755.26664,0.00389
1753.20647,0.00378
1751.14630,0.00359
1749.08613,0.00361
1747.02596,0.00395
1744.96578,0.00429
1742.90561,0.00448
1740.84544,0.00458
1738.78527,0.00459
1736.72509,0.00445
1734.66492,0.00424
1732.60475,0.00428
1730.54458,0.00457
1728.48441,0.00480
1726.42423,0.00482
1724.36406,0.00470
1722.30389,0.00466
1720.24372,0.00479
1718.18355,0.00494
1716.12337,0.00487
1714.06320,0.00477
1712.00303,0.00488
1709.94286,0.00506
1707.88268,0.00508
1705.82251,0.00497
1703.76234,0.00499
1701.70217,0.00522
1699.64200,0.00547
1697.58182,0.00570
1695.52165,0.00611
1693.46148,0.00651
1691.40131,0.00672
1689.34114,0.00685
1687.28096,0.00704
1685.22079,0.00725
1683.16062,0.00755
1681.10045,0.00781
1679.04028,0.00797
1676.98010,0.00815
1674.91993,0.00849
1672.85976,0.00888
1670.79959,0.00916
1668.73941,0.00941
1666.67924,0.00975
1664.61907,0.01011
1662.55890,0.01028
1660.49873,0.01023
1658.43855,0.01011
1656.37838,0.01001
1654.31821,0.01001
1652.25804,0.01034
1650.19787,0.01076
1648.13769,0.01092
1646.07752,0.01080
1644.01735,0.01056
1641.95718,0.01031
1639.89701,0.01001
1637.83683,0.00975
1635.77666,0.00972
1633.71649,0.00985
1631.65632,0.00981
1629.59614,0.00963
1627.53597,0.00945
1625.47580,0.00921
1623.41563,0.00889
1621.35546,0.00880
1619.29528,0.00898
1617.23511,0.00902
1615.17494,0.00874
1613.11477,0.00842
1611.05460,0.00817
1608.99442,0.00794
1606.93425,0.00774
1604.87408,0.00763
1602.81391,0.00766
1600.75373,0.00776
1598.69356,0.00776
1596.63339,0.00770
1594.57322,0.00765
1592.51305,0.00758
1590.45287,0.00742
1588.39270,0.00721
1586.33253,0.00701
1584.27236,0.00681
1582.21219,0.00670
1580.15201,0.00677
1578.09184,0.00686
1576.03167,0.00680
1573.97150,0.00669
1571.91133,0.00667
1569.85115,0.00672
1567.79098,0.00675
1565.73081,0.00674
1563.67064,0.00666
1561.61046,0.00647
1559.55029,0.00625
1557.49012,0.00614
1555.42995,0.00618
1553.36978,0.00621
1551.30960,0.00612
1549.24943,0.00595
1547.18926,0.00576
1545.12909,0.00557
1543.06892,0.00551
1541.00874,0.00562
1538.94857,0.00567
1536.88840,0.00563
1534.82823,0.00553
1532.76805,0.00538
1530.70788,0.00528
1528.64771,0.00519
1526.58754,0.00511
1524.52737,0.00510
1522.46719,0.00497
1520.40702,0.00463
1518.34685,0.00438
1516.28668,0.00434
1514.22651,0.00432
1512.16633,0.00408
1510.10616,0.00362
1508.04599,0.00343
1505.98582,0.00395
1503.92565,0.00453
1501.86547,0.00465
1499.80530,0.00444
1497.74513,0.00421
1495.68496,0.00426
1493.62478,0.00445
1491.56461,0.00444
1489.50444,0.00418
1487.44427,0.00402
1485.38410,0.00407
1483.32392,0.00414
1481.26375,0.00415
1479.20358,0.00407
1477.14341,0.00385
1475.08324,0.00361
1473.02306,0.00359
1470.96289,0.00380
1468.90272,0.00407
1466.84255,0.00426
1464.78238,0.00437
1462.72220,0.00439
1460.66203,0.00426
1458.60186,0.00403
1456.54169,0.00387
1454.48151,0.00390
1452.42134,0.00398
1450.36117,0.00401
1448.30100,0.00407
1446.24083,0.00419
1444.18065,0.00431
1442.12048,0.00433
1440.06031,0.00417
1438.00014,0.00391
1435.93997,0.00380
1433.87979,0.00387
1431.81962,0.00397
1429.75945,0.00411
1427.69928,0.00421
1425.63910,0.00416
1423.57893,0.00406
1421.51876,0.00396
1419.45859,0.00385
1417.39842,0.00397
1415.33824,0.00428
1413.27807,0.00446
1411.21790,0.00436
1409.15773,0.00414
1407.09756,0.00394
1405.03738,0.00387
1402.97721,0.00393
1400.91704,0.00400
1398.85687,0.00401
1396.79670,0.00400
1394.73652,0.00392
1392.67635,0.00377
1390.61618,0.00366
1388.55601,0.00363
1386.49583,0.00371
1384.43566,0.00385
1382.37549,0.00387
1380.31532,0.00379
1378.25515,0.00369
1376.19497,0.00360
1374.13480,0.00352
1372.07463,0.00345
1370.01446,0.00341
1367.95429,0.00348
1365.89411,0.00353
1363.83394,0.00335
1361.77377,0.00315
1359.71360,0.00323
1357.65343,0.00347
1355.59325,0.00357
1353.53308,0.00349
1351.47291,0.00337
1349.41274,0.00335
1347.35256,0.00337
1345.29239,0.00328
1343.23222,0.00304
1341.17205,0.00274
1339.11188,0.00256
1337.05170,0.00264
1334.99153,0.00282
1332.93136,0.00293
1330.87119,0.00298
1328.81102,0.00310
1326.75084,0.00325
1324.69067,0.00331
1322.63050,0.00329
1320.57033,0.00315
1318.51015,0.00299
1316.44998,0.00297
1314.38981,0.00302
1312.32964,0.00307
1310.26947,0.00318
1308.20929,0.00330
1306.14912,0.00338
1304.08895,0.00348
1302.02878,0.00356
1299.96861,0.00350
1297.90843,0.00340
1295.84826,0.00341
1293.78809,0.00340
1291.72792,0.00333
1289.66775,0.00331
1287.60757,0.00335
1285.54740,0.00336
1283.48723,0.00327
1281.42706,0.00314
1279.36688,0.00311
1277.30671,0.00325
1275.24654,0.00339
1273.18637,0.00342
1271.12620,0.00340
1269.06602,0.00338
1267.00585,0.00339
1264.94568,0.00347
1262.88551,0.00355
1260.82534,0.00356
1258.76516,0.00346
1256.70499,0.00333
1254.64482,0.00333
1252.58465,0.00338
1250.52447,0.00344
1248.46430,0.00353
1246.40413,0.00360
1244.34396,0.00358
1242.28379,0.00350
1240.22361,0.00342
1238.16344,0.00337
1236.10327,0.00335
1234.04310,0.00325
1231.98293,0.00309
1229.92275,0.00305
1227.86258,0.00310
1225.80241,0.00304
1223.74224,0.00295
1221.68207,0.00290
1219.62189,0.00285
1217.56172,0.00286
1215.50155,0.00285
1213.44138,0.00269
1211.38120,0.00251
1209.32103,0.00240
1207.26086,0.00237
1205.20069,0.00238
1203.14052,0.00234
1201.08034,0.00228
1199.02017,0.00223
1196.96000,0.00218
1194.89983,0.00220
1192.83966,0.00229
1190.77948,0.00229
1188.71931,0.00215
1186.65914,0.00202
1184.59897,0.00203
1182.53880,0.00215
1180.47862,0.00229
1178.41845,0.00235
1176.35828,0.00240
1174.29811,0.00246
1172.23793,0.00248
1170.17776,0.00252
1168.11759,0.00259
1166.05742,0.00265
1163.99725,0.00273
1161.93707,0.00285
1159.87690,0.00290
1157.81673,0.00301
1155.75656,0.00332
1153.69639,0.00362
1151.63621,0.00371
1149.57604,0.00379
1147.51587,0.00395
1145.45570,0.00409
1143.39552,0.00423
1141.33535,0.00446
1139.27518,0.00477
1137.21501,0.00510
1135.15484,0.00531
1133.09466,0.00548
1131.03449,0.00574
1128.97432,0.00603
1126.91415,0.00637
1124.85398,0.00672
1122.79380,0.00702
1120.73363,0.00727
1118.67346,0.00756
1116.61329,0.00790
1114.55312,0.00829
1112.49294,0.00868
1110.43277,0.00905
1108.37260,0.00933
1106.31243,0.00958
1104.25225,0.00997
1102.19208,0.01039
1100.13191,0.01068
1098.07174,0.01090
1096.01157,0.01112
1093.95139,0.01143
1091.89122,0.01181
1089.83105,0.01207
1087.77088,0.01221
1085.71071,0.01234
1083.65053,0.01255
1081.59036,0.01284
1079.53019,0.01322
1077.47002,0.01351
1075.40985,0.01368
1073.34967,0.01394
1071.28950,0.01414
1069.22933,0.01411
1067.16916,0.01407
1065.10898,0.01418
1063.04881,0.01430
1060.98864,0.01429
1058.92847,0.01415
1056.86830,0.01395
1054.80812,0.01384
1052.74795,0.01384
1050.68778,0.01373
1048.62761,0.01351
1046.56744,0.01330
1044.50726,0.01307
1042.44709,0.01269
1040.38692,0.01230
1038.32675,0.01200
1036.26657,0.01165
1034.20640,0.01122
1032.14623,0.01080
1030.08606,0.01032
1028.02589,0.00980
1025.96571,0.00928
1023.90554,0.00892
1021.84537,0.00863
1019.78520,0.00837
1017.72503,0.00825
1015.66485,0.00813
1013.60468,0.00785
1011.54451,0.00765
1009.48434,0.00769
1007.42417,0.00776
1005.36399,0.00779
1003.30382,0.00794
1001.24365,0.00823
999.18348,0.00847
997.12330,0.00873
995.06313,0.00913
993.00296,0.00955
990.94279,0.00983
988.88262,0.01003
986.82244,0.01021
984.76227,0.01025
982.70210,0.01014
980.64193,0.01007
978.58176,0.01010
976.52158,0.01017
974.46141,0.01019
972.40124,0.01017
970.34107,0.01005
968.28089,0.00983
966.22072,0.00953
964.16055,0.00916
962.10038,0.00882
960.04021,0.00859
957.98003,0.00839
955.91986,0.00811
953.85969,0.00774
951.79952,0.00741
949.73935,0.00719
947.67917,0.00687
945.61900,0.00642
943.55883,0.00613
941.49866,0.00601
939.43849,0.00592
937.37831,0.00584
935.31814,0.00574
933.25797,0.00556
931.19780,0.00529
929.13762,0.00491
927.07745,0.00450
925.01728,0.00415
922.95711,0.00392
920.89694,0.00391
918.83676,0.00396
916.77659,0.00394
914.71642,0.00400
912.65625,0.00409
910.59608,0.00389
908.53590,0.00353
906.47573,0.00345
904.41556,0.00375
902.35539,0.00410
900.29522,0.00410
898.23504,0.00384
896.17487,0.00374
894.11470,0.00400
892.05453,0.00431
889.99435,0.00433
887.93418,0.00416
885.87401,0.00413
883.81384,0.00438
881.75367,0.00469
879.69349,0.00481
877.63332,0.00487
875.57315,0.00490
873.51298,0.00489
871.45281,0.00509
869.39263,0.00542
867.33246,0.00555
865.27229,0.00557
863.21212,0.00567
861.15194,0.00576
859.09177,0.00588
857.03160,0.00610
854.97143,0.00625
852.91126,0.00614
850.85108,0.00593
848.79091,0.00598
846.73074,0.00614
844.67057,0.00613
842.61040,0.00609
840.55022,0.00612
838.49005,0.00602
836.42988,0.00564
834.36971,0.00551
832.30954,0.00573
830.24936,0.00571
828.18919,0.00538
826.12902,0.00504
824.06885,0.00482
822.00867,0.00464
819.94850,0.00444
817.88833,0.00449
815.82816,0.00473
813.76799,0.00467
811.70781,0.00437
809.64764,0.00423
807.58747,0.00429
805.52730,0.00427
803.46713,0.00386
801.40695,0.00329
799.34678,0.00321
797.28661,0.00362
795.22644,0.00400
793.16627,0.00406
791.10609,0.00399
789.04592,0.00401
786.98575,0.00414
784.92558,0.00422
782.86540,0.00420
780.80523,0.00414
778.74506,0.00380
776.68489,0.00338
774.62472,0.00345
772.56454,0.00370
770.50437,0.00374
768.44420,0.00385
766.38403,0.00388
764.32386,0.00359
762.26368,0.00346
760.20351,0.00354
758.14334,0.00371
756.08317,0.00392
754.02299,0.00378
751.96282,0.00346
749.90265,0.00335
747.84248,0.00315
745.78231,0.00300
743.72213,0.00325
741.66196,0.00350
739.60179,0.00371
737.54162,0.00391
735.48145,0.00364
733.42127,0.00313
731.36110,0.00298
729.30093,0.00324
727.24076,0.00362
725.18059,0.00356
723.12041,0.00321
721.06024,0.00345
719.00007,0.00356
716.93990,0.00307
714.87972,0.00260
712.81955,0.00289
710.75938,0.00355
708.69921,0.00372
706.63904,0.00341
704.57886,0.00310
702.51869,0.00300
700.45852,0.00302
698.39835,0.00301
696.33818,0.00315
694.27800,0.00355
692.21783,0.00372
690.15766,0.00336
688.09749,0.00296
686.03731,0.00313
683.97714,0.00361
681.91697,0.00390
679.85680,0.00401
677.79663,0.00400
675.73645,0.00374
673.67628,0.00287
671.61611,0.00161
669.55594,0.00293
667.49577,0.00547
665.43559,0.00369
663.37542,0.00393
661.31525,0.00420
659.25508,0.00373
657.19491,0.00325
655.13473,0.00325
653.07456,0.00323
651.01439,0.00272
648.95422,0.00234
646.89404,0.00245
644.83387,0.00314
642.77370,0.00401
640.71353,0.00408
638.65336,0.00273
636.59318,0.00090
634.53301,0.00000
632.47284,0.00049
630.41267,0.00206
628.35250,0.00363
626.29232,0.00370
624.23215,0.00198
622.17198,0.00068
620.11181,0.00113
618.05164,0.00200
615.99146,0.00248
613.93129,0.00300
611.87112,0.00245
609.81095,0.00092
607.75077,0.00077
605.69060,0.00146
603.63043,0.00075
601.57026,-0.00031
599.51009,0.00000
