3996.73391,0.00023
3994.67373,0.00001
3992.61356,-0.00000
3990.55339,0.00002
3988.49322,0.00000
3986.43305,0.00022
3984.37287,0.00050
3982.31270,0.00043
3980.25253,0.00027
3978.19236,0.00030
3976.13219,0.00033
3974.07201,0.00040
3972.01184,0.00060
3969.95167,0.00071
3967.89150,0.00070
3965.83133,0.00073
3963.77115,0.00077
3961.71098,0.00074
3959.65081,0.00064
3957.59064,0.00048
3955.53046,0.00046
3953.47029,0.00067
3951.41012,0.00093
3949.34995,0.00105
3947.28978,0.00104
3945.22960,0.00097
3943.16943,0.00094
3941.10926,0.00104
3939.04909,0.00107
3936.98892,0.00098
3934.92874,0.00100
3932.86857,0.00110
3930.80840,0.00087
3928.74823,0.00032
3926.68805,0.00000
3924.62788,0.00027
3922.56771,0.00078
3920.50754,0.00101
3918.44737,0.00096
3916.38719,0.00085
3914.32702,0.00083
3912.26685,0.00086
3910.20668,0.00078
3908.14651,0.00058
3906.08633,0.00051
3904.02616,0.00076
3901.96599,0.00097
3899.90582,0.00074
3897.84565,0.00037
3895.78547,0.00030
3893.72530,0.00057
3891.66513,0.00101
3889.60496,0.00131
3887.54478,0.00125
3885.48461,0.00103
3883.42444,0.00089
3881.36427,0.00083
3879.30410,0.00078
3877.24392,0.00068
3875.18375,0.00053
3873.12358,0.00024
3871.06341,0.00000
3869.00324,0.00025
3866.94306,0.00072
3864.88289,0.00100
3862.82272,0.00122
3860.76255,0.00117
3858.70237,0.00065
3856.64220,0.00019
3854.58203,0.00062
3852.52186,0.00147
3850.46169,0.00117
3848.40151,0.00047
3846.34134,0.00024
3844.28117,0.00021
3842.22100,0.00014
3840.16083,0.00044
3838.10065,0.00101
3836.04048,0.00118
3833.98031,0.00098
3831.92014,0.00095
3829.85997,0.00113
3827.79979,0.00116
3825.73962,0.00090
3823.67945,0.00067
3821.61928,0.00066
3819.55910,0.00059
3817.49893,0.00043
3815.43876,0.00063
3813.37859,0.00113
3811.31842,0.00137
3809.25824,0.00119
3807.19807,0.00084
3805.13790,0.00045
3803.07773,0.00009
3801.01756,0.00004
3798.95738,0.00023
3796.89721,0.00051
3794.83704,0.00083
3792.77687,0.00091
3790.71670,0.00072
3788.65652,0.00063
3786.59635,0.00070
3784.53618,0.00059
3782.47601,0.00041
3780.41583,0.00045
3778.35566,0.00068
3776.29549,0.00100
3774.23532,0.00115
3772.17515,0.00091
3770.11497,0.00059
3768.05480,0.00063
3765.99463,0.00088
3763.93446,0.00104
3761.87429,0.00116
3759.81411,0.00134
3757.75394,0.00130
3755.69377,0.00083
3753.63360,0.00038
3751.57342,0.00056
3749.51325,0.00103
3747.45308,0.00089
3745.39291,0.00053
3743.33274,0.00060
3741.27256,0.00072
3739.21239,0.00057
3737.15222,0.00050
3735.09205,0.00071
3733.03188,0.00110
3730.97170,0.00123
3728.91153,0.00102
3726.85136,0.00090
3724.79119,0.00103
3722.73102,0.00110
3720.67084,0.00102
3718.61067,0.00097
3716.55050,0.00073
3714.49033,0.00055
3712.43015,0.00090
3710.36998,0.00137
3708.30981,0.00152
3706.24964,0.00130
3704.18947,0.00100
3702.12929,0.00086
3700.06912,0.00095
3698.00895,0.00123
3695.94878,0.00151
3693.88861,0.00161
3691.82843,0.00145
3689.76826,0.00150
3687.70809,0.00171
3685.64792,0.00174
3683.58775,0.00174
3681.52757,0.00167
3679.46740,0.00114
3677.40723,0.00048
3675.34706,0.00032
3673.28688,0.00075
3671.22671,0.00144
3669.16654,0.00186
3667.10637,0.00171
3665.04620,0.00146
3662.98602,0.00162
3660.92585,0.00201
3658.86568,0.00225
3656.80551,0.00237
3654.74534,0.00249
3652.68516,0.00242
3650.62499,0.00237
3648.56482,0.00279
3646.50465,0.00327
3644.44447,0.00333
3642.38430,0.00326
3640.32413,0.00353
3638.26396,0.00404
3636.20379,0.00440
3634.14361,0.00457
3632.08344,0.00463
3630.02327,0.00485
3627.96310,0.00545
3625.90293,0.00593
3623.84275,0.00592
3621.78258,0.00604
3619.72241,0.00656
3617.66224,0.00698
3615.60207,0.00718
3613.54189,0.00740
3611.48172,0.00783
3609.42155,0.00810
3607.36138,0.00803
3605.30120,0.00796
3603.24103,0.00808
3601.18086,0.00846
3599.12069,0.00885
3597.06052,0.00915
3595.00034,0.00932
3592.94017,0.00954
3590.88000,0.00979
3588.81983,0.01003
3586.75966,0.01018
3584.69948,0.01040
3582.63931,0.01068
3580.57914,0.01094
3578.51897,0.01119
3576.45879,0.01144
3574.39862,0.01168
3572.33845,0.01201
3570.27828,0.01230
3568.21811,0.01228
3566.15793,0.01232
3564.09776,0.01294
3562.03759,0.01366
3559.97742,0.01405
3557.91725,0.01428
3555.85707,0.01450
3553.79690,0.01456
3551.73673,0.01457
3549.67656,0.01477
3547.61639,0.01496
3545.55621,0.01512
3543.49604,0.01542
3541.43587,0.01582
3539.37570,0.01612
3537.31552,0.01625
3535.25535,0.01631
3533.19518,0.01651
3531.13501,0.01703
3529.07484,0.01774
3527.01466,0.01807
3524.95449,0.01789
3522.89432,0.01789
3520.83415,0.01827
3518.77398,0.01861
3516.71380,0.01884
3514.65363,0.01911
3512.59346,0.01931
3510.53329,0.01932
3508.47312,0.01915
3506.41294,0.01910
3504.35277,0.01952
3502.29260,0.02019
3500.23243,0.02060
3498.17225,0.02079
3496.11208,0.02106
3494.05191,0.02128
3491.99174,0.02143
3489.93157,0.02158
3487.87139,0.02168
3485.81122,0.02188
3483.75105,0.02221
3481.69088,0.02249
3479.63071,0.02282
3477.57053,0.02319
3475.51036,0.02333
3473.45019,0.02331
3471.39002,0.02347
3469.32984,0.02380
3467.26967,0.02413
3465.20950,0.02429
3463.14933,0.02438
3461.08916,0.02453
3459.02898,0.02454
3456.96881,0.02435
3454.90864,0.02424
3452.84847,0.02438
3450.78830,0.02448
3448.72812,0.02444
3446.66795,0.02472
3444.60778,0.02515
3442.54761,0.02520
3440.48744,0.02532
3438.42726,0.02593
3436.36709,0.02650
3434.30692,0.02660
3432.24675,0.02659
3430.18657,0.02679
3428.12640,0.02706
3426.06623,0.02731
3424.00606,0.02750
3421.94589,0.02757
3419.88571,0.02762
3417.82554,0.02760
3415.76537,0.02754
3413.70520,0.02767
3411.64503,0.02781
3409.58485,0.02774
3407.52468,0.02774
3405.46451,0.02807
3403.40434,0.02832
3401.34416,0.02811
3399.28399,0.02800
3397.22382,0.02834
3395.16365,0.02878
3393.10348,0.02887
3391.04330,0.02872
3388.98313,0.02874
3386.92296,0.02903
3384.86279,0.02935
3382.80262,0.02952
3380.74244,0.02952
3378.68227,0.02949
3376.62210,0.02947
3374.56193,0.02956
3372.50176,0.02981
3370.44158,0.02996
3368.38141,0.02990
3366.32124,0.02985
3364.26107,0.03004
3362.20089,0.03033
3360.14072,0.03045
3358.08055,0.03040
3356.02038,0.03037
3353.96021,0.03042
3351.90003,0.03032
3349.83986,0.02997
3347.77969,0.02982
3345.71952,0.02996
3343.65935,0.03011
3341.59917,0.03014
3339.53900,0.03021
3337.47883,0.03057
3335.41866,0.03090
3333.35849,0.03084
3331.29831,0.03071
3329.23814,0.03067
3327.17797,0.03067
3325.11780,0.03077
3323.05762,0.03092
3320.99745,0.03099
3318.93728,0.03101
3316.87711,0.03105
3314.81694,0.03120
3312.75676,0.03130
3310.69659,0.03131
3308.63642,0.03145
3306.57625,0.03148
3304.51608,0.03133
3302.45590,0.03134
3300.39573,0.03140
3298.33556,0.03127
3296.27539,0.03120
3294.21521,0.03119
3292.15504,0.03094
3290.09487,0.03064
3288.03470,0.03066
3285.97453,0.03093
3283.91435,0.03113
3281.85418,0.03111
3279.79401,0.03128
3277.73384,0.03169
3275.67367,0.03183
3273.61349,0.03177
3271.55332,0.03178
3269.49315,0.03176
3267.43298,0.03164
3265.37281,0.03135
3263.31263,0.03098
3261.25246,0.03090
3259.19229,0.03100
3257.13212,0.03092
3255.07194,0.03088
3253.01177,0.03118
3250.95160,0.03145
3248.89143,0.03143
3246.83126,0.03128
3244.77108,0.03112
3242.71091,0.03086
3240.65074,0.03047
3238.59057,0.03024
3236.53040,0.03038
3234.47022,0.03058
3232.41005,0.03050
3230.34988,0.03026
3228.28971,0.03021
3226.22954,0.03050
3224.16936,0.03078
3222.10919,0.03068
3220.04902,0.03034
3217.98885,0.03008
3215.92867,0.02997
3213.86850,0.02987
3211.80833,0.02992
3209.74816,0.03000
3207.68799,0.02985
3205.62781,0.02977
3203.56764,0.02983
3201.50747,0.02976
3199.44730,0.02958
3197.38713,0.02955
3195.32695,0.02959
3193.26678,0.02949
3191.20661,0.02930
3189.14644,0.02920
3187.08626,0.02919
3185.02609,0.02907
3182.96592,0.02876
3180.90575,0.02857
3178.84558,0.02864
3176.78540,0.02867
3174.72523,0.02845
3172.66506,0.02807
3170.60489,0.02781
3168.54472,0.02782
3166.48454,0.02782
3164.42437,0.02772
3162.36420,0.02774
3160.30403,0.02784
3158.24386,0.02779
3156.18368,0.02769
3154.12351,0.02777
3152.06334,0.02785
3150.00317,0.02764
3147.94299,0.02744
3145.88282,0.02737
3143.82265,0.02716
3141.76248,0.02684
3139.70231,0.02679
3137.64213,0.02690
3135.58196,0.02667
3133.52179,0.02635
3131.46162,0.02647
3129.40145,0.02669
3127.34127,0.02659
3125.28110,0.02632
3123.22093,0.02619
3121.16076,0.02610
3119.10058,0.02585
3117.04041,0.02562
3114.98024,0.02557
3112.92007,0.02563
3110.85990,0.02552
3108.79972,0.02517
3106.73955,0.02486
3104.67938,0.02482
3102.61921,0.02494
3100.55904,0.02502
3098.49886,0.02498
3096.43869,0.02484
3094.37852,0.02463
3092.31835,0.02439
3090.25818,0.02425
3088.19800,0.02434
3086.13783,0.02448
3084.07766,0.02435
3082.01749,0.02408
3079.95731,0.02394
3077.89714,0.02396
3075.83697,0.02400
3073.77680,0.02388
3071.71663,0.02365
3069.65645,0.02338
3067.59628,0.02327
3065.53611,0.02333
3063.47594,0.02329
3061.41577,0.02303
3059.35559,0.02277
3057.29542,0.02258
3055.23525,0.02233
3053.17508,0.02213
3051.11491,0.02203
3049.05473,0.02191
3046.99456,0.02179
3044.93439,0.02179
3042.87422,0.02190
3040.81404,0.02199
3038.75387,0.02207
3036.69370,0.02204
3034.63353,0.02182
3032.57336,0.02158
3030.51318,0.02136
3028.45301,0.02107
3026.39284,0.02084
3024.33267,0.02081
3022.27250,0.02083
3020.21232,0.02069
3018.15215,0.02049
3016.09198,0.02037
3014.03181,0.02027
3011.97163,0.02014
3009.91146,0.02013
3007.85129,0.02007
3005.79112,0.01988
3003.73095,0.01980
3001.67077,0.01983
2999.61060,0.01972
2997.55043,0.01952
2995.49026,0.01940
2993.43009,0.01941
2991.36991,0.01941
2989.30974,0.01937
2987.24957,0.01930
2985.18940,0.01913
2983.12923,0.01906
2981.06905,0.01936
2979.00888,0.01978
2976.94871,0.01987
2974.88854,0.01971
2972.82836,0.01964
2970.76819,0.01971
2968.70802,0.01980
2966.64785,0.01992
2964.58768,0.02009
2962.52750,0.02021
2960.46733,0.02018
2958.40716,0.01995
2956.34699,0.01974
2954.28682,0.01977
2952.22664,0.01990
2950.16647,0.01993
2948.10630,0.01993
2946.04613,0.02011
2943.98596,0.02040
2941.92578,0.02049
2939.86561,0.02039
2937.80544,0.02022
2935.74527,0.02014
2933.68509,0.02019
2931.62492,0.02024
2929.56475,0.02022
2927.50458,0.02010
2925.44441,0.02003
2923.38423,0.02018
2921.32406,0.02013
2919.26389,0.01980
2917.20372,0.01955
2915.14355,0.01938
2913.08337,0.01932
2911.02320,0.01938
2908.96303,0.01926
2906.90286,0.01901
2904.84268,0.01886
2902.78251,0.01887
2900.72234,0.01891
2898.66217,0.01887
2896.60200,0.01877
2894.54182,0.01871
2892.48165,0.01875
2890.42148,0.01871
2888.36131,0.01859
2886.30114,0.01857
2884.24096,0.01862
2882.18079,0.01870
2880.12062,0.01887
2878.06045,0.01893
2876.00028,0.01868
2873.94010,0.01837
2871.87993,0.01832
2869.81976,0.01824
2867.75959,0.01788
2865.69941,0.01763
2863.63924,0.01764
2861.57907,0.01754
2859.51890,0.01736
2857.45873,0.01731
2855.39855,0.01720
2853.33838,0.01692
2851.27821,0.01652
2849.21804,0.01610
2847.15787,0.01588
2845.09769,0.01583
2843.03752,0.01585
2840.97735,0.01585
2838.91718,0.01575
2836.85700,0.01554
2834.79683,0.01524
2832.73666,0.01501
2830.67649,0.01482
2828.61632,0.01470
2826.55614,0.01461
2824.49597,0.01445
2822.43580,0.01427
2820.37563,0.01414
2818.31546,0.01401
2816.25528,0.01378
2814.19511,0.01361
2812.13494,0.01371
2810.07477,0.01384
2808.01460,0.01381
2805.95442,0.01371
2803.89425,0.01354
2801.83408,0.01335
2799.77391,0.01334
2797.71373,0.01346
2795.65356,0.01348
2793.59339,0.01333
2791.53322,0.01311
2789.47305,0.01271
2787.41287,0.01232
2785.35270,0.01222
2783.29253,0.01229
2781.23236,0.01226
2779.17219,0.01210
2777.11201,0.01199
2775.05184,0.01193
2772.99167,0.01185
2770.93150,0.01186
2768.87133,0.01196
2766.81115,0.01193
2764.75098,0.01168
2762.69081,0.01142
2760.63064,0.01137
2758.57046,0.01154
2756.51029,0.01165
2754.45012,0.01151
2752.38995,0.01133
2750.32978,0.01119
2748.26960,0.01107
2746.20943,0.01102
2744.14926,0.01107
2742.08909,0.01108
2740.02892,0.01090
2737.96874,0.01064
2735.90857,0.01057
2733.84840,0.01059
2731.78823,0.01062
2729.72805,0.01057
2727.66788,0.01042
2725.60771,0.01029
2723.54754,0.01022
2721.48737,0.01018
2719.42719,0.01022
2717.36702,0.01028
2715.30685,0.01024
2713.24668,0.01010
2711.18651,0.00990
2709.12633,0.00976
2707.06616,0.00979
2705.00599,0.00974
2702.94582,0.00962
2700.88565,0.00960
2698.82547,0.00951
2696.76530,0.00939
2694.70513,0.00936
2692.64496,0.00936
2690.58478,0.00934
2688.52461,0.00921
2686.46444,0.00907
2684.40427,0.00910
2682.34410,0.00920
2680.28392,0.00919
2678.22375,0.00900
2676.16358,0.00878
2674.10341,0.00868
2672.04324,0.00872
2669.98306,0.00891
2667.92289,0.00911
2665.86272,0.00906
2663.80255,0.00879
2661.74238,0.00859
2659.68220,0.00858
2657.62203,0.00867
2655.56186,0.00867
2653.50169,0.00853
2651.44151,0.00846
2649.38134,0.00855
2647.32117,0.00852
2645.26100,0.00839
2643.20083,0.00852
2641.14065,0.00884
2639.08048,0.00893
2637.02031,0.00863
2634.96014,0.00810
2632.89997,0.00774
2630.83979,0.00766
2628.77962,0.00765
2626.71945,0.00764
2624.65928,0.00771
2622.59910,0.00776
2620.53893,0.00761
2618.47876,0.00738
2616.41859,0.00741
2614.35842,0.00769
2612.29824,0.00797
2610.23807,0.00802
2608.17790,0.00795
2606.11773,0.00788
2604.05756,0.00770
2601.99738,0.00749
2599.93721,0.00737
2597.87704,0.00741
2595.81687,0.00755
2593.75670,0.00762
2591.69652,0.00753
2589.63635,0.00741
2587.57618,0.00744
2585.51601,0.00744
2583.45583,0.00739
2581.39566,0.00759
2579.33549,0.00771
2577.27532,0.00759
2575.21515,0.00751
2573.15497,0.00754
2571.09480,0.00764
2569.03463,0.00774
2566.97446,0.00765
2564.91429,0.00745
2562.85411,0.00745
2560.79394,0.00766
2558.73377,0.00781
2556.67360,0.00779
2554.61342,0.00762
2552.55325,0.00746
2550.49308,0.00744
2548.43291,0.00746
2546.37274,0.00740
2544.31256,0.00727
2542.25239,0.00723
2540.19222,0.00714
2538.13205,0.00702
2536.07188,0.00716
2534.01170,0.00741
2531.95153,0.00738
2529.89136,0.00699
2527.83119,0.00658
2525.77102,0.00660
2523.71084,0.00716
2521.65067,0.00777
2519.59050,0.00777
2517.53033,0.00733
2515.47015,0.00708
2513.40998,0.00719
2511.34981,0.00722
2509.28964,0.00705
2507.22947,0.00711
2505.16929,0.00750
2503.10912,0.00774
2501.04895,0.00760
2498.98878,0.00740
2496.92861,0.00760
2494.86843,0.00802
2492.80826,0.00812
2490.74809,0.00802
2488.68792,0.00811
2486.62775,0.00815
2484.56757,0.00796
2482.50740,0.00772
2480.44723,0.00757
2478.38706,0.00770
2476.32688,0.00803
2474.26671,0.00809
2472.20654,0.00795
2470.14637,0.00793
2468.08620,0.00780
2466.02602,0.00763
2463.96585,0.00783
2461.90568,0.00810
2459.84551,0.00835
2457.78534,0.00875
2455.72516,0.00886
2453.66499,0.00845
2451.60482,0.00808
2449.54465,0.00811
2447.48447,0.00822
2445.42430,0.00816
2443.36413,0.00807
2441.30396,0.00822
2439.24379,0.00859
2437.18361,0.00868
2435.12344,0.00831
2433.06327,0.00798
2431.00310,0.00815
2428.94293,0.00846
2426.88275,0.00839
2424.82258,0.00820
2422.76241,0.00837
2420.70224,0.00869
2418.64207,0.00886
2416.58189,0.00872
2414.52172,0.00832
2412.46155,0.00816
2410.40138,0.00838
2408.34120,0.00848
2406.28103,0.00840
2404.22086,0.00839
2402.16069,0.00816
2400.10052,0.00773
2398.04034,0.00749
2395.98017,0.00780
2393.92000,0.00813
2391.85983,0.00804
2389.79966,0.00769
2387.73948,0.00745
2385.67931,0.00737
2383.61914,0.00739
2381.55897,0.00744
2379.49880,0.00730
2377.43862,0.00675
2375.37845,0.00673
2373.31828,0.00697
2371.25811,0.00700
2369.19793,0.00700
2367.13776,0.00644
2365.07759,0.00578
2363.01742,0.00714
2360.95725,0.00634
2358.89707,0.00615
2356.83690,0.00668
2354.77673,0.00837
2352.71656,0.00917
2350.65639,0.00542
2348.59621,0.00299
2346.53604,0.00883
2344.47587,0.00990
2342.41570,0.00843
2340.35552,0.00762
2338.29535,0.00714
2336.23518,0.00760
2334.17501,0.00800
2332.11484,0.00792
2330.05466,0.00748
2327.99449,0.00815
2325.93432,0.00774
2323.87415,0.00795
2321.81398,0.00784
2319.75380,0.00841
2317.69363,0.00756
2315.63346,0.00721
2313.57329,0.00756
2311.51312,0.00759
2309.45294,0.00749
2307.39277,0.00740
2305.33260,0.00724
2303.27243,0.00692
2301.21225,0.00705
2299.15208,0.00738
2297.09191,0.00777
2295.03174,0.00788
2292.97157,0.00742
2290.91139,0.00701
2288.85122,0.00702
2286.79105,0.00704
2284.73088,0.00672
2282.67071,0.00620
2280.61053,0.00588
2278.55036,0.00601
2276.49019,0.00659
2274.43002,0.00711
2272.36984,0.00707
2270.30967,0.00628
2268.24950,0.00540
2266.18933,0.00516
2264.12916,0.00563
2262.06898,0.00611
2260.00881,0.00617
2257.94864,0.00619
2255.88847,0.00681
2253.82830,0.00730
2251.76812,0.00682
2249.70795,0.00601
2247.64778,0.00585
2245.58761,0.00591
2243.52744,0.00555
2241.46726,0.00500
2239.40709,0.00494
2237.34692,0.00544
2235.28675,0.00602
2233.22657,0.00596
2231.16640,0.00527
2229.10623,0.00463
2227.04606,0.00472
2224.98589,0.00553
2222.92571,0.00606
2220.86554,0.00582
2218.80537,0.00517
2216.74520,0.00492
2214.68503,0.00544
2212.62485,0.00589
2210.56468,0.00530
2208.50451,0.00422
2206.44434,0.00401
2204.38417,0.00456
2202.32399,0.00502
2200.26382,0.00532
2198.20365,0.00564
2196.14348,0.00536
2194.08330,0.00425
2192.02313,0.00360
2189.96296,0.00399
2187.90279,0.00463
2185.84262,0.00456
2183.78244,0.00354
2181.72227,0.00264
2179.66210,0.00289
2177.60193,0.00410
2175.54176,0.00522
2173.48158,0.00515
2171.42141,0.00450
2169.36124,0.00382
2167.30107,0.00287
2165.24089,0.00307
2163.18072,0.00384
2161.12055,0.00218
2159.06038,0.00000
2157.00021,0.00024
2154.94003,0.00071
2152.87986,0.00063
2150.81969,0.00119
2148.75952,0.00183
2146.69935,0.00230
2144.63917,0.00308
2142.57900,0.00324
2140.51883,0.00242
2138.45866,0.00170
2136.39849,0.00187
2134.33831,0.00269
2132.27814,0.00281
2130.21797,0.00198
2128.15780,0.00164
2126.09762,0.00219
2124.03745,0.00279
2121.97728,0.00291
2119.91711,0.00280
2117.85694,0.00299
2115.79676,0.00335
2113.73659,0.00380
2111.67642,0.00459
2109.61625,0.00548
2107.55608,0.00581
2105.49590,0.00503
2103.43573,0.00392
2101.37556,0.00356
2099.31539,0.00366
2097.25521,0.00370
2095.19504,0.00380
2093.13487,0.00402
2091.07470,0.00399
2089.01453,0.00381
2086.95435,0.00355
2084.89418,0.00346
2082.83401,0.00380
2080.77384,0.00407
2078.71367,0.00379
2076.65349,0.00300
2074.59332,0.00276
2072.53315,0.00392
2070.47298,0.00509
2068.41281,0.00511
2066.35263,0.00436
2064.29246,0.00356
2062.23229,0.00339
2060.17212,0.00334
2058.11194,0.00298
2056.05177,0.00314
2053.99160,0.00361
2051.93143,0.00348
2049.87126,0.00301
2047.81108,0.00289
2045.75091,0.00348
2043.69074,0.00454
2041.63057,0.00509
2039.57040,0.00483
2037.51022,0.00394
2035.45005,0.00239
2033.38988,0.00160
2031.32971,0.00239
2029.26954,0.00299
2027.20936,0.00252
2025.14919,0.00231
2023.08902,0.00247
2021.02885,0.00168
2018.96867,0.00054
2016.90850,0.00057
2014.84833,0.00121
2012.78816,0.00151
2010.72799,0.00128
2008.66781,0.00052
2006.60764,0.00000
2004.54747,0.00070
2002.48730,0.00237
2000.42713,0.00368
1998.36695,0.00366
1996.30678,0.00305
1994.24661,0.00315
1992.18644,0.00353
1990.12626,0.00275
1988.06609,0.00135
1986.00592,0.00113
1983.94575,0.00218
1981.88558,0.00312
1979.82540,0.00297
1977.76523,0.00185
1975.70506,0.00089
1973.64489,0.00047
1971.58472,0.00012
1969.52454,0.00037
1967.46437,0.00126
1965.40420,0.00161
1963.34403,0.00182
1961.28386,0.00226
1959.22368,0.00223
1957.16351,0.00191
1955.10334,0.00166
1953.04317,0.00116
1950.98299,0.00076
1948.92282,0.00145
1946.86265,0.00284
1944.80248,0.00321
1942.74231,0.00226
1940.68213,0.00163
1938.62196,0.00196
1936.56179,0.00222
1934.50162,0.00202
1932.44145,0.00188
1930.38127,0.00212
1928.32110,0.00239
1926.26093,0.00211
1924.20076,0.00166
1922.14059,0.00173
1920.08041,0.00201
1918.02024,0.00214
1915.96007,0.00230
1913.89990,0.00238
1911.83972,0.00209
1909.77955,0.00169
1907.71938,0.00177
1905.65921,0.00217
1903.59904,0.00258
1901.53886,0.00302
1899.47869,0.00321
1897.41852,0.00291
1895.35835,0.00244
1893.29818,0.00228
1891.23800,0.00236
1889.17783,0.00233
1887.11766,0.00228
1885.05749,0.00246
1882.99731,0.00275
1880.93714,0.00288
1878.87697,0.00288
1876.81680,0.00312
1874.75663,0.00344
1872.69645,0.00362
1870.63628,0.00355
1868.57611,0.00315
1866.51594,0.00274
1864.45577,0.00262
1862.39559,0.00263
1860.33542,0.00265
1858.27525,0.00276
1856.21508,0.00284
1854.15491,0.00277
1852.09473,0.00267
1850.03456,0.00256
1847.97439,0.00243
1845.91422,0.00250
1843.85404,0.00280
1841.79387,0.00298
1839.73370,0.00303
1837.67353,0.00318
1835.61336,0.00336
1833.55318,0.00338
1831.49301,0.00337
1829.43284,0.00355
1827.37267,0.00372
1825.31250,0.00368
1823.25232,0.00357
1821.19215,0.00355
1819.13198,0.00359
1817.07181,0.00361
1815.01163,0.00360
1812.95146,0.00356
1810.89129,0.00345
1808.83112,0.00337
1806.77095,0.00341
1804.71077,0.00351
1802.65060,0.00369
1800.59043,0.00392
1798.53026,0.00404
1796.47009,0.00400
1794.40991,0.00390
1792.34974,0.00384
1790.28957,0.00391
1788.22940,0.00400
1786.16923,0.00408
1784.10905,0.00417
1782.04888,0.00421
1779.98871,0.00414
1777.92854,0.00396
1775.86836,0.00376
1773.80819,0.00361
1771.74802,0.00361
1769.68785,0.00387
1767.62768,0.00421
1765.56750,0.00445
1763.50733,0.00466
1761.44716,0.00497
1759.38699,0.00534
1757.32682,0.00564
1755.26664,0.00572
1753.20647,0.00560
1751.14630,0.00564
1749.08613,0.00596
1747.02596,0.00623
1744.96578,0.00638
1742.90561,0.00651
1740.84544,0.00650
1738.78527,0.00633
1736.72509,0.00620
1734.66492,0.00631
1732.60475,0.00657
1730.54458,0.00673
1728.48441,0.00680
1726.42423,0.00676
1724.36406,0.00657
1722.30389,0.00629
1720.24372,0.00594
1718.18355,0.00567
1716.12337,0.00584
1714.06320,0.00626
1712.00303,0.00654
1709.94286,0.00667
1707.88268,0.00684
1705.82251,0.00710
1703.76234,0.00729
1701.70217,0.00746
1699.64200,0.00798
1697.58182,0.00886
1695.52165,0.00976
1693.46148,0.01041
1691.40131,0.01089
1689.34114,0.01132
1687.28096,0.01176
1685.22079,0.01258
1683.16062,0.01391
1681.10045,0.01500
1679.04028,0.01571
1676.98010,0.01644
1674.91993,0.01737
1672.85976,0.01825
1670.79959,0.01894
1668.73941,0.01980
1666.67924,0.02071
1664.61907,0.02134
1662.55890,0.02198
1660.49873,0.02290
1658.43855,0.02361
1656.37838,0.02366
1654.31821,0.02340
1652.25804,0.02372
1650.19787,0.02432
1648.13769,0.02461
1646.07752,0.02466
1644.01735,0.02440
1641.95718,0.02385
1639.89701,0.02336
1637.83683,0.02317
1635.77666,0.02317
1633.71649,0.02297
1631.65632,0.02251
1629.59614,0.02198
1627.53597,0.02144
1625.47580,0.02090
1623.41563,0.02038
1621.35546,0.01998
1619.29528,0.01964
1617.23511,0.01925
1615.17494,0.01887
1613.11477,0.01856
1611.05460,0.01831
1608.99442,0.01812
1606.93425,0.01795
1604.87408,0.01773
1602.81391,0.01746
1600.75373,0.01715
1598.69356,0.01684
1596.63339,0.01653
1594.57322,0.01618
1592.51305,0.01580
1590.45287,0.01544
1588.39270,0.01515
1586.33253,0.01493
1584.27236,0.01465
1582.21219,0.01428
1580.15201,0.01389
1578.09184,0.01348
1576.03167,0.01316
1573.97150,0.01308
1571.91133,0.01309
1569.85115,0.01298
1567.79098,0.01278
1565.73081,0.01251
1563.67064,0.01219
1561.61046,0.01182
1559.55029,0.01164
1557.49012,0.01188
1555.42995,0.01204
1553.36978,0.01193
1551.30960,0.01178
1549.24943,0.01161
1547.18926,0.01121
1545.12909,0.01060
1543.06892,0.01011
1541.00874,0.01004
1538.94857,0.01019
1536.88840,0.01010
1534.82823,0.00968
1532.76805,0.00916
1530.70788,0.00885
1528.64771,0.00865
1526.58754,0.00839
1524.52737,0.00808
1522.46719,0.00783
1520.40702,0.00772
1518.34685,0.00759
1516.28668,0.00738
1514.22651,0.00713
1512.16633,0.00678
1510.10616,0.00642
1508.04599,0.00625
1505.98582,0.00623
1503.92565,0.00615
1501.86547,0.00601
1499.80530,0.00589
1497.74513,0.00576
1495.68496,0.00556
1493.62478,0.00523
1491.56461,0.00484
1489.50444,0.00455
1487.44427,0.00449
1485.38410,0.00448
1483.32392,0.00442
1481.26375,0.00438
1479.20358,0.00440
1477.14341,0.00442
1475.08324,0.00446
1473.02306,0.00473
1470.96289,0.00520
1468.90272,0.00558
1466.84255,0.00596
1464.78238,0.00649
1462.72220,0.00683
1460.66203,0.00666
1458.60186,0.00629
1456.54169,0.00633
1454.48151,0.00664
1452.42134,0.00679
1450.36117,0.00685
1448.30100,0.00702
1446.24083,0.00728
1444.18065,0.00747
1442.12048,0.00757
1440.06031,0.00765
1438.00014,0.00774
1435.93997,0.00781
1433.87979,0.00784
1431.81962,0.00790
1429.75945,0.00810
1427.69928,0.00842
1425.63910,0.00871
1423.57893,0.00893
1421.51876,0.00912
1419.45859,0.00940
1417.39842,0.00980
1415.33824,0.01012
1413.27807,0.01032
1411.21790,0.01042
1409.15773,0.01044
1407.09756,0.01048
1405.03738,0.01056
1402.97721,0.01056
1400.91704,0.01044
1398.85687,0.01031
1396.79670,0.01019
1394.73652,0.01007
1392.67635,0.01002
1390.61618,0.00990
1388.55601,0.00973
1386.49583,0.00966
1384.43566,0.00963
1382.37549,0.00955
1380.31532,0.00947
1378.25515,0.00944
1376.19497,0.00939
1374.13480,0.00935
1372.07463,0.00933
1370.01446,0.00930
1367.95429,0.00929
1365.89411,0.00927
1363.83394,0.00911
1361.77377,0.00895
1359.71360,0.00899
1357.65343,0.00907
1355.59325,0.00901
1353.53308,0.00882
1351.47291,0.00854
1349.41274,0.00817
1347.35256,0.00772
1345.29239,0.00724
1343.23222,0.00685
1341.17205,0.00648
1339.11188,0.00609
1337.05170,0.00589
1334.99153,0.00590
1332.93136,0.00584
1330.87119,0.00560
1328.81102,0.00541
1326.75084,0.00542
1324.69067,0.00545
1322.63050,0.00534
1320.57033,0.00517
1318.51015,0.00506
1316.44998,0.00506
1314.38981,0.00507
1312.32964,0.00500
1310.26947,0.00491
1308.20929,0.00480
1306.14912,0.00469
1304.08895,0.00466
1302.02878,0.00477
1299.96861,0.00502
1297.90843,0.00527
1295.84826,0.00543
1293.78809,0.00556
1291.72792,0.00562
1289.66775,0.00546
1287.60757,0.00517
1285.54740,0.00499
1283.48723,0.00489
1281.42706,0.00486
1279.36688,0.00493
1277.30671,0.00491
1275.24654,0.00480
1273.18637,0.00478
1271.12620,0.00475
1269.06602,0.00463
1267.00585,0.00441
1264.94568,0.00424
1262.88551,0.00431
1260.82534,0.00455
1258.76516,0.00480
1256.70499,0.00490
1254.64482,0.00485
1252.58465,0.00480
1250.52447,0.00485
1248.46430,0.00494
1246.40413,0.00499
1244.34396,0.00498
1242.28379,0.00490
1240.22361,0.00475
1238.16344,0.00456
1236.10327,0.00440
1234.04310,0.00413
1231.98293,0.00378
1229.92275,0.00356
1227.86258,0.00340
1225.80241,0.00312
1223.74224,0.00275
1221.68207,0.00254
1219.62189,0.00244
1217.56172,0.00225
1215.50155,0.00188
1213.44138,0.00148
1211.38120,0.00122
1209.32103,0.00101
1207.26086,0.00088
1205.20069,0.00101
1203.14052,0.00129
1201.08034,0.00148
1199.02017,0.00169
1196.96000,0.00214
1194.89983,0.00269
1192.83966,0.00317
1190.77948,0.00374
1188.71931,0.00456
1186.65914,0.00539
1184.59897,0.00626
1182.53880,0.00737
1180.47862,0.00853
1178.41845,0.00955
1176.35828,0.01059
1174.29811,0.01180
1172.23793,0.01325
1170.17776,0.01469
1168.11759,0.01592
1166.05742,0.01709
1163.99725,0.01824
1161.93707,0.01944
1159.87690,0.02063
1157.81673,0.02155
1155.75656,0.02237
1153.69639,0.02337
1151.63621,0.02431
1149.57604,0.02488
1147.51587,0.02529
1145.45570,0.02577
1143.39552,0.02618
1141.33535,0.02641
1139.27518,0.02658
1137.21501,0.02673
1135.15484,0.02685
1133.09466,0.02698
1131.03449,0.02719
1128.97432,0.02748
1126.91415,0.02787
1124.85398,0.02850
1122.79380,0.02945
1120.73363,0.03062
1118.67346,0.03191
1116.61329,0.03319
1114.55312,0.03421
1112.49294,0.03509
1110.43277,0.03618
1108.37260,0.03759
1106.31243,0.03910
1104.25225,0.04057
1102.19208,0.04196
1100.13191,0.04316
1098.07174,0.04423
1096.01157,0.04533
1093.95139,0.04637
1091.89122,0.04731
1089.83105,0.04823
1087.77088,0.04910
1085.71071,0.04990
1083.65053,0.05097
1081.59036,0.05214
1079.53019,0.05295
1077.47002,0.05345
1075.40985,0.05388
1073.34967,0.05428
1071.28950,0.05465
1069.22933,0.05474
1067.16916,0.05430
1065.10898,0.05366
1063.04881,0.05325
1060.98864,0.05288
1058.92847,0.05219
1056.86830,0.05127
1054.80812,0.05031
1052.74795,0.04950
1050.68778,0.04887
1048.62761,0.04795
1046.56744,0.04656
1044.50726,0.04501
1042.44709,0.04357
1040.38692,0.04221
1038.32675,0.04076
1036.26657,0.03913
1034.20640,0.03742
1032.14623,0.03603
1030.08606,0.03492
1028.02589,0.03368
1025.96571,0.03230
1023.90554,0.03098
1021.84537,0.02983
1019.78520,0.02890
1017.72503,0.02814
1015.66485,0.02738
1013.60468,0.02667
1011.54451,0.02606
1009.48434,0.02565
1007.42417,0.02539
1005.36399,0.02528
1003.30382,0.02548
1001.24365,0.02594
999.18348,0.02659
997.12330,0.02727
995.06313,0.02779
993.00296,0.02813
990.94279,0.02847
988.88262,0.02902
986.82244,0.02960
984.76227,0.02981
982.70210,0.02963
980.64193,0.02930
978.58176,0.02887
976.52158,0.02853
974.46141,0.02829
972.40124,0.02779
970.34107,0.02709
968.28089,0.02641
966.22072,0.02571
964.16055,0.02495
962.10038,0.02431
960.04021,0.02384
957.98003,0.02342
955.91986,0.02305
953.85969,0.02265
951.79952,0.02218
949.73935,0.02181
947.67917,0.02152
945.61900,0.02121
943.55883,0.02078
941.49866,0.02017
939.43849,0.01964
937.37831,0.01927
935.31814,0.01870
933.25797,0.01791
931.19780,0.01711
929.13762,0.01633
927.07745,0.01554
925.01728,0.01471
922.95711,0.01386
920.89694,0.01308
918.83676,0.01236
916.77659,0.01165
914.71642,0.01105
912.65625,0.01047
910.59608,0.00948
908.53590,0.00829
906.47573,0.00761
904.41556,0.00757
902.35539,0.00763
900.29522,0.00760
898.23504,0.00758
896.17487,0.00755
894.11470,0.00759
892.05453,0.00786
889.99435,0.00803
887.93418,0.00799
885.87401,0.00813
883.81384,0.00873
881.75367,0.00981
879.69349,0.01090
877.63332,0.01171
875.57315,0.01267
873.51298,0.01384
871.45281,0.01516
869.39263,0.01681
867.33246,0.01857
865.27229,0.02022
863.21212,0.02194
861.15194,0.02343
859.09177,0.02419
857.03160,0.02450
854.97143,0.02471
852.91126,0.02462
850.85108,0.02429
848.79091,0.02417
846.73074,0.02399
844.67057,0.02343
842.61040,0.02278
840.55022,0.02214
838.49005,0.02109
836.42988,0.01967
834.36971,0.01862
832.30954,0.01788
830.24936,0.01707
828.18919,0.01643
826.12902,0.01599
824.06885,0.01521
822.00867,0.01415
819.94850,0.01350
817.88833,0.01299
815.82816,0.01230
813.76799,0.01171
811.70781,0.01122
809.64764,0.01105
807.58747,0.01123
805.52730,0.01112
803.46713,0.01037
801.40695,0.00959
799.34678,0.00933
797.28661,0.00897
795.22644,0.00814
793.16627,0.00755
791.10609,0.00776
789.04592,0.00839
786.98575,0.00855
784.92558,0.00810
782.86540,0.00792
780.80523,0.00812
778.74506,0.00806
776.68489,0.00786
774.62472,0.00767
772.56454,0.00744
770.50437,0.00743
768.44420,0.00743
766.38403,0.00720
764.32386,0.00684
762.26368,0.00622
760.20351,0.00567
758.14334,0.00589
756.08317,0.00646
754.02299,0.00680
751.96282,0.00687
749.90265,0.00652
747.84248,0.00613
745.78231,0.00625
743.72213,0.00685
741.66196,0.00720
739.60179,0.00671
737.54162,0.00631
735.48145,0.00654
733.42127,0.00645
731.36110,0.00596
729.30093,0.00574
727.24076,0.00570
725.18059,0.00569
723.12041,0.00559
721.06024,0.00614
719.00007,0.00560
716.93990,0.00547
714.87972,0.00582
712.81955,0.00584
710.75938,0.00570
708.69921,0.00551
706.63904,0.00535
704.57886,0.00535
702.51869,0.00541
700.45852,0.00549
698.39835,0.00580
696.33818,0.00640
694.27800,0.00666
692.21783,0.00611
690.15766,0.00522
688.09749,0.00499
686.03731,0.00532
683.97714,0.00506
681.91697,0.00438
679.85680,0.00398
677.79663,0.00385
675.73645,0.00427
673.67628,0.00356
671.61611,0.00000
669.55594,0.00361
667.49577,0.01135
665.43559,0.00041
663.37542,0.00304
661.31525,0.00635
659.25508,0.00651
657.19491,0.00600
655.13473,0.00546
653.07456,0.00505
651.01439,0.00545
648.95422,0.00672
646.89404,0.00711
644.83387,0.00645
642.77370,0.00556
640.71353,0.00574
638.65336,0.00626
636.59318,0.00608
634.53301,0.00550
632.47284,0.00456
630.41267,0.00331
628.35250,0.00283
626.29232,0.00331
624.23215,0.00359
622.17198,0.00361
620.11181,0.00355
618.05164,0.00359
615.99146,0.00324
613.93129,0.00144
611.87112,0.00000
609.81095,0.00042
607.75077,0.00145
605.69060,0.00169
603.63043,0.00102
601.57026,0.00017
599.51009,0.00000
