3996.73391,0.00003
3994.67373,0.00000
3992.61356,0.00038
3990.55339,0.00071
3988.49322,0.00063
3986.43305,0.00042
3984.37287,0.00039
3982.31270,0.00048
3980.25253,0.00059
3978.19236,0.00064
3976.13219,0.00059
3974.07201,0.00060
3972.01184,0.00077
3969.95167,0.00091
3967.89150,0.00096
3965.83133,0.00102
3963.77115,0.00115
3961.71098,0.00120
3959.65081,0.00100
3957.59064,0.00068
3955.53046,0.00055
3953.47029,0.00064
3951.41012,0.00077
3949.34995,0.00071
3947.28978,0.00048
3945.22960,0.00041
3943.16943,0.00047
3941.10926,0.00042
3939.04909,0.00038
3936.98892,0.00065
3934.92874,0.00111
3932.86857,0.00124
3930.80840,0.00076
3928.74823,0.00026
3926.68805,0.00032
3924.62788,0.00075
3922.56771,0.00111
3920.50754,0.00135
3918.44737,0.00146
3916.38719,0.00123
3914.32702,0.00082
3912.26685,0.00071
3910.20668,0.00082
3908.14651,0.00086
3906.08633,0.00084
3904.02616,0.00086
3901.96599,0.00070
3899.90582,0.00024
3897.84565,0.00008
3895.78547,0.00055
3893.72530,0.00107
3891.66513,0.00119
3889.60496,0.00110
3887.54478,0.00095
3885.48461,0.00073
3883.42444,0.00065
3881.36427,0.00072
3879.30410,0.00070
3877.24392,0.00060
3875.18375,0.00049
3873.12358,0.00042
3871.06341,0.00055
3869.00324,0.00088
3866.94306,0.00114
3864.88289,0.00126
3862.82272,0.00134
3860.76255,0.00137
3858.70237,0.00135
3856.64220,0.00140
3854.58203,0.00155
3852.52186,0.00142
3850.46169,0.00089
3848.40151,0.00059
3846.34134,0.00082
3844.28117,0.00129
3842.22100,0.00154
3840.16083,0.00138
3838.10065,0.00104
3836.04048,0.00097
3833.98031,0.00120
3831.92014,0.00136
3829.85997,0.00135
3827.79979,0.00131
3825.73962,0.00136
3823.67945,0.00145
3821.61928,0.00129
3819.55910,0.00097
3817.49893,0.00091
3815.43876,0.00104
3813.37859,0.00126
3811.31842,0.00149
3809.25824,0.00152
3807.19807,0.00134
3805.13790,0.00111
3803.07773,0.00076
3801.01756,0.00027
3798.95738,0.00012
3796.89721,0.00037
3794.83704,0.00062
3792.77687,0.00071
3790.71670,0.00069
3788.65652,0.00068
3786.59635,0.00080
3784.53618,0.00092
3782.47601,0.00092
3780.41583,0.00078
3778.35566,0.00067
3776.29549,0.00092
3774.23532,0.00138
3772.17515,0.00152
3770.11497,0.00129
3768.05480,0.00116
3765.99463,0.00132
3763.93446,0.00153
3761.87429,0.00170
3759.81411,0.00180
3757.75394,0.00177
3755.69377,0.00167
3753.63360,0.00159
3751.57342,0.00135
3749.51325,0.00092
3747.45308,0.00076
3745.39291,0.00084
3743.33274,0.00091
3741.27256,0.00097
3739.21239,0.00090
3737.15222,0.00051
3735.09205,0.00003
3733.03188,0.00000
3730.97170,0.00040
3728.91153,0.00087
3726.85136,0.00148
3724.79119,0.00208
3722.73102,0.00215
3720.67084,0.00185
3718.61067,0.00161
3716.55050,0.00159
3714.49033,0.00182
3712.43015,0.00190
3710.36998,0.00153
3708.30981,0.00146
3706.24964,0.00196
3704.18947,0.00219
3702.12929,0.00179
3700.06912,0.00132
3698.00895,0.00116
3695.94878,0.00134
3693.88861,0.00169
3691.82843,0.00196
3689.76826,0.00197
3687.70809,0.00172
3685.64792,0.00136
3683.58775,0.00121
3681.52757,0.00127
3679.46740,0.00138
3677.40723,0.00150
3675.34706,0.00166
3673.28688,0.00180
3671.22671,0.00194
3669.16654,0.00198
3667.10637,0.00193
3665.04620,0.00205
3662.98602,0.00242
3660.92585,0.00289
3658.86568,0.00332
3656.80551,0.00372
3654.74534,0.00405
3652.68516,0.00431
3650.62499,0.00454
3648.56482,0.00478
3646.50465,0.00503
3644.44447,0.00522
3642.38430,0.00538
3640.32413,0.00556
3638.26396,0.00567
3636.20379,0.00584
3634.14361,0.00634
3632.08344,0.00696
3630.02327,0.00699
3627.96310,0.00664
3625.90293,0.00687
3623.84275,0.00747
3621.78258,0.00791
3619.72241,0.00817
3617.66224,0.00837
3615.60207,0.00872
3613.54189,0.00939
3611.48172,0.01003
3609.42155,0.01005
3607.36138,0.00964
3605.30120,0.00965
3603.24103,0.01035
3601.18086,0.01114
3599.12069,0.01158
3597.06052,0.01188
3595.00034,0.01222
3592.94017,0.01244
3590.88000,0.01255
3588.81983,0.01254
3586.75966,0.01248
3584.69948,0.01259
3582.63931,0.01281
3580.57914,0.01316
3578.51897,0.01388
3576.45879,0.01470
3574.39862,0.01511
3572.33845,0.01516
3570.27828,0.01517
3568.21811,0.01516
3566.15793,0.01518
3564.09776,0.01560
3562.03759,0.01638
3559.97742,0.01704
3557.91725,0.01740
3555.85707,0.01759
3553.79690,0.01766
3551.73673,0.01774
3549.67656,0.01791
3547.61639,0.01787
3545.55621,0.01773
3543.49604,0.01803
3541.43587,0.01879
3539.37570,0.01962
3537.31552,0.02007
3535.25535,0.02014
3533.19518,0.02028
3531.13501,0.02061
3529.07484,0.02104
3527.01466,0.02152
3524.95449,0.02192
3522.89432,0.02219
3520.83415,0.02239
3518.77398,0.02252
3516.71380,0.02269
3514.65363,0.02293
3512.59346,0.02313
3510.53329,0.02327
3508.47312,0.02341
3506.41294,0.02362
3504.35277,0.02399
3502.29260,0.02433
3500.23243,0.02449
3498.17225,0.02475
3496.11208,0.02522
3494.05191,0.02549
3491.99174,0.02553
3489.93157,0.02578
3487.87139,0.02621
3485.81122,0.02652
3483.75105,0.02666
3481.69088,0.02684
3479.63071,0.02709
3477.57053,0.02739
3475.51036,0.02778
3473.45019,0.02820
3471.39002,0.02855
3469.32984,0.02881
3467.26967,0.02898
3465.20950,0.02894
3463.14933,0.02890
3461.08916,0.02923
3459.02898,0.02975
3456.96881,0.02991
3454.90864,0.02965
3452.84847,0.02942
3450.78830,0.02959
3448.72812,0.03011
3446.66795,0.03051
3444.60778,0.03047
3442.54761,0.03041
3440.48744,0.03072
3438.42726,0.03122
3436.36709,0.03152
3434.30692,0.03144
3432.24675,0.03135
3430.18657,0.03163
3428.12640,0.03205
3426.06623,0.03244
3424.00606,0.03286
3421.94589,0.03318
3419.88571,0.03332
3417.82554,0.03341
3415.76537,0.03360
3413.70520,0.03377
3411.64503,0.03368
3409.58485,0.03353
3407.52468,0.03370
3405.46451,0.03412
3403.40434,0.03428
3401.34416,0.03418
3399.28399,0.03437
3397.22382,0.03471
3395.16365,0.03486
3393.10348,0.03473
3391.04330,0.03448
3388.98313,0.03439
3386.92296,0.03454
3384.86279,0.03488
3382.80262,0.03512
3380.74244,0.03507
3378.68227,0.03501
3376.62210,0.03514
3374.56193,0.03554
3372.50176,0.03602
3370.44158,0.03607
3368.38141,0.03575
3366.32124,0.03553
3364.26107,0.03564
3362.20089,0.03598
3360.14072,0.03627
3358.08055,0.03638
3356.02038,0.03639
3353.96021,0.03637
3351.90003,0.03631
3349.83986,0.03628
3347.77969,0.03627
3345.71952,0.03626
3343.65935,0.03636
3341.59917,0.03662
3339.53900,0.03687
3337.47883,0.03714
3335.41866,0.03731
3333.35849,0.03716
3331.29831,0.03701
3329.23814,0.03705
3327.17797,0.03703
3325.11780,0.03702
3323.05762,0.03711
3320.99745,0.03720
3318.93728,0.03734
3316.87711,0.03757
3314.81694,0.03781
3312.75676,0.03778
3310.69659,0.03754
3308.63642,0.03753
3306.57625,0.03767
3304.51608,0.03768
3302.45590,0.03771
3300.39573,0.03775
3298.33556,0.03765
3296.27539,0.03755
3294.21521,0.03752
3292.15504,0.03743
3290.09487,0.03732
3288.03470,0.03732
3285.97453,0.03745
3283.91435,0.03759
3281.85418,0.03770
3279.79401,0.03794
3277.73384,0.03843
3275.67367,0.03883
3273.61349,0.03882
3271.55332,0.03855
3269.49315,0.03837
3267.43298,0.03830
3265.37281,0.03805
3263.31263,0.03781
3261.25246,0.03792
3259.19229,0.03809
3257.13212,0.03807
3255.07194,0.03815
3253.01177,0.03847
3250.95160,0.03874
3248.89143,0.03873
3246.83126,0.03845
3244.77108,0.03803
3242.71091,0.03766
3240.65074,0.03755
3238.59057,0.03773
3236.53040,0.03791
3234.47022,0.03788
3232.41005,0.03772
3230.34988,0.03765
3228.28971,0.03783
3226.22954,0.03808
3224.16936,0.03812
3222.10919,0.03793
3220.04902,0.03773
3217.98885,0.03771
3215.92867,0.03782
3213.86850,0.03791
3211.80833,0.03788
3209.74816,0.03768
3207.68799,0.03761
3205.62781,0.03785
3203.56764,0.03808
3201.50747,0.03809
3199.44730,0.03792
3197.38713,0.03770
3195.32695,0.03754
3193.26678,0.03745
3191.20661,0.03756
3189.14644,0.03778
3187.08626,0.03773
3185.02609,0.03738
3182.96592,0.03709
3180.90575,0.03700
3178.84558,0.03685
3176.78540,0.03663
3174.72523,0.03659
3172.66506,0.03667
3170.60489,0.03666
3168.54472,0.03654
3166.48454,0.03637
3164.42437,0.03633
3162.36420,0.03646
3160.30403,0.03659
3158.24386,0.03654
3156.18368,0.03637
3154.12351,0.03633
3152.06334,0.03632
3150.00317,0.03614
3147.94299,0.03596
3145.88282,0.03582
3143.82265,0.03557
3141.76248,0.03541
3139.70231,0.03552
3137.64213,0.03560
3135.58196,0.03537
3133.52179,0.03505
3131.46162,0.03496
3129.40145,0.03489
3127.34127,0.03464
3125.28110,0.03440
3123.22093,0.03428
3121.16076,0.03414
3119.10058,0.03409
3117.04041,0.03421
3114.98024,0.03431
3112.92007,0.03428
3110.85990,0.03411
3108.79972,0.03380
3106.73955,0.03353
3104.67938,0.03339
3102.61921,0.03329
3100.55904,0.03333
3098.49886,0.03360
3096.43869,0.03374
3094.37852,0.03342
3092.31835,0.03297
3090.25818,0.03274
3088.19800,0.03279
3086.13783,0.03291
3084.07766,0.03281
3082.01749,0.03251
3079.95731,0.03225
3077.89714,0.03219
3075.83697,0.03224
3073.77680,0.03220
3071.71663,0.03186
3069.65645,0.03133
3067.59628,0.03102
3065.53611,0.03111
3063.47594,0.03130
3061.41577,0.03134
3059.35559,0.03116
3057.29542,0.03086
3055.23525,0.03046
3053.17508,0.03003
3051.11491,0.02977
3049.05473,0.02970
3046.99456,0.02973
3044.93439,0.02988
3042.87422,0.02993
3040.81404,0.02975
3038.75387,0.02953
3036.69370,0.02942
3034.63353,0.02938
3032.57336,0.02926
3030.51318,0.02896
3028.45301,0.02854
3026.39284,0.02820
3024.33267,0.02814
3022.27250,0.02823
3020.21232,0.02803
3018.15215,0.02766
3016.09198,0.02753
3014.03181,0.02749
3011.97163,0.02730
3009.91146,0.02720
3007.85129,0.02720
3005.79112,0.02701
3003.73095,0.02668
3001.67077,0.02648
2999.61060,0.02637
2997.55043,0.02619
2995.49026,0.02602
2993.43009,0.02591
2991.36991,0.02584
2989.30974,0.02582
2987.24957,0.02579
2985.18940,0.02557
2983.12923,0.02529
2981.06905,0.02526
2979.00888,0.02543
2976.94871,0.02551
2974.88854,0.02540
2972.82836,0.02515
2970.76819,0.02495
2968.70802,0.02485
2966.64785,0.02477
2964.58768,0.02482
2962.52750,0.02503
2960.46733,0.02508
2958.40716,0.02498
2956.34699,0.02491
2954.28682,0.02479
2952.22664,0.02471
2950.16647,0.02460
2948.10630,0.02434
2946.04613,0.02424
2943.98596,0.02444
2941.92578,0.02455
2939.86561,0.02437
2937.80544,0.02411
2935.74527,0.02391
2933.68509,0.02383
2931.62492,0.02396
2929.56475,0.02414
2927.50458,0.02410
2925.44441,0.02391
2923.38423,0.02380
2921.32406,0.02368
2919.26389,0.02346
2917.20372,0.02328
2915.14355,0.02316
2913.08337,0.02302
2911.02320,0.02283
2908.96303,0.02256
2906.90286,0.02220
2904.84268,0.02184
2902.78251,0.02161
2900.72234,0.02154
2898.66217,0.02155
2896.60200,0.02144
2894.54182,0.02115
2892.48165,0.02087
2890.42148,0.02078
2888.36131,0.02089
2886.30114,0.02100
2884.24096,0.02092
2882.18079,0.02079
2880.12062,0.02068
2878.06045,0.02057
2876.00028,0.02049
2873.94010,0.02044
2871.87993,0.02030
2869.81976,0.01994
2867.75959,0.01953
2865.69941,0.01926
2863.63924,0.01922
2861.57907,0.01923
2859.51890,0.01918
2857.45873,0.01912
2855.39855,0.01897
2853.33838,0.01875
2851.27821,0.01847
2849.21804,0.01817
2847.15787,0.01806
2845.09769,0.01804
2843.03752,0.01798
2840.97735,0.01792
2838.91718,0.01778
2836.85700,0.01752
2834.79683,0.01729
2832.73666,0.01716
2830.67649,0.01696
2828.61632,0.01683
2826.55614,0.01675
2824.49597,0.01647
2822.43580,0.01616
2820.37563,0.01605
2818.31546,0.01597
2816.25528,0.01578
2814.19511,0.01570
2812.13494,0.01568
2810.07477,0.01556
2808.01460,0.01553
2805.95442,0.01553
2803.89425,0.01533
2801.83408,0.01513
2799.77391,0.01511
2797.71373,0.01517
2795.65356,0.01507
2793.59339,0.01485
2791.53322,0.01466
2789.47305,0.01443
2787.41287,0.01424
2785.35270,0.01416
2783.29253,0.01409
2781.23236,0.01404
2779.17219,0.01394
2777.11201,0.01378
2775.05184,0.01365
2772.99167,0.01344
2770.93150,0.01324
2768.87133,0.01323
2766.81115,0.01322
2764.75098,0.01303
2762.69081,0.01295
2760.63064,0.01310
2758.57046,0.01318
2756.51029,0.01318
2754.45012,0.01317
2752.38995,0.01303
2750.32978,0.01272
2748.26960,0.01248
2746.20943,0.01249
2744.14926,0.01252
2742.08909,0.01236
2740.02892,0.01217
2737.96874,0.01213
2735.90857,0.01215
2733.84840,0.01213
2731.78823,0.01206
2729.72805,0.01190
2727.66788,0.01170
2725.60771,0.01157
2723.54754,0.01144
2721.48737,0.01131
2719.42719,0.01130
2717.36702,0.01137
2715.30685,0.01139
2713.24668,0.01130
2711.18651,0.01109
2709.12633,0.01086
2707.06616,0.01079
2705.00599,0.01071
2702.94582,0.01053
2700.88565,0.01042
2698.82547,0.01040
2696.76530,0.01037
2694.70513,0.01031
2692.64496,0.01023
2690.58478,0.01008
2688.52461,0.00987
2686.46444,0.00966
2684.40427,0.00960
2682.34410,0.00966
2680.28392,0.00977
2678.22375,0.00982
2676.16358,0.00969
2674.10341,0.00936
2672.04324,0.00910
2669.98306,0.00920
2667.92289,0.00942
2665.86272,0.00946
2663.80255,0.00929
2661.74238,0.00902
2659.68220,0.00881
2657.62203,0.00889
2655.56186,0.00909
2653.50169,0.00905
2651.44151,0.00890
2649.38134,0.00881
2647.32117,0.00866
2645.26100,0.00846
2643.20083,0.00846
2641.14065,0.00866
2639.08048,0.00876
2637.02031,0.00858
2634.96014,0.00817
2632.89997,0.00788
2630.83979,0.00796
2628.77962,0.00814
2626.71945,0.00809
2624.65928,0.00791
2622.59910,0.00773
2620.53893,0.00753
2618.47876,0.00745
2616.41859,0.00757
2614.35842,0.00785
2612.29824,0.00805
2610.23807,0.00793
2608.17790,0.00767
2606.11773,0.00744
2604.05756,0.00730
2601.99738,0.00717
2599.93721,0.00694
2597.87704,0.00680
2595.81687,0.00675
2593.75670,0.00661
2591.69652,0.00656
2589.63635,0.00676
2587.57618,0.00709
2585.51601,0.00716
2583.45583,0.00687
2581.39566,0.00666
2579.33549,0.00661
2577.27532,0.00652
2575.21515,0.00655
2573.15497,0.00686
2571.09480,0.00712
2569.03463,0.00710
2566.97446,0.00704
2564.91429,0.00709
2562.85411,0.00712
2560.79394,0.00718
2558.73377,0.00720
2556.67360,0.00701
2554.61342,0.00669
2552.55325,0.00638
2550.49308,0.00619
2548.43291,0.00636
2546.37274,0.00679
2544.31256,0.00695
2542.25239,0.00672
2540.19222,0.00648
2538.13205,0.00655
2536.07188,0.00687
2534.01170,0.00710
2531.95153,0.00715
2529.89136,0.00711
2527.83119,0.00699
2525.77102,0.00689
2523.71084,0.00697
2521.65067,0.00705
2519.59050,0.00690
2517.53033,0.00665
2515.47015,0.00663
2513.40998,0.00683
2511.34981,0.00688
2509.28964,0.00663
2507.22947,0.00637
2505.16929,0.00652
2503.10912,0.00676
2501.04895,0.00680
2498.98878,0.00686
2496.92861,0.00703
2494.86843,0.00713
2492.80826,0.00699
2490.74809,0.00696
2488.68792,0.00725
2486.62775,0.00731
2484.56757,0.00705
2482.50740,0.00686
2480.44723,0.00680
2478.38706,0.00686
2476.32688,0.00705
2474.26671,0.00720
2472.20654,0.00722
2470.14637,0.00728
2468.08620,0.00734
2466.02602,0.00724
2463.96585,0.00722
2461.90568,0.00753
2459.84551,0.00789
2457.78534,0.00794
2455.72516,0.00761
2453.66499,0.00721
2451.60482,0.00721
2449.54465,0.00748
2447.48447,0.00765
2445.42430,0.00768
2443.36413,0.00742
2441.30396,0.00718
2439.24379,0.00733
2437.18361,0.00747
2435.12344,0.00732
2433.06327,0.00720
2431.00310,0.00725
2428.94293,0.00722
2426.88275,0.00707
2424.82258,0.00716
2422.76241,0.00761
2420.70224,0.00794
2418.64207,0.00798
2416.58189,0.00775
2414.52172,0.00744
2412.46155,0.00744
2410.40138,0.00768
2408.34120,0.00772
2406.28103,0.00746
2404.22086,0.00719
2402.16069,0.00701
2400.10052,0.00697
2398.04034,0.00712
2395.98017,0.00739
2393.92000,0.00745
2391.85983,0.00726
2389.79966,0.00720
2387.73948,0.00737
2385.67931,0.00753
2383.61914,0.00757
2381.55897,0.00747
2379.49880,0.00719
2377.43862,0.00675
2375.37845,0.00639
2373.31828,0.00672
2371.25811,0.00761
2369.19793,0.00805
2367.13776,0.00821
2365.07759,0.00854
2363.01742,0.00822
2360.95725,0.00770
2358.89707,0.00658
2356.83690,0.00554
2354.77673,0.00547
2352.71656,0.00612
2350.65639,0.00722
2348.59621,0.00773
2346.53604,0.00658
2344.47587,0.00607
2342.41570,0.00610
2340.35552,0.00664
2338.29535,0.00759
2336.23518,0.00803
2334.17501,0.00791
2332.11484,0.00766
2330.05466,0.00770
2327.99449,0.00767
2325.93432,0.00760
2323.87415,0.00730
2321.81398,0.00725
2319.75380,0.00724
2317.69363,0.00717
2315.63346,0.00698
2313.57329,0.00700
2311.51312,0.00714
2309.45294,0.00725
2307.39277,0.00739
2305.33260,0.00744
2303.27243,0.00739
2301.21225,0.00738
2299.15208,0.00766
2297.09191,0.00801
2295.03174,0.00792
2292.97157,0.00735
2290.91139,0.00689
2288.85122,0.00696
2286.79105,0.00718
2284.73088,0.00692
2282.67071,0.00618
2280.61053,0.00557
2278.55036,0.00535
2276.49019,0.00546
2274.43002,0.00612
2272.36984,0.00691
2270.30967,0.00681
2268.24950,0.00582
2266.18933,0.00521
2264.12916,0.00559
2262.06898,0.00616
2260.00881,0.00640
2257.94864,0.00674
2255.88847,0.00706
2253.82830,0.00668
2251.76812,0.00571
2249.70795,0.00534
2247.64778,0.00616
2245.58761,0.00691
2243.52744,0.00675
2241.46726,0.00636
2239.40709,0.00646
2237.34692,0.00686
2235.28675,0.00726
2233.22657,0.00730
2231.16640,0.00671
2229.10623,0.00586
2227.04606,0.00547
2224.98589,0.00581
2222.92571,0.00626
2220.86554,0.00625
2218.80537,0.00595
2216.74520,0.00582
2214.68503,0.00615
2212.62485,0.00646
2210.56468,0.00553
2208.50451,0.00388
2206.44434,0.00353
2204.38417,0.00402
2202.32399,0.00441
2200.26382,0.00552
2198.20365,0.00698
2196.14348,0.00720
2194.08330,0.00588
2192.02313,0.00444
2189.96296,0.00342
2187.90279,0.00293
2185.84262,0.00403
2183.78244,0.00521
2181.72227,0.00462
2179.66210,0.00381
2177.60193,0.00412
2175.54176,0.00508
2173.48158,0.00541
2171.42141,0.00457
2169.36124,0.00354
2167.30107,0.00279
2165.24089,0.00335
2163.18072,0.00516
2161.12055,0.00502
2159.06038,0.00296
2157.00021,0.00124
2154.94003,0.00005
2152.87986,0.00000
2150.81969,0.00103
2148.75952,0.00168
2146.69935,0.00207
2144.63917,0.00328
2142.57900,0.00417
2140.51883,0.00369
2138.45866,0.00269
2136.39849,0.00252
2134.33831,0.00347
2132.27814,0.00408
2130.21797,0.00393
2128.15780,0.00372
2126.09762,0.00362
2124.03745,0.00373
2121.97728,0.00379
2119.91711,0.00369
2117.85694,0.00390
2115.79676,0.00429
2113.73659,0.00468
2111.67642,0.00493
2109.61625,0.00489
2107.55608,0.00460
2105.49590,0.00411
2103.43573,0.00364
2101.37556,0.00353
2099.31539,0.00377
2097.25521,0.00371
2095.19504,0.00334
2093.13487,0.00341
2091.07470,0.00372
2089.01453,0.00375
2086.95435,0.00352
2084.89418,0.00333
2082.83401,0.00318
2080.77384,0.00284
2078.71367,0.00246
2076.65349,0.00218
2074.59332,0.00211
2072.53315,0.00255
2070.47298,0.00322
2068.41281,0.00353
2066.35263,0.00338
2064.29246,0.00296
2062.23229,0.00262
2060.17212,0.00251
2058.11194,0.00262
2056.05177,0.00294
2053.99160,0.00314
2051.93143,0.00325
2049.87126,0.00344
2047.81108,0.00335
2045.75091,0.00307
2043.69074,0.00327
2041.63057,0.00350
2039.57040,0.00325
2037.51022,0.00327
2035.45005,0.00348
2033.38988,0.00338
2031.32971,0.00338
2029.26954,0.00337
2027.20936,0.00302
2025.14919,0.00291
2023.08902,0.00306
2021.02885,0.00238
2018.96867,0.00115
2016.90850,0.00149
2014.84833,0.00305
2012.78816,0.00334
2010.72799,0.00221
2008.66781,0.00125
2006.60764,0.00131
2004.54747,0.00184
2002.48730,0.00232
2000.42713,0.00288
1998.36695,0.00320
1996.30678,0.00315
1994.24661,0.00345
1992.18644,0.00363
1990.12626,0.00240
1988.06609,0.00065
1986.00592,0.00000
1983.94575,0.00064
1981.88558,0.00129
1979.82540,0.00106
1977.76523,0.00096
1975.70506,0.00147
1973.64489,0.00174
1971.58472,0.00130
1969.52454,0.00043
1967.46437,0.00004
1965.40420,0.00033
1963.34403,0.00098
1961.28386,0.00164
1959.22368,0.00159
1957.16351,0.00125
1955.10334,0.00111
1953.04317,0.00057
1950.98299,0.00004
1948.92282,0.00056
1946.86265,0.00166
1944.80248,0.00187
1942.74231,0.00106
1940.68213,0.00076
1938.62196,0.00130
1936.56179,0.00142
1934.50162,0.00089
1932.44145,0.00067
1930.38127,0.00119
1928.32110,0.00180
1926.26093,0.00191
1924.20076,0.00164
1922.14059,0.00131
1920.08041,0.00093
1918.02024,0.00060
1915.96007,0.00061
1913.89990,0.00088
1911.83972,0.00127
1909.77955,0.00171
1907.71938,0.00209
1905.65921,0.00220
1903.59904,0.00204
1901.53886,0.00192
1899.47869,0.00189
1897.41852,0.00179
1895.35835,0.00161
1893.29818,0.00146
1891.23800,0.00134
1889.17783,0.00099
1887.11766,0.00055
1885.05749,0.00046
1882.99731,0.00073
1880.93714,0.00090
1878.87697,0.00091
1876.81680,0.00110
1874.75663,0.00147
1872.69645,0.00175
1870.63628,0.00172
1868.57611,0.00140
1866.51594,0.00107
1864.45577,0.00088
1862.39559,0.00077
1860.33542,0.00091
1858.27525,0.00134
1856.21508,0.00165
1854.15491,0.00158
1852.09473,0.00128
1850.03456,0.00104
1847.97439,0.00113
1845.91422,0.00150
1843.85404,0.00164
1841.79387,0.00149
1839.73370,0.00141
1837.67353,0.00142
1835.61336,0.00134
1833.55318,0.00120
1831.49301,0.00106
1829.43284,0.00109
1827.37267,0.00133
1825.31250,0.00150
1823.25232,0.00155
1821.19215,0.00152
1819.13198,0.00139
1817.07181,0.00123
1815.01163,0.00102
1812.95146,0.00085
1810.89129,0.00091
1808.83112,0.00117
1806.77095,0.00136
1804.71077,0.00136
1802.65060,0.00127
1800.59043,0.00124
1798.53026,0.00126
1796.47009,0.00134
1794.40991,0.00150
1792.34974,0.00164
1790.28957,0.00163
1788.22940,0.00158
1786.16923,0.00165
1784.10905,0.00174
1782.04888,0.00168
1779.98871,0.00155
1777.92854,0.00152
1775.86836,0.00160
1773.80819,0.00168
1771.74802,0.00170
1769.68785,0.00181
1767.62768,0.00200
1765.56750,0.00209
1763.50733,0.00203
1761.44716,0.00204
1759.38699,0.00240
1757.32682,0.00301
1755.26664,0.00343
1753.20647,0.00350
1751.14630,0.00355
1749.08613,0.00380
1747.02596,0.00405
1744.96578,0.00418
1742.90561,0.00428
1740.84544,0.00432
1738.78527,0.00423
1736.72509,0.00411
1734.66492,0.00414
1732.60475,0.00436
1730.54458,0.00463
1728.48441,0.00488
1726.42423,0.00501
1724.36406,0.00497
1722.30389,0.00481
1720.24372,0.00467
1718.18355,0.00472
1716.12337,0.00499
1714.06320,0.00529
1712.00303,0.00553
1709.94286,0.00576
1707.88268,0.00602
1705.82251,0.00639
1703.76234,0.00676
1701.70217,0.00710
1699.64200,0.00749
1697.58182,0.00787
1695.52165,0.00817
1693.46148,0.00854
1691.40131,0.00892
1689.34114,0.00929
1687.28096,0.00973
1685.22079,0.01037
1683.16062,0.01117
1681.10045,0.01186
1679.04028,0.01241
1676.98010,0.01291
1674.91993,0.01353
1672.85976,0.01427
1670.79959,0.01509
1668.73941,0.01593
1666.67924,0.01643
1664.61907,0.01663
1662.55890,0.01693
1660.49873,0.01739
1658.43855,0.01777
1656.37838,0.01799
1654.31821,0.01820
1652.25804,0.01857
1650.19787,0.01875
1648.13769,0.01857
1646.07752,0.01845
1644.01735,0.01855
1641.95718,0.01856
1639.89701,0.01842
1637.83683,0.01833
1635.77666,0.01822
1633.71649,0.01791
1631.65632,0.01750
1629.59614,0.01706
1627.53597,0.01663
1625.47580,0.01632
1623.41563,0.01611
1621.35546,0.01592
1619.29528,0.01572
1617.23511,0.01542
1615.17494,0.01497
1613.11477,0.01449
1611.05460,0.01418
1608.99442,0.01408
1606.93425,0.01395
1604.87408,0.01367
1602.81391,0.01335
1600.75373,0.01305
1598.69356,0.01280
1596.63339,0.01263
1594.57322,0.01245
1592.51305,0.01218
1590.45287,0.01183
1588.39270,0.01149
1586.33253,0.01123
1584.27236,0.01104
1582.21219,0.01090
1580.15201,0.01076
1578.09184,0.01058
1576.03167,0.01035
1573.97150,0.01015
1571.91133,0.00997
1569.85115,0.00981
1567.79098,0.00966
1565.73081,0.00947
1563.67064,0.00931
1561.61046,0.00928
1559.55029,0.00944
1557.49012,0.00959
1555.42995,0.00947
1553.36978,0.00929
1551.30960,0.00905
1549.24943,0.00873
1547.18926,0.00847
1545.12909,0.00843
1543.06892,0.00858
1541.00874,0.00856
1538.94857,0.00801
1536.88840,0.00746
1534.82823,0.00725
1532.76805,0.00714
1530.70788,0.00697
1528.64771,0.00690
1526.58754,0.00696
1524.52737,0.00700
1522.46719,0.00686
1520.40702,0.00657
1518.34685,0.00627
1516.28668,0.00597
1514.22651,0.00564
1512.16633,0.00535
1510.10616,0.00516
1508.04599,0.00507
1505.98582,0.00488
1503.92565,0.00457
1501.86547,0.00427
1499.80530,0.00404
1497.74513,0.00389
1495.68496,0.00373
1493.62478,0.00359
1491.56461,0.00358
1489.50444,0.00363
1487.44427,0.00359
1485.38410,0.00346
1483.32392,0.00332
1481.26375,0.00324
1479.20358,0.00320
1477.14341,0.00320
1475.08324,0.00335
1473.02306,0.00372
1470.96289,0.00396
1468.90272,0.00391
1466.84255,0.00386
1464.78238,0.00402
1462.72220,0.00419
1460.66203,0.00410
1458.60186,0.00385
1456.54169,0.00380
1454.48151,0.00400
1452.42134,0.00417
1450.36117,0.00424
1448.30100,0.00428
1446.24083,0.00424
1444.18065,0.00416
1442.12048,0.00416
1440.06031,0.00424
1438.00014,0.00437
1435.93997,0.00442
1433.87979,0.00433
1431.81962,0.00428
1429.75945,0.00432
1427.69928,0.00437
1425.63910,0.00442
1423.57893,0.00449
1421.51876,0.00458
1419.45859,0.00489
1417.39842,0.00537
1415.33824,0.00570
1413.27807,0.00579
1411.21790,0.00570
1409.15773,0.00552
1407.09756,0.00536
1405.03738,0.00530
1402.97721,0.00530
1400.91704,0.00523
1398.85687,0.00501
1396.79670,0.00464
1394.73652,0.00435
1392.67635,0.00427
1390.61618,0.00426
1388.55601,0.00426
1386.49583,0.00425
1384.43566,0.00416
1382.37549,0.00409
1380.31532,0.00409
1378.25515,0.00400
1376.19497,0.00380
1374.13480,0.00367
1372.07463,0.00362
1370.01446,0.00358
1367.95429,0.00359
1365.89411,0.00359
1363.83394,0.00346
1361.77377,0.00329
1359.71360,0.00323
1357.65343,0.00323
1355.59325,0.00319
1353.53308,0.00307
1351.47291,0.00287
1349.41274,0.00262
1347.35256,0.00242
1345.29239,0.00228
1343.23222,0.00226
1341.17205,0.00237
1339.11188,0.00246
1337.05170,0.00249
1334.99153,0.00256
1332.93136,0.00262
1330.87119,0.00257
1328.81102,0.00249
1326.75084,0.00246
1324.69067,0.00249
1322.63050,0.00253
1320.57033,0.00251
1318.51015,0.00247
1316.44998,0.00257
1314.38981,0.00269
1312.32964,0.00268
1310.26947,0.00256
1308.20929,0.00247
1306.14912,0.00246
1304.08895,0.00258
1302.02878,0.00279
1299.96861,0.00297
1297.90843,0.00306
1295.84826,0.00313
1293.78809,0.00324
1291.72792,0.00342
1289.66775,0.00353
1287.60757,0.00351
1285.54740,0.00345
1283.48723,0.00347
1281.42706,0.00360
1279.36688,0.00369
1277.30671,0.00359
1275.24654,0.00349
1273.18637,0.00357
1271.12620,0.00363
1269.06602,0.00358
1267.00585,0.00348
1264.94568,0.00341
1262.88551,0.00347
1260.82534,0.00365
1258.76516,0.00378
1256.70499,0.00380
1254.64482,0.00377
1252.58465,0.00374
1250.52447,0.00369
1248.46430,0.00360
1246.40413,0.00354
1244.34396,0.00357
1242.28379,0.00361
1240.22361,0.00357
1238.16344,0.00345
1236.10327,0.00335
1234.04310,0.00321
1231.98293,0.00297
1229.92275,0.00273
1227.86258,0.00262
1225.80241,0.00261
1223.74224,0.00248
1221.68207,0.00226
1219.62189,0.00206
1217.56172,0.00179
1215.50155,0.00146
1213.44138,0.00122
1211.38120,0.00113
1209.32103,0.00103
1207.26086,0.00078
1205.20069,0.00049
1203.14052,0.00039
1201.08034,0.00039
1199.02017,0.00031
1196.96000,0.00039
1194.89983,0.00053
1192.83966,0.00048
1190.77948,0.00041
1188.71931,0.00031
1186.65914,0.00009
1184.59897,0.00000
1182.53880,0.00015
1180.47862,0.00034
1178.41845,0.00043
1176.35828,0.00061
1174.29811,0.00091
1172.23793,0.00124
1170.17776,0.00156
1168.11759,0.00180
1166.05742,0.00202
1163.99725,0.00235
1161.93707,0.00278
1159.87690,0.00319
1157.81673,0.00352
1155.75656,0.00387
1153.69639,0.00433
1151.63621,0.00482
1149.57604,0.00530
1147.51587,0.00582
1145.45570,0.00636
1143.39552,0.00690
1141.33535,0.00748
1139.27518,0.00816
1137.21501,0.00891
1135.15484,0.00969
1133.09466,0.01049
1131.03449,0.01126
1128.97432,0.01202
1126.91415,0.01288
1124.85398,0.01390
1122.79380,0.01510
1120.73363,0.01641
1118.67346,0.01772
1116.61329,0.01902
1114.55312,0.02025
1112.49294,0.02140
1110.43277,0.02256
1108.37260,0.02373
1106.31243,0.02486
1104.25225,0.02589
1102.19208,0.02679
1100.13191,0.02776
1098.07174,0.02890
1096.01157,0.02995
1093.95139,0.03080
1091.89122,0.03161
1089.83105,0.03238
1087.77088,0.03305
1085.71071,0.03375
1083.65053,0.03458
1081.59036,0.03541
1079.53019,0.03611
1077.47002,0.03672
1075.40985,0.03728
1073.34967,0.03780
1071.28950,0.03825
1069.22933,0.03862
1067.16916,0.03886
1065.10898,0.03879
1063.04881,0.03850
1060.98864,0.03835
1058.92847,0.03825
1056.86830,0.03789
1054.80812,0.03733
1052.74795,0.03667
1050.68778,0.03586
1048.62761,0.03482
1046.56744,0.03347
1044.50726,0.03202
1042.44709,0.03068
1040.38692,0.02923
1038.32675,0.02760
1036.26657,0.02608
1034.20640,0.02463
1032.14623,0.02329
1030.08606,0.02220
1028.02589,0.02118
1025.96571,0.02012
1023.90554,0.01916
1021.84537,0.01836
1019.78520,0.01766
1017.72503,0.01719
1015.66485,0.01690
1013.60468,0.01652
1011.54451,0.01609
1009.48434,0.01590
1007.42417,0.01595
1005.36399,0.01613
1003.30382,0.01656
1001.24365,0.01735
999.18348,0.01828
997.12330,0.01922
995.06313,0.02023
993.00296,0.02102
990.94279,0.02145
988.88262,0.02203
986.82244,0.02297
984.76227,0.02372
982.70210,0.02410
980.64193,0.02433
978.58176,0.02438
976.52158,0.02418
974.46141,0.02368
972.40124,0.02297
970.34107,0.02212
968.28089,0.02105
966.22072,0.01993
964.16055,0.01886
962.10038,0.01770
960.04021,0.01651
957.98003,0.01532
955.91986,0.01412
953.85969,0.01296
951.79952,0.01186
949.73935,0.01080
947.67917,0.00981
945.61900,0.00894
943.55883,0.00821
941.49866,0.00759
939.43849,0.00690
937.37831,0.00611
935.31814,0.00551
933.25797,0.00508
931.19780,0.00453
929.13762,0.00398
927.07745,0.00365
925.01728,0.00345
922.95711,0.00313
920.89694,0.00291
918.83676,0.00291
916.77659,0.00270
914.71642,0.00224
912.65625,0.00185
910.59608,0.00148
908.53590,0.00120
906.47573,0.00122
904.41556,0.00149
902.35539,0.00181
900.29522,0.00207
898.23504,0.00205
896.17487,0.00179
894.11470,0.00197
892.05453,0.00267
889.99435,0.00321
887.93418,0.00336
885.87401,0.00356
883.81384,0.00408
881.75367,0.00470
879.69349,0.00511
877.63332,0.00524
875.57315,0.00546
873.51298,0.00593
871.45281,0.00647
869.39263,0.00705
867.33246,0.00763
865.27229,0.00826
863.21212,0.00874
861.15194,0.00876
859.09177,0.00858
857.03160,0.00867
854.97143,0.00883
852.91126,0.00859
850.85108,0.00826
848.79091,0.00819
846.73074,0.00807
844.67057,0.00770
842.61040,0.00731
840.55022,0.00713
838.49005,0.00700
836.42988,0.00665
834.36971,0.00620
832.30954,0.00581
830.24936,0.00543
828.18919,0.00520
826.12902,0.00518
824.06885,0.00495
822.00867,0.00446
819.94850,0.00397
817.88833,0.00341
815.82816,0.00281
813.76799,0.00240
811.70781,0.00230
809.64764,0.00238
807.58747,0.00250
805.52730,0.00255
803.46713,0.00233
801.40695,0.00206
799.34678,0.00205
797.28661,0.00182
795.22644,0.00116
793.16627,0.00079
791.10609,0.00097
789.04592,0.00123
786.98575,0.00135
784.92558,0.00140
782.86540,0.00164
780.80523,0.00209
778.74506,0.00222
776.68489,0.00178
774.62472,0.00113
772.56454,0.00076
770.50437,0.00091
768.44420,0.00126
766.38403,0.00135
764.32386,0.00122
762.26368,0.00078
760.20351,0.00013
758.14334,-0.00006
756.08317,0.00039
754.02299,0.00109
751.96282,0.00152
749.90265,0.00153
747.84248,0.00151
745.78231,0.00160
743.72213,0.00184
741.66196,0.00192
739.60179,0.00147
737.54162,0.00117
735.48145,0.00124
733.42127,0.00109
731.36110,0.00096
729.30093,0.00106
727.24076,0.00107
725.18059,0.00089
723.12041,0.00073
721.06024,0.00027
719.00007,0.00000
716.93990,0.00005
714.87972,0.00056
712.81955,0.00119
710.75938,0.00122
708.69921,0.00066
706.63904,0.00036
704.57886,0.00070
702.51869,0.00104
700.45852,0.00105
698.39835,0.00110
696.33818,0.00154
694.27800,0.00217
692.21783,0.00246
690.15766,0.00208
688.09749,0.00155
686.03731,0.00153
683.97714,0.00167
681.91697,0.00164
679.85680,0.00153
677.79663,0.00129
675.73645,0.00115
673.67628,0.00171
671.61611,0.00295
669.55594,0.00262
667.49577,0.00176
665.43559,0.00389
663.37542,0.00315
661.31525,0.00256
659.25508,0.00286
657.19491,0.00307
655.13473,0.00294
653.07456,0.00285
651.01439,0.00300
648.95422,0.00332
646.89404,0.00324
644.83387,0.00221
642.77370,0.00131
640.71353,0.00114
638.65336,0.00068
636.59318,0.00000
634.53301,0.00034
632.47284,0.00109
630.41267,0.00053
628.35250,-0.00070
626.29232,-0.00099
624.23215,-0.00080
622.17198,0.00015
620.11181,0.00120
618.05164,0.00117
615.99146,0.00052
613.93129,-0.00075
611.87112,-0.00075
609.81095,0.00117
607.75077,0.00175
605.69060,-0.00011
603.63043,-0.00102
601.57026,0.00002
599.51009,0.00000
