3996.73391,0.00068
3994.67373,0.00079
3992.61356,0.00078
3990.55339,0.00083
3988.49322,0.00093
3986.43305,0.00080
3984.37287,0.00046
3982.31270,0.00028
3980.25253,0.00025
3978.19236,0.00010
3976.13219,0.00002
3974.07201,0.00018
3972.01184,0.00037
3969.95167,0.00043
3967.89150,0.00048
3965.83133,0.00051
3963.77115,0.00044
3961.71098,0.00024
3959.65081,0.00004
3957.59064,0.00000
3955.53046,0.00019
3953.47029,0.00049
3951.41012,0.00065
3949.34995,0.00064
3947.28978,0.00060
3945.22960,0.00068
3943.16943,0.00083
3941.10926,0.00086
3939.04909,0.00073
3936.98892,0.00059
3934.92874,0.00041
3932.86857,0.00027
3930.80840,0.00041
3928.74823,0.00071
3926.68805,0.00089
3924.62788,0.00087
3922.56771,0.00071
3920.50754,0.00050
3918.44737,0.00035
3916.38719,0.00042
3914.32702,0.00070
3912.26685,0.00100
3910.20668,0.00111
3908.14651,0.00088
3906.08633,0.00042
3904.02616,0.00005
3901.96599,0.00007
3899.90582,0.00038
3897.84565,0.00053
3895.78547,0.00043
3893.72530,0.00058
3891.66513,0.00104
3889.60496,0.00108
3887.54478,0.00056
3885.48461,0.00018
3883.42444,0.00024
3881.36427,0.00043
3879.30410,0.00058
3877.24392,0.00060
3875.18375,0.00053
3873.12358,0.00068
3871.06341,0.00111
3869.00324,0.00140
3866.94306,0.00125
3864.88289,0.00093
3862.82272,0.00074
3860.76255,0.00071
3858.70237,0.00061
3856.64220,0.00048
3854.58203,0.00064
3852.52186,0.00098
3850.46169,0.00091
3848.40151,0.00067
3846.34134,0.00066
3844.28117,0.00065
3842.22100,0.00044
3840.16083,0.00028
3838.10065,0.00028
3836.04048,0.00027
3833.98031,0.00032
3831.92014,0.00047
3829.85997,0.00044
3827.79979,0.00018
3825.73962,0.00000
3823.67945,0.00000
3821.61928,0.00018
3819.55910,0.00048
3817.49893,0.00061
3815.43876,0.00076
3813.37859,0.00091
3811.31842,0.00084
3809.25824,0.00076
3807.19807,0.00073
3805.13790,0.00046
3803.07773,0.00033
3801.01756,0.00088
3798.95738,0.00154
3796.89721,0.00165
3794.83704,0.00144
3792.77687,0.00113
3790.71670,0.00080
3788.65652,0.00067
3786.59635,0.00095
3784.53618,0.00145
3782.47601,0.00175
3780.41583,0.00172
3778.35566,0.00135
3776.29549,0.00087
3774.23532,0.00073
3772.17515,0.00105
3770.11497,0.00143
3768.05480,0.00140
3765.99463,0.00118
3763.93446,0.00114
3761.87429,0.00112
3759.81411,0.00102
3757.75394,0.00100
3755.69377,0.00103
3753.63360,0.00123
3751.57342,0.00167
3749.51325,0.00176
3747.45308,0.00121
3745.39291,0.00053
3743.33274,0.00019
3741.27256,0.00014
3739.21239,0.00019
3737.15222,0.00045
3735.09205,0.00087
3733.03188,0.00114
3730.97170,0.00121
3728.91153,0.00117
3726.85136,0.00100
3724.79119,0.00071
3722.73102,0.00057
3720.67084,0.00078
3718.61067,0.00113
3716.55050,0.00119
3714.49033,0.00083
3712.43015,0.00057
3710.36998,0.00090
3708.30981,0.00130
3706.24964,0.00122
3704.18947,0.00098
3702.12929,0.00099
3700.06912,0.00123
3698.00895,0.00152
3695.94878,0.00177
3693.88861,0.00180
3691.82843,0.00160
3689.76826,0.00141
3687.70809,0.00142
3685.64792,0.00146
3683.58775,0.00142
3681.52757,0.00141
3679.46740,0.00147
3677.40723,0.00168
3675.34706,0.00194
3673.28688,0.00189
3671.22671,0.00182
3669.16654,0.00229
3667.10637,0.00284
3665.04620,0.00291
3662.98602,0.00275
3660.92585,0.00260
3658.86568,0.00243
3656.80551,0.00248
3654.74534,0.00288
3652.68516,0.00346
3650.62499,0.00413
3648.56482,0.00470
3646.50465,0.00495
3644.44447,0.00494
3642.38430,0.00485
3640.32413,0.00480
3638.26396,0.00484
3636.20379,0.00503
3634.14361,0.00529
3632.08344,0.00562
3630.02327,0.00607
3627.96310,0.00660
3625.90293,0.00699
3623.84275,0.00720
3621.78258,0.00732
3619.72241,0.00737
3617.66224,0.00738
3615.60207,0.00737
3613.54189,0.00757
3611.48172,0.00799
3609.42155,0.00849
3607.36138,0.00900
3605.30120,0.00928
3603.24103,0.00945
3601.18086,0.00995
3599.12069,0.01076
3597.06052,0.01134
3595.00034,0.01159
3592.94017,0.01172
3590.88000,0.01172
3588.81983,0.01169
3586.75966,0.01186
3584.69948,0.01218
3582.63931,0.01261
3580.57914,0.01306
3578.51897,0.01329
3576.45879,0.01329
3574.39862,0.01341
3572.33845,0.01368
3570.27828,0.01394
3568.21811,0.01435
3566.15793,0.01490
3564.09776,0.01522
3562.03759,0.01537
3559.97742,0.01563
3557.91725,0.01593
3555.85707,0.01612
3553.79690,0.01636
3551.73673,0.01672
3549.67656,0.01694
3547.61639,0.01700
3545.55621,0.01727
3543.49604,0.01770
3541.43587,0.01810
3539.37570,0.01853
3537.31552,0.01891
3535.25535,0.01918
3533.19518,0.01942
3531.13501,0.01968
3529.07484,0.01990
3527.01466,0.02009
3524.95449,0.02030
3522.89432,0.02051
3520.83415,0.02076
3518.77398,0.02102
3516.71380,0.02119
3514.65363,0.02127
3512.59346,0.02156
3510.53329,0.02216
3508.47312,0.02277
3506.41294,0.02316
3504.35277,0.02343
3502.29260,0.02371
3500.23243,0.02402
3498.17225,0.02440
3496.11208,0.02474
3494.05191,0.02490
3491.99174,0.02485
3489.93157,0.02483
3487.87139,0.02514
3485.81122,0.02564
3483.75105,0.02598
3481.69088,0.02610
3479.63071,0.02606
3477.57053,0.02596
3475.51036,0.02604
3473.45019,0.02633
3471.39002,0.02670
3469.32984,0.02705
3467.26967,0.02735
3465.20950,0.02759
3463.14933,0.02784
3461.08916,0.02810
3459.02898,0.02832
3456.96881,0.02858
3454.90864,0.02907
3452.84847,0.02954
3450.78830,0.02968
3448.72812,0.02966
3446.66795,0.02972
3444.60778,0.02982
3442.54761,0.02996
3440.48744,0.03006
3438.42726,0.03023
3436.36709,0.03064
3434.30692,0.03109
3432.24675,0.03134
3430.18657,0.03137
3428.12640,0.03123
3426.06623,0.03119
3424.00606,0.03140
3421.94589,0.03164
3419.88571,0.03179
3417.82554,0.03193
3415.76537,0.03222
3413.70520,0.03265
3411.64503,0.03297
3409.58485,0.03301
3407.52468,0.03284
3405.46451,0.03278
3403.40434,0.03292
3401.34416,0.03307
3399.28399,0.03312
3397.22382,0.03327
3395.16365,0.03350
3393.10348,0.03381
3391.04330,0.03406
3388.98313,0.03412
3386.92296,0.03422
3384.86279,0.03450
3382.80262,0.03466
3380.74244,0.03470
3378.68227,0.03478
3376.62210,0.03485
3374.56193,0.03489
3372.50176,0.03498
3370.44158,0.03504
3368.38141,0.03507
3366.32124,0.03521
3364.26107,0.03538
3362.20089,0.03539
3360.14072,0.03540
3358.08055,0.03557
3356.02038,0.03567
3353.96021,0.03559
3351.90003,0.03559
3349.83986,0.03572
3347.77969,0.03588
3345.71952,0.03613
3343.65935,0.03635
3341.59917,0.03637
3339.53900,0.03627
3337.47883,0.03620
3335.41866,0.03619
3333.35849,0.03627
3331.29831,0.03634
3329.23814,0.03631
3327.17797,0.03630
3325.11780,0.03632
3323.05762,0.03631
3320.99745,0.03636
3318.93728,0.03654
3316.87711,0.03665
3314.81694,0.03662
3312.75676,0.03662
3310.69659,0.03673
3308.63642,0.03683
3306.57625,0.03684
3304.51608,0.03691
3302.45590,0.03707
3300.39573,0.03708
3298.33556,0.03699
3296.27539,0.03705
3294.21521,0.03722
3292.15504,0.03727
3290.09487,0.03719
3288.03470,0.03719
3285.97453,0.03729
3283.91435,0.03730
3281.85418,0.03725
3279.79401,0.03720
3277.73384,0.03713
3275.67367,0.03716
3273.61349,0.03729
3271.55332,0.03743
3269.49315,0.03753
3267.43298,0.03750
3265.37281,0.03729
3263.31263,0.03713
3261.25246,0.03716
3259.19229,0.03714
3257.13212,0.03704
3255.07194,0.03718
3253.01177,0.03752
3250.95160,0.03775
3248.89143,0.03768
3246.83126,0.03751
3244.77108,0.03754
3242.71091,0.03762
3240.65074,0.03752
3238.59057,0.03743
3236.53040,0.03752
3234.47022,0.03763
3232.41005,0.03758
3230.34988,0.03746
3228.28971,0.03743
3226.22954,0.03742
3224.16936,0.03741
3222.10919,0.03744
3220.04902,0.03744
3217.98885,0.03722
3215.92867,0.03701
3213.86850,0.03709
3211.80833,0.03728
3209.74816,0.03742
3207.68799,0.03736
3205.62781,0.03714
3203.56764,0.03697
3201.50747,0.03686
3199.44730,0.03672
3197.38713,0.03670
3195.32695,0.03686
3193.26678,0.03710
3191.20661,0.03725
3189.14644,0.03716
3187.08626,0.03691
3185.02609,0.03666
3182.96592,0.03654
3180.90575,0.03665
3178.84558,0.03677
3176.78540,0.03672
3174.72523,0.03667
3172.66506,0.03664
3170.60489,0.03644
3168.54472,0.03612
3166.48454,0.03592
3164.42437,0.03583
3162.36420,0.03579
3160.30403,0.03576
3158.24386,0.03557
3156.18368,0.03544
3154.12351,0.03564
3152.06334,0.03578
3150.00317,0.03564
3147.94299,0.03540
3145.88282,0.03527
3143.82265,0.03528
3141.76248,0.03533
3139.70231,0.03536
3137.64213,0.03535
3135.58196,0.03533
3133.52179,0.03534
3131.46162,0.03513
3129.40145,0.03462
3127.34127,0.03425
3125.28110,0.03428
3123.22093,0.03440
3121.16076,0.03435
3119.10058,0.03420
3117.04041,0.03403
3114.98024,0.03385
3112.92007,0.03370
3110.85990,0.03357
3108.79972,0.03344
3106.73955,0.03333
3104.67938,0.03324
3102.61921,0.03315
3100.55904,0.03303
3098.49886,0.03288
3096.43869,0.03278
3094.37852,0.03281
3092.31835,0.03277
3090.25818,0.03247
3088.19800,0.03206
3086.13783,0.03177
3084.07766,0.03165
3082.01749,0.03167
3079.95731,0.03181
3077.89714,0.03197
3075.83697,0.03203
3073.77680,0.03183
3071.71663,0.03148
3069.65645,0.03117
3067.59628,0.03096
3065.53611,0.03084
3063.47594,0.03072
3061.41577,0.03054
3059.35559,0.03043
3057.29542,0.03046
3055.23525,0.03044
3053.17508,0.03030
3051.11491,0.03015
3049.05473,0.03005
3046.99456,0.02992
3044.93439,0.02972
3042.87422,0.02950
3040.81404,0.02933
3038.75387,0.02915
3036.69370,0.02898
3034.63353,0.02892
3032.57336,0.02891
3030.51318,0.02875
3028.45301,0.02848
3026.39284,0.02827
3024.33267,0.02810
3022.27250,0.02797
3020.21232,0.02796
3018.15215,0.02786
3016.09198,0.02755
3014.03181,0.02726
3011.97163,0.02717
3009.91146,0.02712
3007.85129,0.02688
3005.79112,0.02664
3003.73095,0.02657
3001.67077,0.02647
2999.61060,0.02626
2997.55043,0.02607
2995.49026,0.02594
2993.43009,0.02581
2991.36991,0.02582
2989.30974,0.02596
2987.24957,0.02601
2985.18940,0.02579
2983.12923,0.02556
2981.06905,0.02549
2979.00888,0.02541
2976.94871,0.02527
2974.88854,0.02515
2972.82836,0.02502
2970.76819,0.02491
2968.70802,0.02492
2966.64785,0.02499
2964.58768,0.02504
2962.52750,0.02496
2960.46733,0.02474
2958.40716,0.02453
2956.34699,0.02444
2954.28682,0.02454
2952.22664,0.02466
2950.16647,0.02461
2948.10630,0.02452
2946.04613,0.02442
2943.98596,0.02432
2941.92578,0.02434
2939.86561,0.02431
2937.80544,0.02415
2935.74527,0.02400
2933.68509,0.02392
2931.62492,0.02381
2929.56475,0.02369
2927.50458,0.02367
2925.44441,0.02374
2923.38423,0.02377
2921.32406,0.02375
2919.26389,0.02370
2917.20372,0.02353
2915.14355,0.02320
2913.08337,0.02287
2911.02320,0.02266
2908.96303,0.02258
2906.90286,0.02253
2904.84268,0.02242
2902.78251,0.02227
2900.72234,0.02207
2898.66217,0.02187
2896.60200,0.02180
2894.54182,0.02165
2892.48165,0.02127
2890.42148,0.02103
2888.36131,0.02109
2886.30114,0.02116
2884.24096,0.02114
2882.18079,0.02105
2880.12062,0.02088
2878.06045,0.02074
2876.00028,0.02062
2873.94010,0.02046
2871.87993,0.02028
2869.81976,0.02014
2867.75959,0.01997
2865.69941,0.01972
2863.63924,0.01954
2861.57907,0.01953
2859.51890,0.01949
2857.45873,0.01927
2855.39855,0.01900
2853.33838,0.01888
2851.27821,0.01887
2849.21804,0.01886
2847.15787,0.01886
2845.09769,0.01873
2843.03752,0.01847
2840.97735,0.01828
2838.91718,0.01818
2836.85700,0.01800
2834.79683,0.01779
2832.73666,0.01761
2830.67649,0.01743
2828.61632,0.01732
2826.55614,0.01736
2824.49597,0.01740
2822.43580,0.01727
2820.37563,0.01702
2818.31546,0.01683
2816.25528,0.01671
2814.19511,0.01661
2812.13494,0.01656
2810.07477,0.01646
2808.01460,0.01630
2805.95442,0.01620
2803.89425,0.01615
2801.83408,0.01604
2799.77391,0.01584
2797.71373,0.01569
2795.65356,0.01566
2793.59339,0.01572
2791.53322,0.01571
2789.47305,0.01554
2787.41287,0.01529
2785.35270,0.01517
2783.29253,0.01519
2781.23236,0.01515
2779.17219,0.01502
2777.11201,0.01491
2775.05184,0.01477
2772.99167,0.01460
2770.93150,0.01450
2768.87133,0.01446
2766.81115,0.01433
2764.75098,0.01418
2762.69081,0.01411
2760.63064,0.01406
2758.57046,0.01398
2756.51029,0.01394
2754.45012,0.01390
2752.38995,0.01380
2750.32978,0.01374
2748.26960,0.01375
2746.20943,0.01373
2744.14926,0.01363
2742.08909,0.01343
2740.02892,0.01320
2737.96874,0.01318
2735.90857,0.01331
2733.84840,0.01329
2731.78823,0.01314
2729.72805,0.01296
2727.66788,0.01274
2725.60771,0.01256
2723.54754,0.01245
2721.48737,0.01234
2719.42719,0.01229
2717.36702,0.01231
2715.30685,0.01224
2713.24668,0.01214
2711.18651,0.01211
2709.12633,0.01216
2707.06616,0.01223
2705.00599,0.01218
2702.94582,0.01196
2700.88565,0.01169
2698.82547,0.01151
2696.76530,0.01145
2694.70513,0.01154
2692.64496,0.01161
2690.58478,0.01158
2688.52461,0.01152
2686.46444,0.01147
2684.40427,0.01136
2682.34410,0.01123
2680.28392,0.01122
2678.22375,0.01123
2676.16358,0.01114
2674.10341,0.01104
2672.04324,0.01087
2669.98306,0.01072
2667.92289,0.01074
2665.86272,0.01077
2663.80255,0.01068
2661.74238,0.01063
2659.68220,0.01065
2657.62203,0.01064
2655.56186,0.01067
2653.50169,0.01073
2651.44151,0.01061
2649.38134,0.01027
2647.32117,0.01001
2645.26100,0.01000
2643.20083,0.00995
2641.14065,0.00981
2639.08048,0.00980
2637.02031,0.00982
2634.96014,0.00972
2632.89997,0.00963
2630.83979,0.00958
2628.77962,0.00950
2626.71945,0.00934
2624.65928,0.00915
2622.59910,0.00897
2620.53893,0.00872
2618.47876,0.00849
2616.41859,0.00851
2614.35842,0.00860
2612.29824,0.00857
2610.23807,0.00861
2608.17790,0.00875
2606.11773,0.00884
2604.05756,0.00877
2601.99738,0.00854
2599.93721,0.00838
2597.87704,0.00834
2595.81687,0.00832
2593.75670,0.00824
2591.69652,0.00812
2589.63635,0.00801
2587.57618,0.00797
2585.51601,0.00793
2583.45583,0.00781
2581.39566,0.00771
2579.33549,0.00775
2577.27532,0.00795
2575.21515,0.00809
2573.15497,0.00788
2571.09480,0.00753
2569.03463,0.00738
2566.97446,0.00734
2564.91429,0.00737
2562.85411,0.00756
2560.79394,0.00772
2558.73377,0.00769
2556.67360,0.00762
2554.61342,0.00766
2552.55325,0.00792
2550.49308,0.00827
2548.43291,0.00828
2546.37274,0.00808
2544.31256,0.00798
2542.25239,0.00779
2540.19222,0.00759
2538.13205,0.00773
2536.07188,0.00804
2534.01170,0.00812
2531.95153,0.00807
2529.89136,0.00797
2527.83119,0.00781
2525.77102,0.00787
2523.71084,0.00809
2521.65067,0.00818
2519.59050,0.00810
2517.53033,0.00804
2515.47015,0.00814
2513.40998,0.00826
2511.34981,0.00808
2509.28964,0.00780
2507.22947,0.00785
2505.16929,0.00799
2503.10912,0.00782
2501.04895,0.00761
2498.98878,0.00763
2496.92861,0.00776
2494.86843,0.00776
2492.80826,0.00768
2490.74809,0.00780
2488.68792,0.00813
2486.62775,0.00845
2484.56757,0.00854
2482.50740,0.00831
2480.44723,0.00809
2478.38706,0.00799
2476.32688,0.00795
2474.26671,0.00799
2472.20654,0.00805
2470.14637,0.00821
2468.08620,0.00860
2466.02602,0.00893
2463.96585,0.00894
2461.90568,0.00872
2459.84551,0.00856
2457.78534,0.00858
2455.72516,0.00854
2453.66499,0.00847
2451.60482,0.00851
2449.54465,0.00841
2447.48447,0.00808
2445.42430,0.00795
2443.36413,0.00806
2441.30396,0.00816
2439.24379,0.00815
2437.18361,0.00814
2435.12344,0.00828
2433.06327,0.00846
2431.00310,0.00840
2428.94293,0.00815
2426.88275,0.00803
2424.82258,0.00806
2422.76241,0.00804
2420.70224,0.00799
2418.64207,0.00793
2416.58189,0.00800
2414.52172,0.00813
2412.46155,0.00818
2410.40138,0.00828
2408.34120,0.00835
2406.28103,0.00824
2404.22086,0.00812
2402.16069,0.00804
2400.10052,0.00804
2398.04034,0.00796
2395.98017,0.00796
2393.92000,0.00808
2391.85983,0.00819
2389.79966,0.00829
2387.73948,0.00851
2385.67931,0.00870
2383.61914,0.00872
2381.55897,0.00859
2379.49880,0.00828
2377.43862,0.00782
2375.37845,0.00737
2373.31828,0.00715
2371.25811,0.00721
2369.19793,0.00760
2367.13776,0.00862
2365.07759,0.00994
2363.01742,0.01082
2360.95725,0.01133
2358.89707,0.01158
2356.83690,0.01114
2354.77673,0.01011
2352.71656,0.00919
2350.65639,0.00890
2348.59621,0.00894
2346.53604,0.00898
2344.47587,0.00912
2342.41570,0.00965
2340.35552,0.01049
2338.29535,0.01107
2336.23518,0.01118
2334.17501,0.01096
2332.11484,0.01023
2330.05466,0.00926
2327.99449,0.00894
2325.93432,0.00937
2323.87415,0.00977
2321.81398,0.00955
2319.75380,0.00878
2317.69363,0.00808
2315.63346,0.00789
2313.57329,0.00812
2311.51312,0.00842
2309.45294,0.00860
2307.39277,0.00857
2305.33260,0.00832
2303.27243,0.00801
2301.21225,0.00781
2299.15208,0.00785
2297.09191,0.00826
2295.03174,0.00876
2292.97157,0.00890
2290.91139,0.00879
2288.85122,0.00868
2286.79105,0.00845
2284.73088,0.00798
2282.67071,0.00751
2280.61053,0.00733
2278.55036,0.00747
2276.49019,0.00757
2274.43002,0.00733
2272.36984,0.00706
2270.30967,0.00708
2268.24950,0.00718
2266.18933,0.00710
2264.12916,0.00701
2262.06898,0.00696
2260.00881,0.00682
2257.94864,0.00678
2255.88847,0.00688
2253.82830,0.00674
2251.76812,0.00645
2249.70795,0.00634
2247.64778,0.00637
2245.58761,0.00630
2243.52744,0.00621
2241.46726,0.00618
2239.40709,0.00608
2237.34692,0.00598
2235.28675,0.00605
2233.22657,0.00607
2231.16640,0.00602
2229.10623,0.00603
2227.04606,0.00595
2224.98589,0.00577
2222.92571,0.00573
2220.86554,0.00586
2218.80537,0.00596
2216.74520,0.00608
2214.68503,0.00632
2212.62485,0.00631
2210.56468,0.00593
2208.50451,0.00555
2206.44434,0.00526
2204.38417,0.00528
2202.32399,0.00578
2200.26382,0.00604
2198.20365,0.00534
2196.14348,0.00429
2194.08330,0.00418
2192.02313,0.00498
2189.96296,0.00567
2187.90279,0.00562
2185.84262,0.00546
2183.78244,0.00550
2181.72227,0.00503
2179.66210,0.00468
2177.60193,0.00474
2175.54176,0.00473
2173.48158,0.00507
2171.42141,0.00547
2169.36124,0.00546
2167.30107,0.00520
2165.24089,0.00503
2163.18072,0.00471
2161.12055,0.00270
2159.06038,0.00000
2157.00021,0.00031
2154.94003,0.00258
2152.87986,0.00332
2150.81969,0.00249
2148.75952,0.00221
2146.69935,0.00315
2144.63917,0.00407
2142.57900,0.00445
2140.51883,0.00471
2138.45866,0.00450
2136.39849,0.00378
2134.33831,0.00346
2132.27814,0.00392
2130.21797,0.00444
2128.15780,0.00426
2126.09762,0.00374
2124.03745,0.00352
2121.97728,0.00356
2119.91711,0.00378
2117.85694,0.00417
2115.79676,0.00444
2113.73659,0.00469
2111.67642,0.00492
2109.61625,0.00468
2107.55608,0.00424
2105.49590,0.00424
2103.43573,0.00441
2101.37556,0.00429
2099.31539,0.00418
2097.25521,0.00403
2095.19504,0.00395
2093.13487,0.00413
2091.07470,0.00429
2089.01453,0.00420
2086.95435,0.00421
2084.89418,0.00441
2082.83401,0.00431
2080.77384,0.00391
2078.71367,0.00399
2076.65349,0.00434
2074.59332,0.00417
2072.53315,0.00362
2070.47298,0.00335
2068.41281,0.00345
2066.35263,0.00360
2064.29246,0.00385
2062.23229,0.00411
2060.17212,0.00405
2058.11194,0.00392
2056.05177,0.00376
2053.99160,0.00340
2051.93143,0.00331
2049.87126,0.00321
2047.81108,0.00270
2045.75091,0.00222
2043.69074,0.00189
2041.63057,0.00145
2039.57040,0.00113
2037.51022,0.00154
2035.45005,0.00255
2033.38988,0.00317
2031.32971,0.00312
2029.26954,0.00269
2027.20936,0.00175
2025.14919,0.00094
2023.08902,0.00078
2021.02885,0.00074
2018.96867,0.00103
2016.90850,0.00133
2014.84833,0.00124
2012.78816,0.00142
2010.72799,0.00160
2008.66781,0.00131
2006.60764,0.00125
2004.54747,0.00189
2002.48730,0.00244
2000.42713,0.00219
1998.36695,0.00167
1996.30678,0.00149
1994.24661,0.00133
1992.18644,0.00117
1990.12626,0.00154
1988.06609,0.00237
1986.00592,0.00323
1983.94575,0.00395
1981.88558,0.00430
1979.82540,0.00373
1977.76523,0.00274
1975.70506,0.00266
1973.64489,0.00284
1971.58472,0.00196
1969.52454,0.00072
1967.46437,0.00035
1965.40420,0.00041
1963.34403,0.00013
1961.28386,0.00000
1959.22368,0.00045
1957.16351,0.00098
1955.10334,0.00116
1953.04317,0.00117
1950.98299,0.00086
1948.92282,0.00034
1946.86265,0.00040
1944.80248,0.00112
1942.74231,0.00168
1940.68213,0.00156
1938.62196,0.00118
1936.56179,0.00106
1934.50162,0.00115
1932.44145,0.00109
1930.38127,0.00074
1928.32110,0.00052
1926.26093,0.00071
1924.20076,0.00110
1922.14059,0.00140
1920.08041,0.00128
1918.02024,0.00103
1915.96007,0.00126
1913.89990,0.00155
1911.83972,0.00147
1909.77955,0.00118
1907.71938,0.00095
1905.65921,0.00094
1903.59904,0.00102
1901.53886,0.00109
1899.47869,0.00136
1897.41852,0.00169
1895.35835,0.00165
1893.29818,0.00135
1891.23800,0.00116
1889.17783,0.00122
1887.11766,0.00151
1885.05749,0.00171
1882.99731,0.00144
1880.93714,0.00098
1878.87697,0.00093
1876.81680,0.00143
1874.75663,0.00189
1872.69645,0.00180
1870.63628,0.00140
1868.57611,0.00121
1866.51594,0.00128
1864.45577,0.00138
1862.39559,0.00148
1860.33542,0.00145
1858.27525,0.00124
1856.21508,0.00119
1854.15491,0.00144
1852.09473,0.00160
1850.03456,0.00153
1847.97439,0.00145
1845.91422,0.00146
1843.85404,0.00147
1841.79387,0.00143
1839.73370,0.00143
1837.67353,0.00155
1835.61336,0.00171
1833.55318,0.00181
1831.49301,0.00187
1829.43284,0.00193
1827.37267,0.00189
1825.31250,0.00188
1823.25232,0.00199
1821.19215,0.00190
1819.13198,0.00151
1817.07181,0.00119
1815.01163,0.00123
1812.95146,0.00148
1810.89129,0.00167
1808.83112,0.00176
1806.77095,0.00176
1804.71077,0.00165
1802.65060,0.00160
1800.59043,0.00175
1798.53026,0.00196
1796.47009,0.00208
1794.40991,0.00208
1792.34974,0.00201
1790.28957,0.00198
1788.22940,0.00206
1786.16923,0.00212
1784.10905,0.00212
1782.04888,0.00210
1779.98871,0.00203
1777.92854,0.00195
1775.86836,0.00191
1773.80819,0.00196
1771.74802,0.00206
1769.68785,0.00218
1767.62768,0.00232
1765.56750,0.00240
1763.50733,0.00243
1761.44716,0.00251
1759.38699,0.00263
1757.32682,0.00279
1755.26664,0.00305
1753.20647,0.00336
1751.14630,0.00367
1749.08613,0.00383
1747.02596,0.00380
1744.96578,0.00373
1742.90561,0.00373
1740.84544,0.00386
1738.78527,0.00405
1736.72509,0.00416
1734.66492,0.00427
1732.60475,0.00440
1730.54458,0.00448
1728.48441,0.00451
1726.42423,0.00458
1724.36406,0.00469
1722.30389,0.00472
1720.24372,0.00471
1718.18355,0.00489
1716.12337,0.00520
1714.06320,0.00539
1712.00303,0.00552
1709.94286,0.00572
1707.88268,0.00592
1705.82251,0.00611
1703.76234,0.00630
1701.70217,0.00658
1699.64200,0.00707
1697.58182,0.00768
1695.52165,0.00826
1693.46148,0.00868
1691.40131,0.00895
1689.34114,0.00925
1687.28096,0.00960
1685.22079,0.01015
1683.16062,0.01106
1681.10045,0.01194
1679.04028,0.01250
1676.98010,0.01293
1674.91993,0.01354
1672.85976,0.01433
1670.79959,0.01516
1668.73941,0.01586
1666.67924,0.01620
1664.61907,0.01642
1662.55890,0.01679
1660.49873,0.01719
1658.43855,0.01746
1656.37838,0.01763
1654.31821,0.01781
1652.25804,0.01800
1650.19787,0.01806
1648.13769,0.01803
1646.07752,0.01809
1644.01735,0.01811
1641.95718,0.01793
1639.89701,0.01769
1637.83683,0.01751
1635.77666,0.01728
1633.71649,0.01685
1631.65632,0.01635
1629.59614,0.01603
1627.53597,0.01593
1625.47580,0.01588
1623.41563,0.01563
1621.35546,0.01520
1619.29528,0.01481
1617.23511,0.01451
1615.17494,0.01411
1613.11477,0.01367
1611.05460,0.01343
1608.99442,0.01340
1606.93425,0.01341
1604.87408,0.01330
1602.81391,0.01304
1600.75373,0.01270
1598.69356,0.01238
1596.63339,0.01214
1594.57322,0.01193
1592.51305,0.01167
1590.45287,0.01135
1588.39270,0.01109
1586.33253,0.01093
1584.27236,0.01074
1582.21219,0.01045
1580.15201,0.01013
1578.09184,0.00985
1576.03167,0.00967
1573.97150,0.00950
1571.91133,0.00929
1569.85115,0.00916
1567.79098,0.00909
1565.73081,0.00896
1563.67064,0.00875
1561.61046,0.00861
1559.55029,0.00867
1557.49012,0.00857
1555.42995,0.00823
1553.36978,0.00799
1551.30960,0.00790
1549.24943,0.00781
1547.18926,0.00762
1545.12909,0.00736
1543.06892,0.00721
1541.00874,0.00722
1538.94857,0.00713
1536.88840,0.00688
1534.82823,0.00667
1532.76805,0.00650
1530.70788,0.00627
1528.64771,0.00603
1526.58754,0.00582
1524.52737,0.00563
1522.46719,0.00540
1520.40702,0.00518
1518.34685,0.00512
1516.28668,0.00515
1514.22651,0.00506
1512.16633,0.00486
1510.10616,0.00468
1508.04599,0.00454
1505.98582,0.00438
1503.92565,0.00414
1501.86547,0.00396
1499.80530,0.00395
1497.74513,0.00402
1495.68496,0.00397
1493.62478,0.00377
1491.56461,0.00357
1489.50444,0.00355
1487.44427,0.00361
1485.38410,0.00350
1483.32392,0.00331
1481.26375,0.00321
1479.20358,0.00319
1477.14341,0.00317
1475.08324,0.00322
1473.02306,0.00337
1470.96289,0.00354
1468.90272,0.00362
1466.84255,0.00376
1464.78238,0.00401
1462.72220,0.00415
1460.66203,0.00418
1458.60186,0.00431
1456.54169,0.00443
1454.48151,0.00428
1452.42134,0.00404
1450.36117,0.00398
1448.30100,0.00404
1446.24083,0.00407
1444.18065,0.00404
1442.12048,0.00396
1440.06031,0.00385
1438.00014,0.00377
1435.93997,0.00380
1433.87979,0.00386
1431.81962,0.00392
1429.75945,0.00404
1427.69928,0.00418
1425.63910,0.00430
1423.57893,0.00440
1421.51876,0.00447
1419.45859,0.00459
1417.39842,0.00477
1415.33824,0.00489
1413.27807,0.00486
1411.21790,0.00473
1409.15773,0.00463
1407.09756,0.00460
1405.03738,0.00456
1402.97721,0.00447
1400.91704,0.00439
1398.85687,0.00432
1396.79670,0.00422
1394.73652,0.00414
1392.67635,0.00402
1390.61618,0.00382
1388.55601,0.00368
1386.49583,0.00366
1384.43566,0.00368
1382.37549,0.00368
1380.31532,0.00365
1378.25515,0.00361
1376.19497,0.00359
1374.13480,0.00355
1372.07463,0.00340
1370.01446,0.00321
1367.95429,0.00311
1365.89411,0.00311
1363.83394,0.00312
1361.77377,0.00310
1359.71360,0.00305
1357.65343,0.00304
1355.59325,0.00303
1353.53308,0.00296
1351.47291,0.00289
1349.41274,0.00286
1347.35256,0.00282
1345.29239,0.00268
1343.23222,0.00250
1341.17205,0.00235
1339.11188,0.00226
1337.05170,0.00228
1334.99153,0.00237
1332.93136,0.00242
1330.87119,0.00241
1328.81102,0.00242
1326.75084,0.00241
1324.69067,0.00235
1322.63050,0.00231
1320.57033,0.00230
1318.51015,0.00229
1316.44998,0.00228
1314.38981,0.00227
1312.32964,0.00226
1310.26947,0.00235
1308.20929,0.00250
1306.14912,0.00264
1304.08895,0.00268
1302.02878,0.00257
1299.96861,0.00247
1297.90843,0.00258
1295.84826,0.00288
1293.78809,0.00312
1291.72792,0.00315
1289.66775,0.00309
1287.60757,0.00307
1285.54740,0.00304
1283.48723,0.00300
1281.42706,0.00297
1279.36688,0.00296
1277.30671,0.00303
1275.24654,0.00314
1273.18637,0.00318
1271.12620,0.00317
1269.06602,0.00316
1267.00585,0.00309
1264.94568,0.00300
1262.88551,0.00309
1260.82534,0.00329
1258.76516,0.00342
1256.70499,0.00344
1254.64482,0.00341
1252.58465,0.00337
1250.52447,0.00339
1248.46430,0.00340
1246.40413,0.00332
1244.34396,0.00321
1242.28379,0.00311
1240.22361,0.00302
1238.16344,0.00292
1236.10327,0.00282
1234.04310,0.00269
1231.98293,0.00253
1229.92275,0.00240
1227.86258,0.00225
1225.80241,0.00202
1223.74224,0.00176
1221.68207,0.00157
1219.62189,0.00142
1217.56172,0.00129
1215.50155,0.00122
1213.44138,0.00108
1211.38120,0.00080
1209.32103,0.00056
1207.26086,0.00044
1205.20069,0.00029
1203.14052,0.00011
1201.08034,0.00000
1199.02017,-0.00005
1196.96000,-0.00002
1194.89983,0.00001
1192.83966,-0.00007
1190.77948,-0.00020
1188.71931,-0.00028
1186.65914,-0.00023
1184.59897,-0.00011
1182.53880,-0.00010
1180.47862,-0.00007
1178.41845,0.00017
1176.35828,0.00056
1174.29811,0.00098
1172.23793,0.00129
1170.17776,0.00150
1168.11759,0.00168
1166.05742,0.00186
1163.99725,0.00214
1161.93707,0.00253
1159.87690,0.00291
1157.81673,0.00324
1155.75656,0.00364
1153.69639,0.00420
1151.63621,0.00482
1149.57604,0.00539
1147.51587,0.00604
1145.45570,0.00679
1143.39552,0.00751
1141.33535,0.00824
1139.27518,0.00898
1137.21501,0.00977
1135.15484,0.01075
1133.09466,0.01189
1131.03449,0.01307
1128.97432,0.01423
1126.91415,0.01549
1124.85398,0.01690
1122.79380,0.01843
1120.73363,0.01994
1118.67346,0.02139
1116.61329,0.02288
1114.55312,0.02435
1112.49294,0.02573
1110.43277,0.02702
1108.37260,0.02831
1106.31243,0.02973
1104.25225,0.03112
1102.19208,0.03236
1100.13191,0.03356
1098.07174,0.03461
1096.01157,0.03550
1093.95139,0.03642
1091.89122,0.03743
1089.83105,0.03845
1087.77088,0.03939
1085.71071,0.04013
1083.65053,0.04068
1081.59036,0.04134
1079.53019,0.04217
1077.47002,0.04294
1075.40985,0.04354
1073.34967,0.04394
1071.28950,0.04426
1069.22933,0.04459
1067.16916,0.04486
1065.10898,0.04492
1063.04881,0.04471
1060.98864,0.04432
1058.92847,0.04376
1056.86830,0.04298
1054.80812,0.04202
1052.74795,0.04087
1050.68778,0.03953
1048.62761,0.03802
1046.56744,0.03630
1044.50726,0.03448
1042.44709,0.03272
1040.38692,0.03099
1038.32675,0.02920
1036.26657,0.02734
1034.20640,0.02554
1032.14623,0.02386
1030.08606,0.02227
1028.02589,0.02079
1025.96571,0.01951
1023.90554,0.01837
1021.84537,0.01736
1019.78520,0.01653
1017.72503,0.01592
1015.66485,0.01543
1013.60468,0.01502
1011.54451,0.01478
1009.48434,0.01479
1007.42417,0.01524
1005.36399,0.01611
1003.30382,0.01709
1001.24365,0.01809
999.18348,0.01926
997.12330,0.02050
995.06313,0.02151
993.00296,0.02240
990.94279,0.02340
988.88262,0.02441
986.82244,0.02530
984.76227,0.02598
982.70210,0.02631
980.64193,0.02628
978.58176,0.02618
976.52158,0.02609
974.46141,0.02569
972.40124,0.02482
970.34107,0.02370
968.28089,0.02257
966.22072,0.02139
964.16055,0.02000
962.10038,0.01864
960.04021,0.01749
957.98003,0.01626
955.91986,0.01488
953.85969,0.01353
951.79952,0.01240
949.73935,0.01149
947.67917,0.01060
945.61900,0.00961
943.55883,0.00855
941.49866,0.00766
939.43849,0.00698
937.37831,0.00633
935.31814,0.00580
933.25797,0.00535
931.19780,0.00470
929.13762,0.00417
927.07745,0.00403
925.01728,0.00380
922.95711,0.00325
920.89694,0.00273
918.83676,0.00248
916.77659,0.00233
914.71642,0.00217
912.65625,0.00203
910.59608,0.00185
908.53590,0.00173
906.47573,0.00179
904.41556,0.00188
902.35539,0.00191
900.29522,0.00189
898.23504,0.00191
896.17487,0.00215
894.11470,0.00265
892.05453,0.00317
889.99435,0.00348
887.93418,0.00374
885.87401,0.00415
883.81384,0.00476
881.75367,0.00550
879.69349,0.00612
877.63332,0.00639
875.57315,0.00672
873.51298,0.00741
871.45281,0.00810
869.39263,0.00858
867.33246,0.00896
865.27229,0.00928
863.21212,0.00952
861.15194,0.00984
859.09177,0.01015
857.03160,0.01008
854.97143,0.00981
852.91126,0.00963
850.85108,0.00952
848.79091,0.00961
846.73074,0.00982
844.67057,0.00960
842.61040,0.00886
840.55022,0.00822
838.49005,0.00800
836.42988,0.00759
834.36971,0.00675
832.30954,0.00610
830.24936,0.00569
828.18919,0.00536
826.12902,0.00522
824.06885,0.00493
822.00867,0.00432
819.94850,0.00375
817.88833,0.00341
815.82816,0.00314
813.76799,0.00287
811.70781,0.00271
809.64764,0.00265
807.58747,0.00247
805.52730,0.00200
803.46713,0.00166
801.40695,0.00181
799.34678,0.00187
797.28661,0.00161
795.22644,0.00144
793.16627,0.00138
791.10609,0.00134
789.04592,0.00128
786.98575,0.00124
784.92558,0.00134
782.86540,0.00134
780.80523,0.00113
778.74506,0.00105
776.68489,0.00101
774.62472,0.00077
772.56454,0.00073
770.50437,0.00097
768.44420,0.00105
766.38403,0.00083
764.32386,0.00039
762.26368,0.00021
760.20351,0.00051
758.14334,0.00066
756.08317,0.00052
754.02299,0.00048
751.96282,0.00038
749.90265,0.00013
747.84248,0.00002
745.78231,0.00008
743.72213,0.00014
741.66196,0.00007
739.60179,0.00009
737.54162,0.00041
735.48145,0.00060
733.42127,0.00031
731.36110,0.00001
729.30093,0.00001
727.24076,-0.00001
725.18059,-0.00003
723.12041,0.00024
721.06024,0.00035
719.00007,0.00010
716.93990,-0.00009
714.87972,0.00005
712.81955,0.00034
710.75938,0.00048
708.69921,0.00037
706.63904,0.00031
704.57886,0.00050
702.51869,0.00085
700.45852,0.00123
698.39835,0.00150
696.33818,0.00154
694.27800,0.00155
692.21783,0.00167
690.15766,0.00147
688.09749,0.00083
686.03731,0.00041
683.97714,0.00078
681.91697,0.00161
679.85680,0.00224
677.79663,0.00222
675.73645,0.00157
673.67628,0.00106
671.61611,0.00110
669.55594,0.00147
667.49577,0.00203
665.43559,0.00228
663.37542,0.00193
661.31525,0.00122
659.25508,0.00102
657.19491,0.00182
655.13473,0.00285
653.07456,0.00312
651.01439,0.00274
648.95422,0.00261
646.89404,0.00297
644.83387,0.00316
642.77370,0.00276
640.71353,0.00204
638.65336,0.00123
636.59318,0.00044
634.53301,0.00004
632.47284,0.00033
630.41267,0.00126
628.35250,0.00228
626.29232,0.00214
624.23215,0.00093
622.17198,0.00075
620.11181,0.00126
618.05164,0.00158
615.99146,0.00268
613.93129,0.00445
611.87112,0.00506
609.81095,0.00440
607.75077,0.00405
605.69060,0.00338
603.63043,0.00150
601.57026,0.00005
599.51009,0.00000
