3996.73391,0.00070
3994.67373,0.00080
3992.61356,0.00086
3990.55339,0.00098
3988.49322,0.00092
3986.43305,0.00062
3984.37287,0.00029
3982.31270,0.00009
3980.25253,0.00014
3978.19236,0.00033
3976.13219,0.00047
3974.07201,0.00046
3972.01184,0.00021
3969.95167,0.00000
3967.89150,0.00015
3965.83133,0.00053
3963.77115,0.00079
3961.71098,0.00079
3959.65081,0.00065
3957.59064,0.00050
3955.53046,0.00046
3953.47029,0.00056
3951.41012,0.00069
3949.34995,0.00073
3947.28978,0.00074
3945.22960,0.00085
3943.16943,0.00097
3941.10926,0.00094
3939.04909,0.00089
3936.98892,0.00097
3934.92874,0.00106
3932.86857,0.00089
3930.80840,0.00058
3928.74823,0.00050
3926.68805,0.00056
3924.62788,0.00047
3922.56771,0.00038
3920.50754,0.00045
3918.44737,0.00047
3916.38719,0.00037
3914.32702,0.00041
3912.26685,0.00065
3910.20668,0.00091
3908.14651,0.00110
3906.08633,0.00108
3904.02616,0.00063
3901.96599,0.00014
3899.90582,0.00006
3897.84565,0.00012
3895.78547,0.00032
3893.72530,0.00081
3891.66513,0.00121
3889.60496,0.00115
3887.54478,0.00079
3885.48461,0.00034
3883.42444,0.00016
3881.36427,0.00027
3879.30410,0.00029
3877.24392,0.00042
3875.18375,0.00073
3873.12358,0.00090
3871.06341,0.00087
3869.00324,0.00087
3866.94306,0.00107
3864.88289,0.00117
3862.82272,0.00080
3860.76255,0.00041
3858.70237,0.00045
3856.64220,0.00076
3854.58203,0.00093
3852.52186,0.00065
3850.46169,0.00029
3848.40151,0.00040
3846.34134,0.00086
3844.28117,0.00104
3842.22100,0.00066
3840.16083,0.00022
3838.10065,0.00000
3836.04048,0.00003
3833.98031,0.00028
3831.92014,0.00043
3829.85997,0.00042
3827.79979,0.00037
3825.73962,0.00048
3823.67945,0.00075
3821.61928,0.00086
3819.55910,0.00076
3817.49893,0.00077
3815.43876,0.00069
3813.37859,0.00053
3811.31842,0.00065
3809.25824,0.00100
3807.19807,0.00109
3805.13790,0.00091
3803.07773,0.00089
3801.01756,0.00083
3798.95738,0.00073
3796.89721,0.00078
3794.83704,0.00083
3792.77687,0.00081
3790.71670,0.00080
3788.65652,0.00084
3786.59635,0.00105
3784.53618,0.00138
3782.47601,0.00157
3780.41583,0.00138
3778.35566,0.00087
3776.29549,0.00054
3774.23532,0.00068
3772.17515,0.00105
3770.11497,0.00126
3768.05480,0.00122
3765.99463,0.00108
3763.93446,0.00091
3761.87429,0.00077
3759.81411,0.00064
3757.75394,0.00058
3755.69377,0.00082
3753.63360,0.00125
3751.57342,0.00124
3749.51325,0.00063
3747.45308,0.00039
3745.39291,0.00048
3743.33274,0.00029
3741.27256,0.00015
3739.21239,0.00045
3737.15222,0.00088
3735.09205,0.00079
3733.03188,0.00020
3730.97170,0.00000
3728.91153,0.00025
3726.85136,0.00038
3724.79119,0.00024
3722.73102,0.00011
3720.67084,0.00024
3718.61067,0.00048
3716.55050,0.00061
3714.49033,0.00065
3712.43015,0.00053
3710.36998,0.00021
3708.30981,0.00013
3706.24964,0.00043
3704.18947,0.00063
3702.12929,0.00051
3700.06912,0.00041
3698.00895,0.00058
3695.94878,0.00092
3693.88861,0.00124
3691.82843,0.00129
3689.76826,0.00072
3687.70809,0.00001
3685.64792,0.00000
3683.58775,0.00053
3681.52757,0.00105
3679.46740,0.00149
3677.40723,0.00185
3675.34706,0.00184
3673.28688,0.00165
3671.22671,0.00172
3669.16654,0.00176
3667.10637,0.00170
3665.04620,0.00177
3662.98602,0.00187
3660.92585,0.00181
3658.86568,0.00164
3656.80551,0.00161
3654.74534,0.00197
3652.68516,0.00271
3650.62499,0.00328
3648.56482,0.00334
3646.50465,0.00351
3644.44447,0.00381
3642.38430,0.00393
3640.32413,0.00394
3638.26396,0.00403
3636.20379,0.00429
3634.14361,0.00470
3632.08344,0.00519
3630.02327,0.00550
3627.96310,0.00539
3625.90293,0.00544
3623.84275,0.00611
3621.78258,0.00682
3619.72241,0.00682
3617.66224,0.00631
3615.60207,0.00616
3613.54189,0.00651
3611.48172,0.00689
3609.42155,0.00718
3607.36138,0.00752
3605.30120,0.00792
3603.24103,0.00831
3601.18086,0.00871
3599.12069,0.00920
3597.06052,0.00966
3595.00034,0.00988
3592.94017,0.00998
3590.88000,0.01030
3588.81983,0.01060
3586.75966,0.01045
3584.69948,0.01019
3582.63931,0.01047
3580.57914,0.01112
3578.51897,0.01164
3576.45879,0.01195
3574.39862,0.01227
3572.33845,0.01271
3570.27828,0.01323
3568.21811,0.01347
3566.15793,0.01325
3564.09776,0.01308
3562.03759,0.01321
3559.97742,0.01342
3557.91725,0.01369
3555.85707,0.01407
3553.79690,0.01442
3551.73673,0.01453
3549.67656,0.01455
3547.61639,0.01475
3545.55621,0.01518
3543.49604,0.01574
3541.43587,0.01629
3539.37570,0.01674
3537.31552,0.01703
3535.25535,0.01719
3533.19518,0.01748
3531.13501,0.01791
3529.07484,0.01825
3527.01466,0.01843
3524.95449,0.01851
3522.89432,0.01851
3520.83415,0.01861
3518.77398,0.01889
3516.71380,0.01910
3514.65363,0.01917
3512.59346,0.01946
3510.53329,0.02011
3508.47312,0.02069
3506.41294,0.02087
3504.35277,0.02081
3502.29260,0.02089
3500.23243,0.02125
3498.17225,0.02169
3496.11208,0.02207
3494.05191,0.02232
3491.99174,0.02249
3489.93157,0.02267
3487.87139,0.02289
3485.81122,0.02317
3483.75105,0.02355
3481.69088,0.02382
3479.63071,0.02384
3477.57053,0.02383
3475.51036,0.02398
3473.45019,0.02423
3471.39002,0.02450
3469.32984,0.02471
3467.26967,0.02482
3465.20950,0.02485
3463.14933,0.02496
3461.08916,0.02521
3459.02898,0.02552
3456.96881,0.02575
3454.90864,0.02595
3452.84847,0.02624
3450.78830,0.02660
3448.72812,0.02699
3446.66795,0.02732
3444.60778,0.02732
3442.54761,0.02714
3440.48744,0.02720
3438.42726,0.02754
3436.36709,0.02802
3434.30692,0.02840
3432.24675,0.02865
3430.18657,0.02896
3428.12640,0.02911
3426.06623,0.02901
3424.00606,0.02912
3421.94589,0.02942
3419.88571,0.02949
3417.82554,0.02941
3415.76537,0.02945
3413.70520,0.02957
3411.64503,0.02981
3409.58485,0.03011
3407.52468,0.03024
3405.46451,0.03043
3403.40434,0.03088
3401.34416,0.03116
3399.28399,0.03108
3397.22382,0.03108
3395.16365,0.03121
3393.10348,0.03146
3391.04330,0.03167
3388.98313,0.03169
3386.92296,0.03162
3384.86279,0.03164
3382.80262,0.03189
3380.74244,0.03218
3378.68227,0.03220
3376.62210,0.03210
3374.56193,0.03221
3372.50176,0.03239
3370.44158,0.03241
3368.38141,0.03244
3366.32124,0.03259
3364.26107,0.03274
3362.20089,0.03288
3360.14072,0.03310
3358.08055,0.03322
3356.02038,0.03319
3353.96021,0.03321
3351.90003,0.03320
3349.83986,0.03319
3347.77969,0.03341
3345.71952,0.03369
3343.65935,0.03378
3341.59917,0.03375
3339.53900,0.03377
3337.47883,0.03377
3335.41866,0.03376
3333.35849,0.03374
3331.29831,0.03376
3329.23814,0.03399
3327.17797,0.03425
3325.11780,0.03425
3323.05762,0.03405
3320.99745,0.03392
3318.93728,0.03390
3316.87711,0.03376
3314.81694,0.03358
3312.75676,0.03366
3310.69659,0.03400
3308.63642,0.03428
3306.57625,0.03441
3304.51608,0.03447
3302.45590,0.03458
3300.39573,0.03466
3298.33556,0.03475
3296.27539,0.03499
3294.21521,0.03514
3292.15504,0.03499
3290.09487,0.03484
3288.03470,0.03499
3285.97453,0.03518
3283.91435,0.03518
3281.85418,0.03516
3279.79401,0.03513
3277.73384,0.03491
3275.67367,0.03481
3273.61349,0.03493
3271.55332,0.03499
3269.49315,0.03501
3267.43298,0.03517
3265.37281,0.03531
3263.31263,0.03528
3261.25246,0.03521
3259.19229,0.03528
3257.13212,0.03544
3255.07194,0.03562
3253.01177,0.03575
3250.95160,0.03576
3248.89143,0.03569
3246.83126,0.03574
3244.77108,0.03593
3242.71091,0.03600
3240.65074,0.03581
3238.59057,0.03567
3236.53040,0.03575
3234.47022,0.03575
3232.41005,0.03558
3230.34988,0.03549
3228.28971,0.03545
3226.22954,0.03534
3224.16936,0.03532
3222.10919,0.03549
3220.04902,0.03562
3217.98885,0.03558
3215.92867,0.03551
3213.86850,0.03545
3211.80833,0.03543
3209.74816,0.03552
3207.68799,0.03554
3205.62781,0.03531
3203.56764,0.03501
3201.50747,0.03485
3199.44730,0.03484
3197.38713,0.03500
3195.32695,0.03520
3193.26678,0.03528
3191.20661,0.03528
3189.14644,0.03528
3187.08626,0.03528
3185.02609,0.03522
3182.96592,0.03513
3180.90575,0.03512
3178.84558,0.03515
3176.78540,0.03512
3174.72523,0.03508
3172.66506,0.03500
3170.60489,0.03487
3168.54472,0.03485
3166.48454,0.03489
3164.42437,0.03470
3162.36420,0.03438
3160.30403,0.03413
3158.24386,0.03393
3156.18368,0.03392
3154.12351,0.03410
3152.06334,0.03411
3150.00317,0.03394
3147.94299,0.03386
3145.88282,0.03389
3143.82265,0.03389
3141.76248,0.03381
3139.70231,0.03383
3137.64213,0.03392
3135.58196,0.03391
3133.52179,0.03377
3131.46162,0.03365
3129.40145,0.03360
3127.34127,0.03350
3125.28110,0.03340
3123.22093,0.03320
3121.16076,0.03285
3119.10058,0.03261
3117.04041,0.03261
3114.98024,0.03259
3112.92007,0.03249
3110.85990,0.03245
3108.79972,0.03232
3106.73955,0.03216
3104.67938,0.03211
3102.61921,0.03197
3100.55904,0.03172
3098.49886,0.03158
3096.43869,0.03162
3094.37852,0.03170
3092.31835,0.03165
3090.25818,0.03147
3088.19800,0.03123
3086.13783,0.03093
3084.07766,0.03065
3082.01749,0.03054
3079.95731,0.03056
3077.89714,0.03065
3075.83697,0.03073
3073.77680,0.03067
3071.71663,0.03048
3069.65645,0.03024
3067.59628,0.02994
3065.53611,0.02974
3063.47594,0.02974
3061.41577,0.02975
3059.35559,0.02968
3057.29542,0.02957
3055.23525,0.02945
3053.17508,0.02940
3051.11491,0.02936
3049.05473,0.02919
3046.99456,0.02895
3044.93439,0.02869
3042.87422,0.02840
3040.81404,0.02826
3038.75387,0.02829
3036.69370,0.02820
3034.63353,0.02803
3032.57336,0.02795
3030.51318,0.02779
3028.45301,0.02750
3026.39284,0.02725
3024.33267,0.02702
3022.27250,0.02687
3020.21232,0.02691
3018.15215,0.02693
3016.09198,0.02676
3014.03181,0.02660
3011.97163,0.02653
3009.91146,0.02633
3007.85129,0.02590
3005.79112,0.02547
3003.73095,0.02528
3001.67077,0.02530
2999.61060,0.02533
2997.55043,0.02530
2995.49026,0.02518
2993.43009,0.02501
2991.36991,0.02493
2989.30974,0.02493
2987.24957,0.02491
2985.18940,0.02480
2983.12923,0.02472
2981.06905,0.02473
2979.00888,0.02467
2976.94871,0.02441
2974.88854,0.02415
2972.82836,0.02399
2970.76819,0.02396
2968.70802,0.02402
2966.64785,0.02401
2964.58768,0.02387
2962.52750,0.02366
2960.46733,0.02349
2958.40716,0.02344
2956.34699,0.02347
2954.28682,0.02359
2952.22664,0.02364
2950.16647,0.02348
2948.10630,0.02333
2946.04613,0.02336
2943.98596,0.02348
2941.92578,0.02349
2939.86561,0.02333
2937.80544,0.02308
2935.74527,0.02287
2933.68509,0.02281
2931.62492,0.02289
2929.56475,0.02288
2927.50458,0.02278
2925.44441,0.02271
2923.38423,0.02270
2921.32406,0.02266
2919.26389,0.02254
2917.20372,0.02233
2915.14355,0.02199
2913.08337,0.02164
2911.02320,0.02140
2908.96303,0.02126
2906.90286,0.02118
2904.84268,0.02114
2902.78251,0.02106
2900.72234,0.02095
2898.66217,0.02078
2896.60200,0.02053
2894.54182,0.02025
2892.48165,0.01993
2890.42148,0.01975
2888.36131,0.01976
2886.30114,0.01979
2884.24096,0.01978
2882.18079,0.01973
2880.12062,0.01955
2878.06045,0.01937
2876.00028,0.01937
2873.94010,0.01944
2871.87993,0.01939
2869.81976,0.01921
2867.75959,0.01890
2865.69941,0.01854
2863.63924,0.01834
2861.57907,0.01839
2859.51890,0.01841
2857.45873,0.01827
2855.39855,0.01816
2853.33838,0.01807
2851.27821,0.01789
2849.21804,0.01781
2847.15787,0.01782
2845.09769,0.01767
2843.03752,0.01741
2840.97735,0.01713
2838.91718,0.01694
2836.85700,0.01690
2834.79683,0.01678
2832.73666,0.01647
2830.67649,0.01626
2828.61632,0.01625
2826.55614,0.01628
2824.49597,0.01620
2822.43580,0.01605
2820.37563,0.01593
2818.31546,0.01585
2816.25528,0.01573
2814.19511,0.01566
2812.13494,0.01561
2810.07477,0.01553
2808.01460,0.01547
2805.95442,0.01539
2803.89425,0.01524
2801.83408,0.01513
2799.77391,0.01504
2797.71373,0.01490
2795.65356,0.01482
2793.59339,0.01479
2791.53322,0.01468
2789.47305,0.01457
2787.41287,0.01444
2785.35270,0.01420
2783.29253,0.01394
2781.23236,0.01377
2779.17219,0.01372
2777.11201,0.01369
2775.05184,0.01363
2772.99167,0.01352
2770.93150,0.01343
2768.87133,0.01346
2766.81115,0.01356
2764.75098,0.01354
2762.69081,0.01336
2760.63064,0.01319
2758.57046,0.01314
2756.51029,0.01316
2754.45012,0.01315
2752.38995,0.01307
2750.32978,0.01305
2748.26960,0.01299
2746.20943,0.01274
2744.14926,0.01246
2742.08909,0.01230
2740.02892,0.01224
2737.96874,0.01219
2735.90857,0.01212
2733.84840,0.01203
2731.78823,0.01195
2729.72805,0.01184
2727.66788,0.01169
2725.60771,0.01156
2723.54754,0.01149
2721.48737,0.01150
2719.42719,0.01155
2717.36702,0.01151
2715.30685,0.01134
2713.24668,0.01117
2711.18651,0.01110
2709.12633,0.01112
2707.06616,0.01115
2705.00599,0.01115
2702.94582,0.01110
2700.88565,0.01099
2698.82547,0.01079
2696.76530,0.01057
2694.70513,0.01047
2692.64496,0.01041
2690.58478,0.01034
2688.52461,0.01027
2686.46444,0.01022
2684.40427,0.01018
2682.34410,0.01011
2680.28392,0.01002
2678.22375,0.00992
2676.16358,0.00986
2674.10341,0.00989
2672.04324,0.00988
2669.98306,0.00973
2667.92289,0.00965
2665.86272,0.00966
2663.80255,0.00958
2661.74238,0.00943
2659.68220,0.00931
2657.62203,0.00929
2655.56186,0.00940
2653.50169,0.00945
2651.44151,0.00930
2649.38134,0.00912
2647.32117,0.00907
2645.26100,0.00903
2643.20083,0.00894
2641.14065,0.00880
2639.08048,0.00868
2637.02031,0.00860
2634.96014,0.00852
2632.89997,0.00845
2630.83979,0.00852
2628.77962,0.00863
2626.71945,0.00865
2624.65928,0.00851
2622.59910,0.00817
2620.53893,0.00778
2618.47876,0.00764
2616.41859,0.00785
2614.35842,0.00807
2612.29824,0.00805
2610.23807,0.00788
2608.17790,0.00776
2606.11773,0.00781
2604.05756,0.00787
2601.99738,0.00772
2599.93721,0.00758
2597.87704,0.00764
2595.81687,0.00769
2593.75670,0.00760
2591.69652,0.00743
2589.63635,0.00725
2587.57618,0.00706
2585.51601,0.00683
2583.45583,0.00668
2581.39566,0.00683
2579.33549,0.00706
2577.27532,0.00717
2575.21515,0.00719
2573.15497,0.00693
2571.09480,0.00653
2569.03463,0.00644
2566.97446,0.00655
2564.91429,0.00658
2562.85411,0.00664
2560.79394,0.00681
2558.73377,0.00698
2556.67360,0.00703
2554.61342,0.00702
2552.55325,0.00707
2550.49308,0.00704
2548.43291,0.00686
2546.37274,0.00677
2544.31256,0.00662
2542.25239,0.00641
2540.19222,0.00644
2538.13205,0.00674
2536.07188,0.00695
2534.01170,0.00679
2531.95153,0.00658
2529.89136,0.00661
2527.83119,0.00655
2525.77102,0.00648
2523.71084,0.00661
2521.65067,0.00676
2519.59050,0.00678
2517.53033,0.00670
2515.47015,0.00666
2513.40998,0.00674
2511.34981,0.00674
2509.28964,0.00670
2507.22947,0.00682
2505.16929,0.00692
2503.10912,0.00677
2501.04895,0.00650
2498.98878,0.00640
2496.92861,0.00659
2494.86843,0.00687
2492.80826,0.00700
2490.74809,0.00702
2488.68792,0.00698
2486.62775,0.00698
2484.56757,0.00704
2482.50740,0.00699
2480.44723,0.00687
2478.38706,0.00679
2476.32688,0.00685
2474.26671,0.00700
2472.20654,0.00704
2470.14637,0.00711
2468.08620,0.00739
2466.02602,0.00756
2463.96585,0.00763
2461.90568,0.00775
2459.84551,0.00768
2457.78534,0.00743
2455.72516,0.00730
2453.66499,0.00727
2451.60482,0.00724
2449.54465,0.00715
2447.48447,0.00696
2445.42430,0.00685
2443.36413,0.00688
2441.30396,0.00704
2439.24379,0.00721
2437.18361,0.00734
2435.12344,0.00746
2433.06327,0.00745
2431.00310,0.00722
2428.94293,0.00697
2426.88275,0.00691
2424.82258,0.00703
2422.76241,0.00716
2420.70224,0.00719
2418.64207,0.00718
2416.58189,0.00722
2414.52172,0.00721
2412.46155,0.00715
2410.40138,0.00721
2408.34120,0.00730
2406.28103,0.00719
2404.22086,0.00707
2402.16069,0.00706
2400.10052,0.00709
2398.04034,0.00709
2395.98017,0.00719
2393.92000,0.00725
2391.85983,0.00723
2389.79966,0.00719
2387.73948,0.00726
2385.67931,0.00746
2383.61914,0.00766
2381.55897,0.00765
2379.49880,0.00739
2377.43862,0.00715
2375.37845,0.00697
2373.31828,0.00684
2371.25811,0.00667
2369.19793,0.00653
2367.13776,0.00696
2365.07759,0.00793
2363.01742,0.00836
2360.95725,0.00862
2358.89707,0.00828
2356.83690,0.00783
2354.77673,0.00725
2352.71656,0.00660
2350.65639,0.00717
2348.59621,0.00794
2346.53604,0.00700
2344.47587,0.00697
2342.41570,0.00767
2340.35552,0.00833
2338.29535,0.00861
2336.23518,0.00863
2334.17501,0.00887
2332.11484,0.00881
2330.05466,0.00827
2327.99449,0.00770
2325.93432,0.00788
2323.87415,0.00808
2321.81398,0.00821
2319.75380,0.00812
2317.69363,0.00833
2315.63346,0.00838
2313.57329,0.00811
2311.51312,0.00774
2309.45294,0.00734
2307.39277,0.00687
2305.33260,0.00653
2303.27243,0.00658
2301.21225,0.00675
2299.15208,0.00691
2297.09191,0.00716
2295.03174,0.00747
2292.97157,0.00774
2290.91139,0.00804
2288.85122,0.00822
2286.79105,0.00790
2284.73088,0.00719
2282.67071,0.00663
2280.61053,0.00653
2278.55036,0.00682
2276.49019,0.00705
2274.43002,0.00678
2272.36984,0.00632
2270.30967,0.00640
2268.24950,0.00681
2266.18933,0.00687
2264.12916,0.00669
2262.06898,0.00670
2260.00881,0.00682
2257.94864,0.00679
2255.88847,0.00650
2253.82830,0.00608
2251.76812,0.00582
2249.70795,0.00575
2247.64778,0.00587
2245.58761,0.00605
2243.52744,0.00591
2241.46726,0.00545
2239.40709,0.00507
2237.34692,0.00493
2235.28675,0.00497
2233.22657,0.00489
2231.16640,0.00476
2229.10623,0.00498
2227.04606,0.00524
2224.98589,0.00527
2222.92571,0.00537
2220.86554,0.00533
2218.80537,0.00525
2216.74520,0.00554
2214.68503,0.00597
2212.62485,0.00586
2210.56468,0.00502
2208.50451,0.00404
2206.44434,0.00328
2204.38417,0.00295
2202.32399,0.00319
2200.26382,0.00358
2198.20365,0.00386
2196.14348,0.00401
2194.08330,0.00433
2192.02313,0.00485
2189.96296,0.00467
2187.90279,0.00360
2185.84262,0.00294
2183.78244,0.00299
2181.72227,0.00300
2179.66210,0.00313
2177.60193,0.00287
2175.54176,0.00256
2173.48158,0.00331
2171.42141,0.00410
2169.36124,0.00435
2167.30107,0.00457
2165.24089,0.00470
2163.18072,0.00437
2161.12055,0.00286
2159.06038,0.00075
2157.00021,0.00000
2154.94003,0.00046
2152.87986,0.00116
2150.81969,0.00169
2148.75952,0.00202
2146.69935,0.00289
2144.63917,0.00379
2142.57900,0.00364
2140.51883,0.00287
2138.45866,0.00229
2136.39849,0.00212
2134.33831,0.00215
2132.27814,0.00205
2130.21797,0.00205
2128.15780,0.00249
2126.09762,0.00316
2124.03745,0.00322
2121.97728,0.00250
2119.91711,0.00230
2117.85694,0.00295
2115.79676,0.00345
2113.73659,0.00357
2111.67642,0.00364
2109.61625,0.00370
2107.55608,0.00360
2105.49590,0.00327
2103.43573,0.00313
2101.37556,0.00339
2099.31539,0.00385
2097.25521,0.00395
2095.19504,0.00348
2093.13487,0.00309
2091.07470,0.00317
2089.01453,0.00326
2086.95435,0.00338
2084.89418,0.00349
2082.83401,0.00312
2080.77384,0.00265
2078.71367,0.00277
2076.65349,0.00309
2074.59332,0.00300
2072.53315,0.00272
2070.47298,0.00272
2068.41281,0.00308
2066.35263,0.00338
2064.29246,0.00334
2062.23229,0.00316
2060.17212,0.00318
2058.11194,0.00342
2056.05177,0.00338
2053.99160,0.00294
2051.93143,0.00287
2049.87126,0.00310
2047.81108,0.00293
2045.75091,0.00239
2043.69074,0.00162
2041.63057,0.00071
2039.57040,0.00021
2037.51022,0.00060
2035.45005,0.00197
2033.38988,0.00298
2031.32971,0.00234
2029.26954,0.00127
2027.20936,0.00096
2025.14919,0.00110
2023.08902,0.00131
2021.02885,0.00155
2018.96867,0.00185
2016.90850,0.00180
2014.84833,0.00185
2012.78816,0.00249
2010.72799,0.00268
2008.66781,0.00225
2006.60764,0.00226
2004.54747,0.00223
2002.48730,0.00177
2000.42713,0.00136
1998.36695,0.00106
1996.30678,0.00117
1994.24661,0.00144
1992.18644,0.00140
1990.12626,0.00178
1988.06609,0.00277
1986.00592,0.00329
1983.94575,0.00288
1981.88558,0.00249
1979.82540,0.00241
1977.76523,0.00196
1975.70506,0.00200
1973.64489,0.00276
1971.58472,0.00228
1969.52454,0.00089
1967.46437,0.00057
1965.40420,0.00066
1963.34403,0.00015
1961.28386,0.00000
1959.22368,0.00072
1957.16351,0.00164
1955.10334,0.00214
1953.04317,0.00188
1950.98299,0.00104
1948.92282,0.00046
1946.86265,0.00060
1944.80248,0.00099
1942.74231,0.00113
1940.68213,0.00101
1938.62196,0.00085
1936.56179,0.00090
1934.50162,0.00110
1932.44145,0.00107
1930.38127,0.00076
1928.32110,0.00056
1926.26093,0.00069
1924.20076,0.00107
1922.14059,0.00146
1920.08041,0.00131
1918.02024,0.00076
1915.96007,0.00065
1913.89990,0.00101
1911.83972,0.00128
1909.77955,0.00114
1907.71938,0.00069
1905.65921,0.00044
1903.59904,0.00062
1901.53886,0.00086
1899.47869,0.00084
1897.41852,0.00081
1895.35835,0.00089
1893.29818,0.00094
1891.23800,0.00100
1889.17783,0.00119
1887.11766,0.00143
1885.05749,0.00150
1882.99731,0.00126
1880.93714,0.00092
1878.87697,0.00073
1876.81680,0.00080
1874.75663,0.00104
1872.69645,0.00117
1870.63628,0.00114
1868.57611,0.00102
1866.51594,0.00079
1864.45577,0.00067
1862.39559,0.00080
1860.33542,0.00092
1858.27525,0.00088
1856.21508,0.00087
1854.15491,0.00101
1852.09473,0.00109
1850.03456,0.00106
1847.97439,0.00111
1845.91422,0.00118
1843.85404,0.00110
1841.79387,0.00092
1839.73370,0.00084
1837.67353,0.00089
1835.61336,0.00103
1833.55318,0.00128
1831.49301,0.00147
1829.43284,0.00150
1827.37267,0.00142
1825.31250,0.00138
1823.25232,0.00136
1821.19215,0.00123
1819.13198,0.00098
1817.07181,0.00085
1815.01163,0.00091
1812.95146,0.00091
1810.89129,0.00082
1808.83112,0.00089
1806.77095,0.00108
1804.71077,0.00118
1802.65060,0.00122
1800.59043,0.00124
1798.53026,0.00122
1796.47009,0.00122
1794.40991,0.00120
1792.34974,0.00109
1790.28957,0.00105
1788.22940,0.00120
1786.16923,0.00134
1784.10905,0.00147
1782.04888,0.00161
1779.98871,0.00164
1777.92854,0.00160
1775.86836,0.00172
1773.80819,0.00196
1771.74802,0.00186
1769.68785,0.00142
1767.62768,0.00122
1765.56750,0.00139
1763.50733,0.00164
1761.44716,0.00179
1759.38699,0.00189
1757.32682,0.00205
1755.26664,0.00230
1753.20647,0.00264
1751.14630,0.00287
1749.08613,0.00280
1747.02596,0.00276
1744.96578,0.00291
1742.90561,0.00305
1740.84544,0.00312
1738.78527,0.00328
1736.72509,0.00357
1734.66492,0.00386
1732.60475,0.00391
1730.54458,0.00378
1728.48441,0.00369
1726.42423,0.00378
1724.36406,0.00394
1722.30389,0.00400
1720.24372,0.00412
1718.18355,0.00441
1716.12337,0.00461
1714.06320,0.00453
1712.00303,0.00442
1709.94286,0.00454
1707.88268,0.00487
1705.82251,0.00524
1703.76234,0.00555
1701.70217,0.00585
1699.64200,0.00618
1697.58182,0.00646
1695.52165,0.00668
1693.46148,0.00698
1691.40131,0.00748
1689.34114,0.00812
1687.28096,0.00872
1685.22079,0.00917
1683.16062,0.00949
1681.10045,0.00991
1679.04028,0.01042
1676.98010,0.01093
1674.91993,0.01148
1672.85976,0.01217
1670.79959,0.01287
1668.73941,0.01329
1666.67924,0.01342
1664.61907,0.01357
1662.55890,0.01378
1660.49873,0.01398
1658.43855,0.01422
1656.37838,0.01452
1654.31821,0.01480
1652.25804,0.01503
1650.19787,0.01534
1648.13769,0.01546
1646.07752,0.01518
1644.01735,0.01483
1641.95718,0.01473
1639.89701,0.01481
1637.83683,0.01488
1635.77666,0.01467
1633.71649,0.01428
1631.65632,0.01398
1629.59614,0.01378
1627.53597,0.01361
1625.47580,0.01344
1623.41563,0.01318
1621.35546,0.01279
1619.29528,0.01245
1617.23511,0.01215
1615.17494,0.01178
1613.11477,0.01155
1611.05460,0.01149
1608.99442,0.01140
1606.93425,0.01128
1604.87408,0.01121
1602.81391,0.01110
1600.75373,0.01088
1598.69356,0.01060
1596.63339,0.01037
1594.57322,0.01020
1592.51305,0.00999
1590.45287,0.00969
1588.39270,0.00940
1586.33253,0.00917
1584.27236,0.00890
1582.21219,0.00860
1580.15201,0.00837
1578.09184,0.00827
1576.03167,0.00816
1573.97150,0.00800
1571.91133,0.00795
1569.85115,0.00791
1567.79098,0.00776
1565.73081,0.00763
1563.67064,0.00767
1561.61046,0.00791
1559.55029,0.00797
1557.49012,0.00726
1555.42995,0.00655
1553.36978,0.00635
1551.30960,0.00642
1549.24943,0.00643
1547.18926,0.00634
1545.12909,0.00638
1543.06892,0.00655
1541.00874,0.00645
1538.94857,0.00583
1536.88840,0.00540
1534.82823,0.00536
1532.76805,0.00530
1530.70788,0.00515
1528.64771,0.00508
1526.58754,0.00505
1524.52737,0.00501
1522.46719,0.00486
1520.40702,0.00457
1518.34685,0.00442
1516.28668,0.00436
1514.22651,0.00417
1512.16633,0.00400
1510.10616,0.00395
1508.04599,0.00381
1505.98582,0.00335
1503.92565,0.00304
1501.86547,0.00308
1499.80530,0.00329
1497.74513,0.00339
1495.68496,0.00318
1493.62478,0.00299
1491.56461,0.00302
1489.50444,0.00307
1487.44427,0.00293
1485.38410,0.00269
1483.32392,0.00254
1481.26375,0.00251
1479.20358,0.00257
1477.14341,0.00276
1475.08324,0.00300
1473.02306,0.00305
1470.96289,0.00286
1468.90272,0.00279
1466.84255,0.00295
1464.78238,0.00314
1462.72220,0.00325
1460.66203,0.00341
1458.60186,0.00349
1456.54169,0.00321
1454.48151,0.00288
1452.42134,0.00282
1450.36117,0.00292
1448.30100,0.00302
1446.24083,0.00300
1444.18065,0.00292
1442.12048,0.00293
1440.06031,0.00307
1438.00014,0.00318
1435.93997,0.00309
1433.87979,0.00294
1431.81962,0.00297
1429.75945,0.00307
1427.69928,0.00313
1425.63910,0.00325
1423.57893,0.00348
1421.51876,0.00370
1419.45859,0.00376
1417.39842,0.00372
1415.33824,0.00371
1413.27807,0.00375
1411.21790,0.00378
1409.15773,0.00381
1407.09756,0.00386
1405.03738,0.00380
1402.97721,0.00364
1400.91704,0.00352
1398.85687,0.00338
1396.79670,0.00324
1394.73652,0.00314
1392.67635,0.00298
1390.61618,0.00282
1388.55601,0.00277
1386.49583,0.00279
1384.43566,0.00276
1382.37549,0.00270
1380.31532,0.00269
1378.25515,0.00277
1376.19497,0.00287
1374.13480,0.00286
1372.07463,0.00274
1370.01446,0.00260
1367.95429,0.00252
1365.89411,0.00253
1363.83394,0.00254
1361.77377,0.00246
1359.71360,0.00239
1357.65343,0.00236
1355.59325,0.00231
1353.53308,0.00226
1351.47291,0.00226
1349.41274,0.00226
1347.35256,0.00218
1345.29239,0.00202
1343.23222,0.00191
1341.17205,0.00187
1339.11188,0.00186
1337.05170,0.00183
1334.99153,0.00180
1332.93136,0.00180
1330.87119,0.00186
1328.81102,0.00195
1326.75084,0.00192
1324.69067,0.00181
1322.63050,0.00181
1320.57033,0.00193
1318.51015,0.00203
1316.44998,0.00203
1314.38981,0.00192
1312.32964,0.00181
1310.26947,0.00182
1308.20929,0.00193
1306.14912,0.00209
1304.08895,0.00222
1302.02878,0.00225
1299.96861,0.00223
1297.90843,0.00231
1295.84826,0.00256
1293.78809,0.00274
1291.72792,0.00268
1289.66775,0.00252
1287.60757,0.00242
1285.54740,0.00244
1283.48723,0.00255
1281.42706,0.00260
1279.36688,0.00256
1277.30671,0.00260
1275.24654,0.00274
1273.18637,0.00280
1271.12620,0.00274
1269.06602,0.00270
1267.00585,0.00267
1264.94568,0.00261
1262.88551,0.00266
1260.82534,0.00283
1258.76516,0.00294
1256.70499,0.00291
1254.64482,0.00282
1252.58465,0.00282
1250.52447,0.00282
1248.46430,0.00272
1246.40413,0.00264
1244.34396,0.00262
1242.28379,0.00262
1240.22361,0.00264
1238.16344,0.00263
1236.10327,0.00247
1234.04310,0.00222
1231.98293,0.00203
1229.92275,0.00195
1227.86258,0.00190
1225.80241,0.00178
1223.74224,0.00158
1221.68207,0.00136
1219.62189,0.00114
1217.56172,0.00095
1215.50155,0.00085
1213.44138,0.00082
1211.38120,0.00070
1209.32103,0.00049
1207.26086,0.00033
1205.20069,0.00020
1203.14052,0.00003
1201.08034,0.00000
1199.02017,0.00001
1196.96000,-0.00006
1194.89983,-0.00016
1192.83966,-0.00023
1190.77948,-0.00027
1188.71931,-0.00031
1186.65914,-0.00030
1184.59897,-0.00024
1182.53880,-0.00022
1180.47862,-0.00018
1178.41845,0.00001
1176.35828,0.00026
1174.29811,0.00053
1172.23793,0.00073
1170.17776,0.00084
1168.11759,0.00106
1166.05742,0.00141
1163.99725,0.00172
1161.93707,0.00195
1159.87690,0.00224
1157.81673,0.00265
1155.75656,0.00313
1153.69639,0.00368
1151.63621,0.00426
1149.57604,0.00477
1147.51587,0.00523
1145.45570,0.00582
1143.39552,0.00655
1141.33535,0.00733
1139.27518,0.00814
1137.21501,0.00900
1135.15484,0.00986
1133.09466,0.01085
1131.03449,0.01200
1128.97432,0.01315
1126.91415,0.01435
1124.85398,0.01575
1122.79380,0.01721
1120.73363,0.01864
1118.67346,0.02002
1116.61329,0.02132
1114.55312,0.02261
1112.49294,0.02398
1110.43277,0.02534
1108.37260,0.02660
1106.31243,0.02783
1104.25225,0.02910
1102.19208,0.03041
1100.13191,0.03169
1098.07174,0.03282
1096.01157,0.03378
1093.95139,0.03469
1091.89122,0.03559
1089.83105,0.03655
1087.77088,0.03747
1085.71071,0.03818
1083.65053,0.03883
1081.59036,0.03970
1079.53019,0.04075
1077.47002,0.04159
1075.40985,0.04209
1073.34967,0.04244
1071.28950,0.04282
1069.22933,0.04317
1067.16916,0.04333
1065.10898,0.04334
1063.04881,0.04320
1060.98864,0.04287
1058.92847,0.04234
1056.86830,0.04165
1054.80812,0.04078
1052.74795,0.03961
1050.68778,0.03823
1048.62761,0.03676
1046.56744,0.03511
1044.50726,0.03331
1042.44709,0.03148
1040.38692,0.02966
1038.32675,0.02780
1036.26657,0.02592
1034.20640,0.02415
1032.14623,0.02249
1030.08606,0.02098
1028.02589,0.01963
1025.96571,0.01837
1023.90554,0.01717
1021.84537,0.01604
1019.78520,0.01512
1017.72503,0.01458
1015.66485,0.01432
1013.60468,0.01413
1011.54451,0.01400
1009.48434,0.01414
1007.42417,0.01473
1005.36399,0.01555
1003.30382,0.01640
1001.24365,0.01734
999.18348,0.01838
997.12330,0.01951
995.06313,0.02066
993.00296,0.02177
990.94279,0.02280
988.88262,0.02359
986.82244,0.02422
984.76227,0.02488
982.70210,0.02546
980.64193,0.02572
978.58176,0.02575
976.52158,0.02568
974.46141,0.02533
972.40124,0.02452
970.34107,0.02345
968.28089,0.02241
966.22072,0.02131
964.16055,0.02010
962.10038,0.01892
960.04021,0.01777
957.98003,0.01656
955.91986,0.01525
953.85969,0.01397
951.79952,0.01287
949.73935,0.01190
947.67917,0.01093
945.61900,0.00999
943.55883,0.00913
941.49866,0.00836
939.43849,0.00766
937.37831,0.00707
935.31814,0.00654
933.25797,0.00589
931.19780,0.00519
929.13762,0.00489
927.07745,0.00486
925.01728,0.00449
922.95711,0.00376
920.89694,0.00322
918.83676,0.00308
916.77659,0.00298
914.71642,0.00276
912.65625,0.00255
910.59608,0.00228
908.53590,0.00209
906.47573,0.00215
904.41556,0.00222
902.35539,0.00230
900.29522,0.00252
898.23504,0.00273
896.17487,0.00294
894.11470,0.00324
892.05453,0.00365
889.99435,0.00392
887.93418,0.00416
885.87401,0.00467
883.81384,0.00536
881.75367,0.00603
879.69349,0.00656
877.63332,0.00699
875.57315,0.00740
873.51298,0.00791
871.45281,0.00847
869.39263,0.00891
867.33246,0.00929
865.27229,0.00966
863.21212,0.00992
861.15194,0.01016
859.09177,0.01050
857.03160,0.01072
854.97143,0.01064
852.91126,0.01056
850.85108,0.01043
848.79091,0.01016
846.73074,0.01002
844.67057,0.00980
842.61040,0.00937
840.55022,0.00891
838.49005,0.00836
836.42988,0.00764
834.36971,0.00684
832.30954,0.00630
830.24936,0.00597
828.18919,0.00551
826.12902,0.00506
824.06885,0.00476
822.00867,0.00439
819.94850,0.00393
817.88833,0.00358
815.82816,0.00334
813.76799,0.00322
811.70781,0.00314
809.64764,0.00297
807.58747,0.00290
805.52730,0.00266
803.46713,0.00215
801.40695,0.00202
799.34678,0.00211
797.28661,0.00187
795.22644,0.00160
793.16627,0.00150
791.10609,0.00142
789.04592,0.00122
786.98575,0.00105
784.92558,0.00115
782.86540,0.00127
780.80523,0.00097
778.74506,0.00073
776.68489,0.00095
774.62472,0.00109
772.56454,0.00108
770.50437,0.00103
768.44420,0.00087
766.38403,0.00071
764.32386,0.00047
762.26368,0.00024
760.20351,0.00026
758.14334,0.00034
756.08317,0.00024
754.02299,0.00006
751.96282,0.00000
749.90265,0.00004
747.84248,0.00014
745.78231,0.00031
743.72213,0.00053
741.66196,0.00035
739.60179,-0.00032
737.54162,-0.00048
735.48145,0.00010
733.42127,0.00044
731.36110,0.00033
729.30093,0.00046
727.24076,0.00057
725.18059,0.00045
723.12041,0.00065
721.06024,0.00035
719.00007,-0.00015
716.93990,-0.00043
714.87972,-0.00035
712.81955,-0.00020
710.75938,-0.00022
708.69921,-0.00036
706.63904,-0.00033
704.57886,0.00008
702.51869,0.00059
700.45852,0.00093
698.39835,0.00111
696.33818,0.00127
694.27800,0.00144
692.21783,0.00137
690.15766,0.00086
688.09749,0.00024
686.03731,0.00018
683.97714,0.00076
681.91697,0.00142
679.85680,0.00185
677.79663,0.00215
675.73645,0.00199
673.67628,0.00164
671.61611,0.00199
669.55594,0.00131
667.49577,0.00050
665.43559,0.00337
663.37542,0.00242
661.31525,0.00035
659.25508,-0.00040
657.19491,0.00081
655.13473,0.00258
653.07456,0.00339
651.01439,0.00318
648.95422,0.00259
646.89404,0.00255
644.83387,0.00277
642.77370,0.00251
640.71353,0.00184
638.65336,0.00163
636.59318,0.00205
634.53301,0.00246
632.47284,0.00259
630.41267,0.00254
628.35250,0.00203
626.29232,0.00085
624.23215,0.00000
622.17198,-0.00002
620.11181,0.00027
618.05164,0.00029
615.99146,0.00021
613.93129,0.00052
611.87112,0.00070
609.81095,0.00038
607.75077,0.00011
605.69060,-0.00032
603.63043,-0.00080
601.57026,-0.00034
599.51009,0.00000
