3996.73391,0.00133
3994.67373,0.00159
3992.61356,0.00160
3990.55339,0.00111
3988.49322,0.00047
3986.43305,0.00011
3984.37287,0.00000
3982.31270,0.00003
3980.25253,0.00036
3978.19236,0.00089
3976.13219,0.00114
3974.07201,0.00132
3972.01184,0.00167
3969.95167,0.00185
3967.89150,0.00165
3965.83133,0.00119
3963.77115,0.00067
3961.71098,0.00032
3959.65081,0.00037
3957.59064,0.00074
3955.53046,0.00116
3953.47029,0.00127
3951.41012,0.00098
3949.34995,0.00072
3947.28978,0.00082
3945.22960,0.00109
3943.16943,0.00112
3941.10926,0.00065
3939.04909,0.00021
3936.98892,0.00056
3934.92874,0.00127
3932.86857,0.00147
3930.80840,0.00122
3928.74823,0.00092
3926.68805,0.00074
3924.62788,0.00089
3922.56771,0.00121
3920.50754,0.00120
3918.44737,0.00092
3916.38719,0.00076
3914.32702,0.00055
3912.26685,0.00033
3910.20668,0.00060
3908.14651,0.00128
3906.08633,0.00180
3904.02616,0.00206
3901.96599,0.00200
3899.90582,0.00130
3897.84565,0.00048
3895.78547,0.00030
3893.72530,0.00077
3891.66513,0.00135
3889.60496,0.00151
3887.54478,0.00120
3885.48461,0.00077
3883.42444,0.00071
3881.36427,0.00119
3879.30410,0.00152
3877.24392,0.00127
3875.18375,0.00109
3873.12358,0.00121
3871.06341,0.00100
3869.00324,0.00043
3866.94306,0.00015
3864.88289,0.00036
3862.82272,0.00075
3860.76255,0.00091
3858.70237,0.00107
3856.64220,0.00174
3854.58203,0.00253
3852.52186,0.00254
3850.46169,0.00195
3848.40151,0.00164
3846.34134,0.00193
3844.28117,0.00255
3842.22100,0.00279
3840.16083,0.00235
3838.10065,0.00182
3836.04048,0.00153
3833.98031,0.00114
3831.92014,0.00050
3829.85997,0.00005
3827.79979,0.00002
3825.73962,0.00003
3823.67945,0.00000
3821.61928,0.00043
3819.55910,0.00121
3817.49893,0.00158
3815.43876,0.00174
3813.37859,0.00180
3811.31842,0.00147
3809.25824,0.00110
3807.19807,0.00116
3805.13790,0.00106
3803.07773,0.00058
3801.01756,0.00086
3798.95738,0.00201
3796.89721,0.00271
3794.83704,0.00253
3792.77687,0.00178
3790.71670,0.00096
3788.65652,0.00063
3786.59635,0.00085
3784.53618,0.00127
3782.47601,0.00160
3780.41583,0.00184
3778.35566,0.00201
3776.29549,0.00202
3774.23532,0.00175
3772.17515,0.00111
3770.11497,0.00048
3768.05480,0.00050
3765.99463,0.00087
3763.93446,0.00077
3761.87429,0.00040
3759.81411,0.00053
3757.75394,0.00087
3755.69377,0.00102
3753.63360,0.00149
3751.57342,0.00212
3749.51325,0.00185
3747.45308,0.00106
3745.39291,0.00108
3743.33274,0.00169
3741.27256,0.00172
3739.21239,0.00148
3737.15222,0.00138
3735.09205,0.00097
3733.03188,0.00057
3730.97170,0.00087
3728.91153,0.00139
3726.85136,0.00176
3724.79119,0.00207
3722.73102,0.00233
3720.67084,0.00268
3718.61067,0.00283
3716.55050,0.00254
3714.49033,0.00237
3712.43015,0.00283
3710.36998,0.00333
3708.30981,0.00303
3706.24964,0.00242
3704.18947,0.00203
3702.12929,0.00190
3700.06912,0.00188
3698.00895,0.00190
3695.94878,0.00188
3693.88861,0.00142
3691.82843,0.00062
3689.76826,0.00047
3687.70809,0.00117
3685.64792,0.00151
3683.58775,0.00123
3681.52757,0.00099
3679.46740,0.00076
3677.40723,0.00038
3675.34706,0.00070
3673.28688,0.00182
3671.22671,0.00252
3669.16654,0.00263
3667.10637,0.00257
3665.04620,0.00246
3662.98602,0.00220
3660.92585,0.00175
3658.86568,0.00133
3656.80551,0.00127
3654.74534,0.00143
3652.68516,0.00118
3650.62499,0.00087
3648.56482,0.00137
3646.50465,0.00210
3644.44447,0.00233
3642.38430,0.00231
3640.32413,0.00243
3638.26396,0.00288
3636.20379,0.00330
3634.14361,0.00323
3632.08344,0.00286
3630.02327,0.00261
3627.96310,0.00283
3625.90293,0.00333
3623.84275,0.00375
3621.78258,0.00395
3619.72241,0.00386
3617.66224,0.00364
3615.60207,0.00368
3613.54189,0.00423
3611.48172,0.00477
3609.42155,0.00437
3607.36138,0.00336
3605.30120,0.00303
3603.24103,0.00363
3601.18086,0.00465
3599.12069,0.00540
3597.06052,0.00515
3595.00034,0.00449
3592.94017,0.00448
3590.88000,0.00490
3588.81983,0.00495
3586.75966,0.00476
3584.69948,0.00481
3582.63931,0.00495
3580.57914,0.00484
3578.51897,0.00458
3576.45879,0.00458
3574.39862,0.00483
3572.33845,0.00501
3570.27828,0.00509
3568.21811,0.00523
3566.15793,0.00554
3564.09776,0.00618
3562.03759,0.00676
3559.97742,0.00677
3557.91725,0.00651
3555.85707,0.00643
3553.79690,0.00647
3551.73673,0.00660
3549.67656,0.00688
3547.61639,0.00726
3545.55621,0.00743
3543.49604,0.00723
3541.43587,0.00696
3539.37570,0.00691
3537.31552,0.00693
3535.25535,0.00693
3533.19518,0.00721
3531.13501,0.00798
3529.07484,0.00871
3527.01466,0.00895
3524.95449,0.00890
3522.89432,0.00877
3520.83415,0.00846
3518.77398,0.00822
3516.71380,0.00843
3514.65363,0.00878
3512.59346,0.00878
3510.53329,0.00870
3508.47312,0.00890
3506.41294,0.00908
3504.35277,0.00893
3502.29260,0.00882
3500.23243,0.00904
3498.17225,0.00943
3496.11208,0.00983
3494.05191,0.01012
3491.99174,0.01022
3489.93157,0.01012
3487.87139,0.00988
3485.81122,0.00948
3483.75105,0.00921
3481.69088,0.00950
3479.63071,0.01015
3477.57053,0.01045
3475.51036,0.01037
3473.45019,0.01044
3471.39002,0.01085
3469.32984,0.01135
3467.26967,0.01154
3465.20950,0.01116
3463.14933,0.01064
3461.08916,0.01064
3459.02898,0.01104
3456.96881,0.01148
3454.90864,0.01198
3452.84847,0.01251
3450.78830,0.01259
3448.72812,0.01209
3446.66795,0.01169
3444.60778,0.01172
3442.54761,0.01190
3440.48744,0.01192
3438.42726,0.01160
3436.36709,0.01142
3434.30692,0.01165
3432.24675,0.01185
3430.18657,0.01195
3428.12640,0.01210
3426.06623,0.01209
3424.00606,0.01198
3421.94589,0.01211
3419.88571,0.01218
3417.82554,0.01194
3415.76537,0.01172
3413.70520,0.01173
3411.64503,0.01189
3409.58485,0.01227
3407.52468,0.01271
3405.46451,0.01280
3403.40434,0.01274
3401.34416,0.01296
3399.28399,0.01331
3397.22382,0.01329
3395.16365,0.01287
3393.10348,0.01266
3391.04330,0.01278
3388.98313,0.01283
3386.92296,0.01289
3384.86279,0.01319
3382.80262,0.01365
3380.74244,0.01393
3378.68227,0.01389
3376.62210,0.01389
3374.56193,0.01400
3372.50176,0.01388
3370.44158,0.01368
3368.38141,0.01374
3366.32124,0.01367
3364.26107,0.01314
3362.20089,0.01278
3360.14072,0.01302
3358.08055,0.01341
3356.02038,0.01381
3353.96021,0.01441
3351.90003,0.01463
3349.83986,0.01421
3347.77969,0.01408
3345.71952,0.01450
3343.65935,0.01487
3341.59917,0.01492
3339.53900,0.01465
3337.47883,0.01434
3335.41866,0.01410
3333.35849,0.01394
3331.29831,0.01425
3329.23814,0.01485
3327.17797,0.01494
3325.11780,0.01438
3323.05762,0.01373
3320.99745,0.01349
3318.93728,0.01356
3316.87711,0.01376
3314.81694,0.01425
3312.75676,0.01490
3310.69659,0.01519
3308.63642,0.01490
3306.57625,0.01451
3304.51608,0.01459
3302.45590,0.01511
3300.39573,0.01547
3298.33556,0.01533
3296.27539,0.01510
3294.21521,0.01526
3292.15504,0.01562
3290.09487,0.01572
3288.03470,0.01539
3285.97453,0.01496
3283.91435,0.01476
3281.85418,0.01476
3279.79401,0.01483
3277.73384,0.01490
3275.67367,0.01485
3273.61349,0.01467
3271.55332,0.01468
3269.49315,0.01504
3267.43298,0.01525
3265.37281,0.01496
3263.31263,0.01462
3261.25246,0.01466
3259.19229,0.01497
3257.13212,0.01503
3255.07194,0.01483
3253.01177,0.01479
3250.95160,0.01499
3248.89143,0.01516
3246.83126,0.01514
3244.77108,0.01489
3242.71091,0.01460
3240.65074,0.01443
3238.59057,0.01446
3236.53040,0.01466
3234.47022,0.01478
3232.41005,0.01474
3230.34988,0.01463
3228.28971,0.01434
3226.22954,0.01410
3224.16936,0.01426
3222.10919,0.01457
3220.04902,0.01456
3217.98885,0.01423
3215.92867,0.01394
3213.86850,0.01403
3211.80833,0.01416
3209.74816,0.01391
3207.68799,0.01363
3205.62781,0.01354
3203.56764,0.01347
3201.50747,0.01337
3199.44730,0.01333
3197.38713,0.01358
3195.32695,0.01399
3193.26678,0.01402
3191.20661,0.01377
3189.14644,0.01365
3187.08626,0.01374
3185.02609,0.01393
3182.96592,0.01377
3180.90575,0.01321
3178.84558,0.01289
3176.78540,0.01314
3174.72523,0.01328
3172.66506,0.01310
3170.60489,0.01328
3168.54472,0.01370
3166.48454,0.01361
3164.42437,0.01314
3162.36420,0.01291
3160.30403,0.01309
3158.24386,0.01348
3156.18368,0.01368
3154.12351,0.01327
3152.06334,0.01267
3150.00317,0.01259
3147.94299,0.01277
3145.88282,0.01259
3143.82265,0.01221
3141.76248,0.01207
3139.70231,0.01218
3137.64213,0.01236
3135.58196,0.01245
3133.52179,0.01232
3131.46162,0.01211
3129.40145,0.01199
3127.34127,0.01191
3125.28110,0.01173
3123.22093,0.01145
3121.16076,0.01146
3119.10058,0.01187
3117.04041,0.01206
3114.98024,0.01178
3112.92007,0.01166
3110.85990,0.01194
3108.79972,0.01214
3106.73955,0.01208
3104.67938,0.01183
3102.61921,0.01168
3100.55904,0.01178
3098.49886,0.01168
3096.43869,0.01134
3094.37852,0.01130
3092.31835,0.01155
3090.25818,0.01152
3088.19800,0.01115
3086.13783,0.01100
3084.07766,0.01122
3082.01749,0.01124
3079.95731,0.01108
3077.89714,0.01125
3075.83697,0.01158
3073.77680,0.01162
3071.71663,0.01147
3069.65645,0.01148
3067.59628,0.01151
3065.53611,0.01142
3063.47594,0.01141
3061.41577,0.01150
3059.35559,0.01140
3057.29542,0.01098
3055.23525,0.01047
3053.17508,0.01027
3051.11491,0.01063
3049.05473,0.01122
3046.99456,0.01141
3044.93439,0.01106
3042.87422,0.01068
3040.81404,0.01059
3038.75387,0.01066
3036.69370,0.01077
3034.63353,0.01071
3032.57336,0.01032
3030.51318,0.00997
3028.45301,0.00985
3026.39284,0.00980
3024.33267,0.00986
3022.27250,0.01002
3020.21232,0.01001
3018.15215,0.00994
3016.09198,0.01011
3014.03181,0.01018
3011.97163,0.00987
3009.91146,0.00953
3007.85129,0.00966
3005.79112,0.01012
3003.73095,0.01026
3001.67077,0.01013
2999.61060,0.01015
2997.55043,0.01026
2995.49026,0.01035
2993.43009,0.01054
2991.36991,0.01071
2989.30974,0.01074
2987.24957,0.01068
2985.18940,0.01060
2983.12923,0.01048
2981.06905,0.01033
2979.00888,0.01022
2976.94871,0.01030
2974.88854,0.01046
2972.82836,0.01053
2970.76819,0.01078
2968.70802,0.01107
2966.64785,0.01116
2964.58768,0.01139
2962.52750,0.01181
2960.46733,0.01190
2958.40716,0.01161
2956.34699,0.01145
2954.28682,0.01151
2952.22664,0.01155
2950.16647,0.01156
2948.10630,0.01170
2946.04613,0.01189
2943.98596,0.01203
2941.92578,0.01212
2939.86561,0.01204
2937.80544,0.01205
2935.74527,0.01236
2933.68509,0.01277
2931.62492,0.01306
2929.56475,0.01300
2927.50458,0.01276
2925.44441,0.01285
2923.38423,0.01313
2921.32406,0.01318
2919.26389,0.01298
2917.20372,0.01272
2915.14355,0.01260
2913.08337,0.01244
2911.02320,0.01210
2908.96303,0.01180
2906.90286,0.01175
2904.84268,0.01184
2902.78251,0.01170
2900.72234,0.01166
2898.66217,0.01186
2896.60200,0.01171
2894.54182,0.01130
2892.48165,0.01133
2890.42148,0.01181
2888.36131,0.01220
2886.30114,0.01215
2884.24096,0.01186
2882.18079,0.01168
2880.12062,0.01156
2878.06045,0.01139
2876.00028,0.01140
2873.94010,0.01144
2871.87993,0.01130
2869.81976,0.01125
2867.75959,0.01127
2865.69941,0.01116
2863.63924,0.01114
2861.57907,0.01124
2859.51890,0.01121
2857.45873,0.01094
2855.39855,0.01058
2853.33838,0.01044
2851.27821,0.01057
2849.21804,0.01087
2847.15787,0.01094
2845.09769,0.01059
2843.03752,0.01032
2840.97735,0.01023
2838.91718,0.01006
2836.85700,0.00985
2834.79683,0.00977
2832.73666,0.00986
2830.67649,0.00990
2828.61632,0.00973
2826.55614,0.00956
2824.49597,0.00938
2822.43580,0.00903
2820.37563,0.00869
2818.31546,0.00858
2816.25528,0.00886
2814.19511,0.00922
2812.13494,0.00921
2810.07477,0.00912
2808.01460,0.00923
2805.95442,0.00923
2803.89425,0.00907
2801.83408,0.00893
2799.77391,0.00868
2797.71373,0.00843
2795.65356,0.00848
2793.59339,0.00860
2791.53322,0.00850
2789.47305,0.00834
2787.41287,0.00820
2785.35270,0.00812
2783.29253,0.00812
2781.23236,0.00812
2779.17219,0.00805
2777.11201,0.00792
2775.05184,0.00780
2772.99167,0.00782
2770.93150,0.00791
2768.87133,0.00784
2766.81115,0.00775
2764.75098,0.00774
2762.69081,0.00770
2760.63064,0.00769
2758.57046,0.00770
2756.51029,0.00768
2754.45012,0.00769
2752.38995,0.00774
2750.32978,0.00762
2748.26960,0.00731
2746.20943,0.00718
2744.14926,0.00726
2742.08909,0.00741
2740.02892,0.00756
2737.96874,0.00750
2735.90857,0.00733
2733.84840,0.00735
2731.78823,0.00734
2729.72805,0.00720
2727.66788,0.00723
2725.60771,0.00734
2723.54754,0.00741
2721.48737,0.00756
2719.42719,0.00754
2717.36702,0.00730
2715.30685,0.00722
2713.24668,0.00730
2711.18651,0.00727
2709.12633,0.00725
2707.06616,0.00740
2705.00599,0.00740
2702.94582,0.00717
2700.88565,0.00702
2698.82547,0.00701
2696.76530,0.00696
2694.70513,0.00693
2692.64496,0.00706
2690.58478,0.00723
2688.52461,0.00727
2686.46444,0.00727
2684.40427,0.00721
2682.34410,0.00698
2680.28392,0.00680
2678.22375,0.00687
2676.16358,0.00697
2674.10341,0.00689
2672.04324,0.00669
2669.98306,0.00661
2667.92289,0.00679
2665.86272,0.00710
2663.80255,0.00728
2661.74238,0.00738
2659.68220,0.00753
2657.62203,0.00762
2655.56186,0.00764
2653.50169,0.00770
2651.44151,0.00768
2649.38134,0.00742
2647.32117,0.00697
2645.26100,0.00668
2643.20083,0.00675
2641.14065,0.00687
2639.08048,0.00682
2637.02031,0.00671
2634.96014,0.00664
2632.89997,0.00661
2630.83979,0.00666
2628.77962,0.00668
2626.71945,0.00670
2624.65928,0.00695
2622.59910,0.00726
2620.53893,0.00726
2618.47876,0.00697
2616.41859,0.00663
2614.35842,0.00639
2612.29824,0.00627
2610.23807,0.00647
2608.17790,0.00701
2606.11773,0.00748
2604.05756,0.00736
2601.99738,0.00653
2599.93721,0.00568
2597.87704,0.00540
2595.81687,0.00541
2593.75670,0.00560
2591.69652,0.00618
2589.63635,0.00683
2587.57618,0.00722
2585.51601,0.00748
2583.45583,0.00750
2581.39566,0.00706
2579.33549,0.00643
2577.27532,0.00609
2575.21515,0.00619
2573.15497,0.00649
2571.09480,0.00676
2569.03463,0.00667
2566.97446,0.00633
2564.91429,0.00614
2562.85411,0.00607
2560.79394,0.00616
2558.73377,0.00674
2556.67360,0.00729
2554.61342,0.00721
2552.55325,0.00685
2550.49308,0.00682
2548.43291,0.00728
2546.37274,0.00741
2544.31256,0.00686
2542.25239,0.00656
2540.19222,0.00674
2538.13205,0.00664
2536.07188,0.00626
2534.01170,0.00609
2531.95153,0.00604
2529.89136,0.00592
2527.83119,0.00568
2525.77102,0.00554
2523.71084,0.00609
2521.65067,0.00676
2519.59050,0.00677
2517.53033,0.00656
2515.47015,0.00642
2513.40998,0.00631
2511.34981,0.00628
2509.28964,0.00661
2507.22947,0.00719
2505.16929,0.00709
2503.10912,0.00667
2501.04895,0.00703
2498.98878,0.00743
2496.92861,0.00702
2494.86843,0.00657
2492.80826,0.00672
2490.74809,0.00706
2488.68792,0.00717
2486.62775,0.00715
2484.56757,0.00714
2482.50740,0.00701
2480.44723,0.00646
2478.38706,0.00592
2476.32688,0.00636
2474.26671,0.00725
2472.20654,0.00736
2470.14637,0.00689
2468.08620,0.00660
2466.02602,0.00651
2463.96585,0.00660
2461.90568,0.00694
2459.84551,0.00708
2457.78534,0.00677
2455.72516,0.00656
2453.66499,0.00678
2451.60482,0.00722
2449.54465,0.00742
2447.48447,0.00726
2445.42430,0.00728
2443.36413,0.00713
2441.30396,0.00651
2439.24379,0.00620
2437.18361,0.00656
2435.12344,0.00729
2433.06327,0.00770
2431.00310,0.00741
2428.94293,0.00710
2426.88275,0.00711
2424.82258,0.00693
2422.76241,0.00681
2420.70224,0.00696
2418.64207,0.00689
2416.58189,0.00673
2414.52172,0.00681
2412.46155,0.00703
2410.40138,0.00714
2408.34120,0.00679
2406.28103,0.00635
2404.22086,0.00638
2402.16069,0.00679
2400.10052,0.00703
2398.04034,0.00685
2395.98017,0.00683
2393.92000,0.00706
2391.85983,0.00716
2389.79966,0.00706
2387.73948,0.00712
2385.67931,0.00739
2383.61914,0.00738
2381.55897,0.00683
2379.49880,0.00614
2377.43862,0.00602
2375.37845,0.00662
2373.31828,0.00763
2371.25811,0.00843
2369.19793,0.00843
2367.13776,0.00747
2365.07759,0.00598
2363.01742,0.00564
2360.95725,0.00801
2358.89707,0.00904
2356.83690,0.00714
2354.77673,0.00558
2352.71656,0.00628
2350.65639,0.00821
2348.59621,0.00874
2346.53604,0.00720
2344.47587,0.00746
2342.41570,0.00797
2340.35552,0.00711
2338.29535,0.00594
2336.23518,0.00540
2334.17501,0.00538
2332.11484,0.00557
2330.05466,0.00683
2327.99449,0.00860
2325.93432,0.00936
2323.87415,0.00858
2321.81398,0.00792
2319.75380,0.00756
2317.69363,0.00748
2315.63346,0.00728
2313.57329,0.00713
2311.51312,0.00694
2309.45294,0.00684
2307.39277,0.00726
2305.33260,0.00762
2303.27243,0.00726
2301.21225,0.00666
2299.15208,0.00671
2297.09191,0.00722
2295.03174,0.00744
2292.97157,0.00721
2290.91139,0.00689
2288.85122,0.00666
2286.79105,0.00648
2284.73088,0.00645
2282.67071,0.00677
2280.61053,0.00736
2278.55036,0.00758
2276.49019,0.00689
2274.43002,0.00590
2272.36984,0.00568
2270.30967,0.00645
2268.24950,0.00716
2266.18933,0.00710
2264.12916,0.00685
2262.06898,0.00660
2260.00881,0.00615
2257.94864,0.00609
2255.88847,0.00657
2253.82830,0.00689
2251.76812,0.00661
2249.70795,0.00626
2247.64778,0.00663
2245.58761,0.00743
2243.52744,0.00774
2241.46726,0.00744
2239.40709,0.00713
2237.34692,0.00657
2235.28675,0.00533
2233.22657,0.00451
2231.16640,0.00489
2229.10623,0.00503
2227.04606,0.00466
2224.98589,0.00506
2222.92571,0.00574
2220.86554,0.00584
2218.80537,0.00589
2216.74520,0.00614
2214.68503,0.00595
2212.62485,0.00561
2210.56468,0.00581
2208.50451,0.00642
2206.44434,0.00709
2204.38417,0.00733
2202.32399,0.00731
2200.26382,0.00742
2198.20365,0.00798
2196.14348,0.00906
2194.08330,0.00943
2192.02313,0.00887
2189.96296,0.00858
2187.90279,0.00851
2185.84262,0.00751
2183.78244,0.00560
2181.72227,0.00462
2179.66210,0.00532
2177.60193,0.00627
2175.54176,0.00652
2173.48158,0.00583
2171.42141,0.00519
2169.36124,0.00623
2167.30107,0.00729
2165.24089,0.00576
2163.18072,0.00347
2161.12055,0.00300
2159.06038,0.00452
2157.00021,0.00639
2154.94003,0.00641
2152.87986,0.00548
2150.81969,0.00445
2148.75952,0.00345
2146.69935,0.00401
2144.63917,0.00500
2142.57900,0.00396
2140.51883,0.00275
2138.45866,0.00335
2136.39849,0.00342
2134.33831,0.00244
2132.27814,0.00302
2130.21797,0.00454
2128.15780,0.00525
2126.09762,0.00510
2124.03745,0.00413
2121.97728,0.00327
2119.91711,0.00338
2117.85694,0.00421
2115.79676,0.00538
2113.73659,0.00595
2111.67642,0.00536
2109.61625,0.00499
2107.55608,0.00564
2105.49590,0.00576
2103.43573,0.00527
2101.37556,0.00544
2099.31539,0.00580
2097.25521,0.00608
2095.19504,0.00638
2093.13487,0.00628
2091.07470,0.00558
2089.01453,0.00509
2086.95435,0.00583
2084.89418,0.00710
2082.83401,0.00750
2080.77384,0.00670
2078.71367,0.00509
2076.65349,0.00365
2074.59332,0.00325
2072.53315,0.00364
2070.47298,0.00421
2068.41281,0.00516
2066.35263,0.00633
2064.29246,0.00662
2062.23229,0.00615
2060.17212,0.00648
2058.11194,0.00766
2056.05177,0.00765
2053.99160,0.00611
2051.93143,0.00524
2049.87126,0.00565
2047.81108,0.00676
2045.75091,0.00798
2043.69074,0.00858
2041.63057,0.00911
2039.57040,0.00924
2037.51022,0.00820
2035.45005,0.00722
2033.38988,0.00691
2031.32971,0.00661
2029.26954,0.00618
2027.20936,0.00548
2025.14919,0.00480
2023.08902,0.00416
2021.02885,0.00282
2018.96867,0.00201
2016.90850,0.00238
2014.84833,0.00164
2012.78816,0.00019
2010.72799,0.00000
2008.66781,0.00155
2006.60764,0.00467
2004.54747,0.00719
2002.48730,0.00761
2000.42713,0.00733
1998.36695,0.00771
1996.30678,0.00766
1994.24661,0.00580
1992.18644,0.00385
1990.12626,0.00429
1988.06609,0.00563
1986.00592,0.00548
1983.94575,0.00378
1981.88558,0.00150
1979.82540,0.00104
1977.76523,0.00306
1975.70506,0.00481
1973.64489,0.00539
1971.58472,0.00554
1969.52454,0.00507
1967.46437,0.00487
1965.40420,0.00592
1963.34403,0.00661
1961.28386,0.00579
1959.22368,0.00501
1957.16351,0.00551
1955.10334,0.00636
1953.04317,0.00648
1950.98299,0.00620
1948.92282,0.00594
1946.86265,0.00511
1944.80248,0.00431
1942.74231,0.00492
1940.68213,0.00580
1938.62196,0.00500
1936.56179,0.00374
1934.50162,0.00397
1932.44145,0.00492
1930.38127,0.00506
1928.32110,0.00464
1926.26093,0.00480
1924.20076,0.00543
1922.14059,0.00583
1920.08041,0.00571
1918.02024,0.00507
1915.96007,0.00444
1913.89990,0.00463
1911.83972,0.00565
1909.77955,0.00639
1907.71938,0.00609
1905.65921,0.00556
1903.59904,0.00559
1901.53886,0.00566
1899.47869,0.00532
1897.41852,0.00507
1895.35835,0.00527
1893.29818,0.00555
1891.23800,0.00527
1889.17783,0.00450
1887.11766,0.00397
1885.05749,0.00411
1882.99731,0.00462
1880.93714,0.00504
1878.87697,0.00525
1876.81680,0.00546
1874.75663,0.00567
1872.69645,0.00554
1870.63628,0.00512
1868.57611,0.00474
1866.51594,0.00445
1864.45577,0.00408
1862.39559,0.00383
1860.33542,0.00416
1858.27525,0.00483
1856.21508,0.00514
1854.15491,0.00505
1852.09473,0.00498
1850.03456,0.00498
1847.97439,0.00503
1845.91422,0.00527
1843.85404,0.00557
1841.79387,0.00562
1839.73370,0.00539
1837.67353,0.00510
1835.61336,0.00496
1833.55318,0.00502
1831.49301,0.00514
1829.43284,0.00524
1827.37267,0.00529
1825.31250,0.00512
1823.25232,0.00467
1821.19215,0.00428
1819.13198,0.00414
1817.07181,0.00420
1815.01163,0.00450
1812.95146,0.00500
1810.89129,0.00523
1808.83112,0.00504
1806.77095,0.00472
1804.71077,0.00450
1802.65060,0.00445
1800.59043,0.00462
1798.53026,0.00492
1796.47009,0.00502
1794.40991,0.00486
1792.34974,0.00476
1790.28957,0.00481
1788.22940,0.00471
1786.16923,0.00465
1784.10905,0.00494
1782.04888,0.00518
1779.98871,0.00515
1777.92854,0.00523
1775.86836,0.00532
1773.80819,0.00509
1771.74802,0.00476
1769.68785,0.00474
1767.62768,0.00500
1765.56750,0.00523
1763.50733,0.00519
1761.44716,0.00505
1759.38699,0.00509
1757.32682,0.00516
1755.26664,0.00518
1753.20647,0.00532
1751.14630,0.00568
1749.08613,0.00601
1747.02596,0.00618
1744.96578,0.00632
1742.90561,0.00636
1740.84544,0.00639
1738.78527,0.00654
1736.72509,0.00663
1734.66492,0.00669
1732.60475,0.00673
1730.54458,0.00647
1728.48441,0.00603
1726.42423,0.00576
1724.36406,0.00572
1722.30389,0.00571
1720.24372,0.00563
1718.18355,0.00564
1716.12337,0.00585
1714.06320,0.00594
1712.00303,0.00581
1709.94286,0.00565
1707.88268,0.00553
1705.82251,0.00542
1703.76234,0.00530
1701.70217,0.00541
1699.64200,0.00601
1697.58182,0.00677
1695.52165,0.00735
1693.46148,0.00778
1691.40131,0.00815
1689.34114,0.00851
1687.28096,0.00891
1685.22079,0.00938
1683.16062,0.01006
1681.10045,0.01093
1679.04028,0.01166
1676.98010,0.01200
1674.91993,0.01212
1672.85976,0.01236
1670.79959,0.01288
1668.73941,0.01367
1666.67924,0.01452
1664.61907,0.01532
1662.55890,0.01611
1660.49873,0.01677
1658.43855,0.01721
1656.37838,0.01747
1654.31821,0.01769
1652.25804,0.01787
1650.19787,0.01769
1648.13769,0.01732
1646.07752,0.01716
1644.01735,0.01713
1641.95718,0.01696
1639.89701,0.01670
1637.83683,0.01661
1635.77666,0.01665
1633.71649,0.01643
1631.65632,0.01607
1629.59614,0.01596
1627.53597,0.01601
1625.47580,0.01575
1623.41563,0.01515
1621.35546,0.01470
1619.29528,0.01459
1617.23511,0.01462
1615.17494,0.01471
1613.11477,0.01487
1611.05460,0.01501
1608.99442,0.01495
1606.93425,0.01475
1604.87408,0.01464
1602.81391,0.01472
1600.75373,0.01488
1598.69356,0.01495
1596.63339,0.01476
1594.57322,0.01447
1592.51305,0.01436
1590.45287,0.01438
1588.39270,0.01425
1586.33253,0.01394
1584.27236,0.01360
1582.21219,0.01341
1580.15201,0.01332
1578.09184,0.01315
1576.03167,0.01287
1573.97150,0.01273
1571.91133,0.01280
1569.85115,0.01272
1567.79098,0.01230
1565.73081,0.01188
1563.67064,0.01177
1561.61046,0.01183
1559.55029,0.01173
1557.49012,0.01150
1555.42995,0.01156
1553.36978,0.01179
1551.30960,0.01181
1549.24943,0.01155
1547.18926,0.01124
1545.12909,0.01094
1543.06892,0.01059
1541.00874,0.01035
1538.94857,0.01018
1536.88840,0.00987
1534.82823,0.00942
1532.76805,0.00901
1530.70788,0.00879
1528.64771,0.00871
1526.58754,0.00862
1524.52737,0.00849
1522.46719,0.00853
1520.40702,0.00875
1518.34685,0.00874
1516.28668,0.00840
1514.22651,0.00806
1512.16633,0.00792
1510.10616,0.00795
1508.04599,0.00809
1505.98582,0.00826
1503.92565,0.00808
1501.86547,0.00756
1499.80530,0.00707
1497.74513,0.00686
1495.68496,0.00675
1493.62478,0.00652
1491.56461,0.00630
1489.50444,0.00623
1487.44427,0.00625
1485.38410,0.00630
1483.32392,0.00630
1481.26375,0.00620
1479.20358,0.00607
1477.14341,0.00601
1475.08324,0.00629
1473.02306,0.00690
1470.96289,0.00729
1468.90272,0.00726
1466.84255,0.00719
1464.78238,0.00742
1462.72220,0.00789
1460.66203,0.00839
1458.60186,0.00869
1456.54169,0.00855
1454.48151,0.00821
1452.42134,0.00812
1450.36117,0.00833
1448.30100,0.00869
1446.24083,0.00895
1444.18065,0.00910
1442.12048,0.00913
1440.06031,0.00897
1438.00014,0.00873
1435.93997,0.00863
1433.87979,0.00858
1431.81962,0.00854
1429.75945,0.00869
1427.69928,0.00895
1425.63910,0.00919
1423.57893,0.00942
1421.51876,0.00956
1419.45859,0.00951
1417.39842,0.00939
1415.33824,0.00936
1413.27807,0.00951
1411.21790,0.00982
1409.15773,0.01010
1407.09756,0.01015
1405.03738,0.00999
1402.97721,0.00976
1400.91704,0.00969
1398.85687,0.00972
1396.79670,0.00965
1394.73652,0.00952
1392.67635,0.00939
1390.61618,0.00921
1388.55601,0.00913
1386.49583,0.00930
1384.43566,0.00957
1382.37549,0.00976
1380.31532,0.00985
1378.25515,0.00987
1376.19497,0.00987
1374.13480,0.00977
1372.07463,0.00953
1370.01446,0.00939
1367.95429,0.00944
1365.89411,0.00938
1363.83394,0.00923
1361.77377,0.00927
1359.71360,0.00943
1357.65343,0.00948
1355.59325,0.00945
1353.53308,0.00942
1351.47291,0.00922
1349.41274,0.00884
1347.35256,0.00855
1345.29239,0.00839
1343.23222,0.00822
1341.17205,0.00794
1339.11188,0.00759
1337.05170,0.00723
1334.99153,0.00695
1332.93136,0.00688
1330.87119,0.00700
1328.81102,0.00720
1326.75084,0.00736
1324.69067,0.00731
1322.63050,0.00706
1320.57033,0.00695
1318.51015,0.00707
1316.44998,0.00711
1314.38981,0.00702
1312.32964,0.00704
1310.26947,0.00710
1308.20929,0.00708
1306.14912,0.00700
1304.08895,0.00687
1302.02878,0.00677
1299.96861,0.00686
1297.90843,0.00706
1295.84826,0.00716
1293.78809,0.00717
1291.72792,0.00720
1289.66775,0.00728
1287.60757,0.00733
1285.54740,0.00708
1283.48723,0.00663
1281.42706,0.00632
1279.36688,0.00622
1277.30671,0.00625
1275.24654,0.00638
1273.18637,0.00651
1271.12620,0.00654
1269.06602,0.00644
1267.00585,0.00635
1264.94568,0.00639
1262.88551,0.00648
1260.82534,0.00657
1258.76516,0.00685
1256.70499,0.00719
1254.64482,0.00725
1252.58465,0.00710
1250.52447,0.00696
1248.46430,0.00688
1246.40413,0.00686
1244.34396,0.00694
1242.28379,0.00715
1240.22361,0.00728
1238.16344,0.00701
1236.10327,0.00658
1234.04310,0.00648
1231.98293,0.00661
1229.92275,0.00662
1227.86258,0.00640
1225.80241,0.00613
1223.74224,0.00600
1221.68207,0.00601
1219.62189,0.00602
1217.56172,0.00588
1215.50155,0.00564
1213.44138,0.00557
1211.38120,0.00578
1209.32103,0.00594
1207.26086,0.00593
1205.20069,0.00601
1203.14052,0.00620
1201.08034,0.00626
1199.02017,0.00622
1196.96000,0.00635
1194.89983,0.00675
1192.83966,0.00722
1190.77948,0.00766
1188.71931,0.00816
1186.65914,0.00871
1184.59897,0.00934
1182.53880,0.00990
1180.47862,0.01026
1178.41845,0.01065
1176.35828,0.01131
1174.29811,0.01218
1172.23793,0.01288
1170.17776,0.01331
1168.11759,0.01373
1166.05742,0.01427
1163.99725,0.01475
1161.93707,0.01524
1159.87690,0.01610
1157.81673,0.01691
1155.75656,0.01719
1153.69639,0.01753
1151.63621,0.01812
1149.57604,0.01872
1147.51587,0.01935
1145.45570,0.01981
1143.39552,0.02014
1141.33535,0.02062
1139.27518,0.02097
1137.21501,0.02095
1135.15484,0.02094
1133.09466,0.02139
1131.03449,0.02208
1128.97432,0.02246
1126.91415,0.02254
1124.85398,0.02274
1122.79380,0.02314
1120.73363,0.02342
1118.67346,0.02335
1116.61329,0.02311
1114.55312,0.02316
1112.49294,0.02362
1110.43277,0.02419
1108.37260,0.02475
1106.31243,0.02519
1104.25225,0.02535
1102.19208,0.02550
1100.13191,0.02578
1098.07174,0.02610
1096.01157,0.02647
1093.95139,0.02678
1091.89122,0.02723
1089.83105,0.02768
1087.77088,0.02782
1085.71071,0.02801
1083.65053,0.02854
1081.59036,0.02901
1079.53019,0.02933
1077.47002,0.02974
1075.40985,0.02995
1073.34967,0.02972
1071.28950,0.02947
1069.22933,0.02946
1067.16916,0.02935
1065.10898,0.02898
1063.04881,0.02856
1060.98864,0.02834
1058.92847,0.02816
1056.86830,0.02780
1054.80812,0.02732
1052.74795,0.02686
1050.68778,0.02666
1048.62761,0.02654
1046.56744,0.02615
1044.50726,0.02580
1042.44709,0.02570
1040.38692,0.02541
1038.32675,0.02485
1036.26657,0.02431
1034.20640,0.02372
1032.14623,0.02307
1030.08606,0.02243
1028.02589,0.02165
1025.96571,0.02093
1023.90554,0.02044
1021.84537,0.02003
1019.78520,0.01952
1017.72503,0.01907
1015.66485,0.01859
1013.60468,0.01813
1011.54451,0.01811
1009.48434,0.01822
1007.42417,0.01812
1005.36399,0.01820
1003.30382,0.01843
1001.24365,0.01824
999.18348,0.01769
997.12330,0.01752
995.06313,0.01770
993.00296,0.01742
990.94279,0.01686
988.88262,0.01689
986.82244,0.01740
984.76227,0.01764
982.70210,0.01739
980.64193,0.01713
978.58176,0.01695
976.52158,0.01688
974.46141,0.01704
972.40124,0.01716
970.34107,0.01702
968.28089,0.01649
966.22072,0.01600
964.16055,0.01603
962.10038,0.01594
960.04021,0.01531
957.98003,0.01484
955.91986,0.01485
953.85969,0.01485
951.79952,0.01473
949.73935,0.01479
947.67917,0.01503
945.61900,0.01485
943.55883,0.01403
941.49866,0.01313
939.43849,0.01266
937.37831,0.01258
935.31814,0.01240
933.25797,0.01202
931.19780,0.01167
929.13762,0.01119
927.07745,0.01055
925.01728,0.00993
922.95711,0.00934
920.89694,0.00904
918.83676,0.00918
916.77659,0.00885
914.71642,0.00773
912.65625,0.00715
910.59608,0.00744
908.53590,0.00745
906.47573,0.00687
904.41556,0.00644
902.35539,0.00648
900.29522,0.00676
898.23504,0.00667
896.17487,0.00582
894.11470,0.00508
892.05453,0.00528
889.99435,0.00563
887.93418,0.00566
885.87401,0.00598
883.81384,0.00669
881.75367,0.00746
879.69349,0.00805
877.63332,0.00829
875.57315,0.00841
873.51298,0.00892
871.45281,0.00974
869.39263,0.01060
867.33246,0.01147
865.27229,0.01211
863.21212,0.01303
861.15194,0.01449
859.09177,0.01520
857.03160,0.01497
854.97143,0.01457
852.91126,0.01423
850.85108,0.01432
848.79091,0.01466
846.73074,0.01459
844.67057,0.01431
842.61040,0.01385
840.55022,0.01282
838.49005,0.01199
836.42988,0.01221
834.36971,0.01280
832.30954,0.01288
830.24936,0.01256
828.18919,0.01212
826.12902,0.01175
824.06885,0.01149
822.00867,0.01102
819.94850,0.01039
817.88833,0.00994
815.82816,0.00952
813.76799,0.00890
811.70781,0.00834
809.64764,0.00814
807.58747,0.00827
805.52730,0.00876
803.46713,0.00931
801.40695,0.00902
799.34678,0.00808
797.28661,0.00756
795.22644,0.00768
793.16627,0.00769
791.10609,0.00694
789.04592,0.00601
786.98575,0.00606
784.92558,0.00682
782.86540,0.00661
780.80523,0.00549
778.74506,0.00533
776.68489,0.00617
774.62472,0.00669
772.56454,0.00673
770.50437,0.00676
768.44420,0.00677
766.38403,0.00675
764.32386,0.00667
762.26368,0.00638
760.20351,0.00615
758.14334,0.00599
756.08317,0.00564
754.02299,0.00534
751.96282,0.00535
749.90265,0.00537
747.84248,0.00520
745.78231,0.00524
743.72213,0.00559
741.66196,0.00545
739.60179,0.00495
737.54162,0.00512
735.48145,0.00575
733.42127,0.00579
731.36110,0.00492
729.30093,0.00399
727.24076,0.00408
725.18059,0.00484
723.12041,0.00557
721.06024,0.00595
719.00007,0.00622
716.93990,0.00602
714.87972,0.00584
712.81955,0.00565
710.75938,0.00470
708.69921,0.00356
706.63904,0.00311
704.57886,0.00321
702.51869,0.00376
700.45852,0.00451
698.39835,0.00500
696.33818,0.00520
694.27800,0.00516
692.21783,0.00483
690.15766,0.00467
688.09749,0.00508
686.03731,0.00588
683.97714,0.00629
681.91697,0.00547
679.85680,0.00402
677.79663,0.00348
675.73645,0.00472
673.67628,0.00759
671.61611,0.01105
669.55594,0.01174
667.49577,0.01009
665.43559,0.01097
663.37542,0.00863
661.31525,0.00607
659.25508,0.00487
657.19491,0.00479
655.13473,0.00481
653.07456,0.00468
651.01439,0.00499
648.95422,0.00566
646.89404,0.00621
644.83387,0.00628
642.77370,0.00558
640.71353,0.00457
638.65336,0.00461
636.59318,0.00576
634.53301,0.00656
632.47284,0.00618
630.41267,0.00635
628.35250,0.00895
626.29232,0.01254
624.23215,0.01366
622.17198,0.01269
620.11181,0.01134
618.05164,0.01083
615.99146,0.01179
613.93129,0.01243
611.87112,0.01145
609.81095,0.00895
607.75077,0.00572
605.69060,0.00241
603.63043,0.00000
601.57026,-0.00144
599.51009,0.00000
