3996.73391,0.00026
3994.67373,0.00020
3992.61356,0.00019
3990.55339,0.00008
3988.49322,0.00000
3986.43305,0.00035
3984.37287,0.00094
3982.31270,0.00106
3980.25253,0.00070
3978.19236,0.00044
3976.13219,0.00057
3974.07201,0.00086
3972.01184,0.00105
3969.95167,0.00117
3967.89150,0.00122
3965.83133,0.00108
3963.77115,0.00088
3961.71098,0.00088
3959.65081,0.00098
3957.59064,0.00095
3955.53046,0.00079
3953.47029,0.00076
3951.41012,0.00082
3949.34995,0.00071
3947.28978,0.00061
3945.22960,0.00078
3943.16943,0.00107
3941.10926,0.00127
3939.04909,0.00125
3936.98892,0.00096
3934.92874,0.00053
3932.86857,0.00024
3930.80840,0.00023
3928.74823,0.00044
3926.68805,0.00067
3924.62788,0.00089
3922.56771,0.00107
3920.50754,0.00097
3918.44737,0.00063
3916.38719,0.00047
3914.32702,0.00053
3912.26685,0.00061
3910.20668,0.00070
3908.14651,0.00082
3906.08633,0.00088
3904.02616,0.00073
3901.96599,0.00045
3899.90582,0.00051
3897.84565,0.00095
3895.78547,0.00120
3893.72530,0.00113
3891.66513,0.00092
3889.60496,0.00058
3887.54478,0.00021
3885.48461,0.00017
3883.42444,0.00049
3881.36427,0.00086
3879.30410,0.00108
3877.24392,0.00098
3875.18375,0.00073
3873.12358,0.00063
3871.06341,0.00055
3869.00324,0.00044
3866.94306,0.00062
3864.88289,0.00106
3862.82272,0.00132
3860.76255,0.00135
3858.70237,0.00130
3856.64220,0.00107
3854.58203,0.00085
3852.52186,0.00103
3850.46169,0.00121
3848.40151,0.00112
3846.34134,0.00101
3844.28117,0.00088
3842.22100,0.00060
3840.16083,0.00037
3838.10065,0.00038
3836.04048,0.00050
3833.98031,0.00071
3831.92014,0.00106
3829.85997,0.00126
3827.79979,0.00116
3825.73962,0.00088
3823.67945,0.00055
3821.61928,0.00043
3819.55910,0.00074
3817.49893,0.00119
3815.43876,0.00143
3813.37859,0.00140
3811.31842,0.00119
3809.25824,0.00081
3807.19807,0.00045
3805.13790,0.00034
3803.07773,0.00040
3801.01756,0.00060
3798.95738,0.00077
3796.89721,0.00070
3794.83704,0.00062
3792.77687,0.00080
3790.71670,0.00099
3788.65652,0.00092
3786.59635,0.00079
3784.53618,0.00090
3782.47601,0.00123
3780.41583,0.00155
3778.35566,0.00160
3776.29549,0.00138
3774.23532,0.00109
3772.17515,0.00084
3770.11497,0.00077
3768.05480,0.00098
3765.99463,0.00125
3763.93446,0.00144
3761.87429,0.00146
3759.81411,0.00131
3757.75394,0.00114
3755.69377,0.00085
3753.63360,0.00032
3751.57342,0.00001
3749.51325,0.00034
3747.45308,0.00077
3745.39291,0.00086
3743.33274,0.00106
3741.27256,0.00143
3739.21239,0.00159
3737.15222,0.00134
3735.09205,0.00078
3733.03188,0.00075
3730.97170,0.00150
3728.91153,0.00222
3726.85136,0.00221
3724.79119,0.00152
3722.73102,0.00098
3720.67084,0.00097
3718.61067,0.00132
3716.55050,0.00174
3714.49033,0.00214
3712.43015,0.00254
3710.36998,0.00254
3708.30981,0.00208
3706.24964,0.00170
3704.18947,0.00164
3702.12929,0.00151
3700.06912,0.00123
3698.00895,0.00118
3695.94878,0.00139
3693.88861,0.00136
3691.82843,0.00085
3689.76826,0.00057
3687.70809,0.00106
3685.64792,0.00163
3683.58775,0.00177
3681.52757,0.00151
3679.46740,0.00100
3677.40723,0.00053
3675.34706,0.00058
3673.28688,0.00107
3671.22671,0.00138
3669.16654,0.00132
3667.10637,0.00115
3665.04620,0.00125
3662.98602,0.00174
3660.92585,0.00241
3658.86568,0.00286
3656.80551,0.00287
3654.74534,0.00271
3652.68516,0.00279
3650.62499,0.00297
3648.56482,0.00304
3646.50465,0.00297
3644.44447,0.00261
3642.38430,0.00217
3640.32413,0.00214
3638.26396,0.00245
3636.20379,0.00266
3634.14361,0.00272
3632.08344,0.00289
3630.02327,0.00321
3627.96310,0.00344
3625.90293,0.00352
3623.84275,0.00331
3621.78258,0.00280
3619.72241,0.00258
3617.66224,0.00324
3615.60207,0.00407
3613.54189,0.00427
3611.48172,0.00407
3609.42155,0.00384
3607.36138,0.00363
3605.30120,0.00352
3603.24103,0.00367
3601.18086,0.00422
3599.12069,0.00473
3597.06052,0.00472
3595.00034,0.00448
3592.94017,0.00469
3590.88000,0.00523
3588.81983,0.00566
3586.75966,0.00577
3584.69948,0.00570
3582.63931,0.00575
3580.57914,0.00590
3578.51897,0.00595
3576.45879,0.00597
3574.39862,0.00622
3572.33845,0.00658
3570.27828,0.00661
3568.21811,0.00621
3566.15793,0.00583
3564.09776,0.00590
3562.03759,0.00626
3559.97742,0.00665
3557.91725,0.00689
3555.85707,0.00718
3553.79690,0.00747
3551.73673,0.00738
3549.67656,0.00702
3547.61639,0.00702
3545.55621,0.00758
3543.49604,0.00806
3541.43587,0.00810
3539.37570,0.00818
3537.31552,0.00857
3535.25535,0.00889
3533.19518,0.00891
3531.13501,0.00886
3529.07484,0.00897
3527.01466,0.00926
3524.95449,0.00956
3522.89432,0.00978
3520.83415,0.00986
3518.77398,0.00978
3516.71380,0.00968
3514.65363,0.00971
3512.59346,0.00996
3510.53329,0.01026
3508.47312,0.01037
3506.41294,0.01032
3504.35277,0.01037
3502.29260,0.01049
3500.23243,0.01063
3498.17225,0.01095
3496.11208,0.01138
3494.05191,0.01157
3491.99174,0.01153
3489.93157,0.01171
3487.87139,0.01215
3485.81122,0.01240
3483.75105,0.01227
3481.69088,0.01208
3479.63071,0.01214
3477.57053,0.01233
3475.51036,0.01224
3473.45019,0.01201
3471.39002,0.01208
3469.32984,0.01236
3467.26967,0.01252
3465.20950,0.01251
3463.14933,0.01240
3461.08916,0.01228
3459.02898,0.01227
3456.96881,0.01245
3454.90864,0.01271
3452.84847,0.01286
3450.78830,0.01292
3448.72812,0.01289
3446.66795,0.01276
3444.60778,0.01288
3442.54761,0.01342
3440.48744,0.01420
3438.42726,0.01461
3436.36709,0.01427
3434.30692,0.01375
3432.24675,0.01367
3430.18657,0.01389
3428.12640,0.01412
3426.06623,0.01436
3424.00606,0.01469
3421.94589,0.01467
3419.88571,0.01417
3417.82554,0.01391
3415.76537,0.01409
3413.70520,0.01425
3411.64503,0.01420
3409.58485,0.01423
3407.52468,0.01438
3405.46451,0.01434
3403.40434,0.01432
3401.34416,0.01464
3399.28399,0.01500
3397.22382,0.01522
3395.16365,0.01533
3393.10348,0.01538
3391.04330,0.01547
3388.98313,0.01571
3386.92296,0.01599
3384.86279,0.01607
3382.80262,0.01589
3380.74244,0.01567
3378.68227,0.01572
3376.62210,0.01594
3374.56193,0.01595
3372.50176,0.01571
3370.44158,0.01551
3368.38141,0.01545
3366.32124,0.01548
3364.26107,0.01561
3362.20089,0.01589
3360.14072,0.01613
3358.08055,0.01611
3356.02038,0.01597
3353.96021,0.01604
3351.90003,0.01627
3349.83986,0.01637
3347.77969,0.01625
3345.71952,0.01607
3343.65935,0.01604
3341.59917,0.01629
3339.53900,0.01664
3337.47883,0.01677
3335.41866,0.01671
3333.35849,0.01657
3331.29831,0.01649
3329.23814,0.01662
3327.17797,0.01672
3325.11780,0.01667
3323.05762,0.01664
3320.99745,0.01677
3318.93728,0.01693
3316.87711,0.01692
3314.81694,0.01682
3312.75676,0.01673
3310.69659,0.01683
3308.63642,0.01707
3306.57625,0.01704
3304.51608,0.01680
3302.45590,0.01660
3300.39573,0.01651
3298.33556,0.01658
3296.27539,0.01690
3294.21521,0.01724
3292.15504,0.01733
3290.09487,0.01725
3288.03470,0.01708
3285.97453,0.01706
3283.91435,0.01730
3281.85418,0.01750
3279.79401,0.01771
3277.73384,0.01799
3275.67367,0.01793
3273.61349,0.01755
3271.55332,0.01726
3269.49315,0.01696
3267.43298,0.01672
3265.37281,0.01700
3263.31263,0.01770
3261.25246,0.01810
3259.19229,0.01789
3257.13212,0.01732
3255.07194,0.01685
3253.01177,0.01696
3250.95160,0.01738
3248.89143,0.01755
3246.83126,0.01767
3244.77108,0.01797
3242.71091,0.01809
3240.65074,0.01789
3238.59057,0.01755
3236.53040,0.01723
3234.47022,0.01703
3232.41005,0.01708
3230.34988,0.01737
3228.28971,0.01778
3226.22954,0.01800
3224.16936,0.01797
3222.10919,0.01797
3220.04902,0.01809
3217.98885,0.01811
3215.92867,0.01797
3213.86850,0.01784
3211.80833,0.01769
3209.74816,0.01741
3207.68799,0.01732
3205.62781,0.01753
3203.56764,0.01770
3201.50747,0.01765
3199.44730,0.01758
3197.38713,0.01769
3195.32695,0.01781
3193.26678,0.01774
3191.20661,0.01782
3189.14644,0.01812
3187.08626,0.01822
3185.02609,0.01805
3182.96592,0.01794
3180.90575,0.01805
3178.84558,0.01822
3176.78540,0.01819
3174.72523,0.01798
3172.66506,0.01786
3170.60489,0.01790
3168.54472,0.01792
3166.48454,0.01773
3164.42437,0.01751
3162.36420,0.01748
3160.30403,0.01758
3158.24386,0.01760
3156.18368,0.01750
3154.12351,0.01731
3152.06334,0.01702
3150.00317,0.01678
3147.94299,0.01672
3145.88282,0.01672
3143.82265,0.01672
3141.76248,0.01683
3139.70231,0.01692
3137.64213,0.01688
3135.58196,0.01691
3133.52179,0.01695
3131.46162,0.01698
3129.40145,0.01710
3127.34127,0.01710
3125.28110,0.01705
3123.22093,0.01721
3121.16076,0.01732
3119.10058,0.01727
3117.04041,0.01732
3114.98024,0.01735
3112.92007,0.01722
3110.85990,0.01697
3108.79972,0.01677
3106.73955,0.01677
3104.67938,0.01676
3102.61921,0.01657
3100.55904,0.01642
3098.49886,0.01642
3096.43869,0.01651
3094.37852,0.01666
3092.31835,0.01674
3090.25818,0.01672
3088.19800,0.01662
3086.13783,0.01642
3084.07766,0.01623
3082.01749,0.01617
3079.95731,0.01614
3077.89714,0.01607
3075.83697,0.01584
3073.77680,0.01554
3071.71663,0.01543
3069.65645,0.01543
3067.59628,0.01529
3065.53611,0.01512
3063.47594,0.01512
3061.41577,0.01534
3059.35559,0.01555
3057.29542,0.01552
3055.23525,0.01541
3053.17508,0.01544
3051.11491,0.01553
3049.05473,0.01560
3046.99456,0.01556
3044.93439,0.01532
3042.87422,0.01499
3040.81404,0.01475
3038.75387,0.01456
3036.69370,0.01434
3034.63353,0.01422
3032.57336,0.01426
3030.51318,0.01436
3028.45301,0.01440
3026.39284,0.01425
3024.33267,0.01401
3022.27250,0.01391
3020.21232,0.01389
3018.15215,0.01389
3016.09198,0.01393
3014.03181,0.01397
3011.97163,0.01397
3009.91146,0.01395
3007.85129,0.01390
3005.79112,0.01383
3003.73095,0.01372
3001.67077,0.01364
2999.61060,0.01354
2997.55043,0.01336
2995.49026,0.01326
2993.43009,0.01329
2991.36991,0.01318
2989.30974,0.01301
2987.24957,0.01298
2985.18940,0.01288
2983.12923,0.01257
2981.06905,0.01245
2979.00888,0.01259
2976.94871,0.01263
2974.88854,0.01269
2972.82836,0.01277
2970.76819,0.01275
2968.70802,0.01270
2966.64785,0.01262
2964.58768,0.01248
2962.52750,0.01225
2960.46733,0.01210
2958.40716,0.01215
2956.34699,0.01218
2954.28682,0.01208
2952.22664,0.01193
2950.16647,0.01197
2948.10630,0.01212
2946.04613,0.01205
2943.98596,0.01182
2941.92578,0.01167
2939.86561,0.01165
2937.80544,0.01164
2935.74527,0.01160
2933.68509,0.01156
2931.62492,0.01153
2929.56475,0.01154
2927.50458,0.01157
2925.44441,0.01155
2923.38423,0.01136
2921.32406,0.01109
2919.26389,0.01106
2917.20372,0.01112
2915.14355,0.01102
2913.08337,0.01099
2911.02320,0.01111
2908.96303,0.01108
2906.90286,0.01101
2904.84268,0.01109
2902.78251,0.01102
2900.72234,0.01079
2898.66217,0.01072
2896.60200,0.01071
2894.54182,0.01076
2892.48165,0.01083
2890.42148,0.01086
2888.36131,0.01091
2886.30114,0.01081
2884.24096,0.01053
2882.18079,0.01037
2880.12062,0.01038
2878.06045,0.01037
2876.00028,0.01018
2873.94010,0.00990
2871.87993,0.00983
2869.81976,0.01005
2867.75959,0.01030
2865.69941,0.01032
2863.63924,0.01014
2861.57907,0.00990
2859.51890,0.00957
2857.45873,0.00936
2855.39855,0.00937
2853.33838,0.00933
2851.27821,0.00913
2849.21804,0.00909
2847.15787,0.00931
2845.09769,0.00941
2843.03752,0.00930
2840.97735,0.00930
2838.91718,0.00944
2836.85700,0.00949
2834.79683,0.00939
2832.73666,0.00925
2830.67649,0.00918
2828.61632,0.00917
2826.55614,0.00911
2824.49597,0.00902
2822.43580,0.00901
2820.37563,0.00895
2818.31546,0.00873
2816.25528,0.00859
2814.19511,0.00864
2812.13494,0.00873
2810.07477,0.00877
2808.01460,0.00871
2805.95442,0.00865
2803.89425,0.00863
2801.83408,0.00856
2799.77391,0.00855
2797.71373,0.00863
2795.65356,0.00855
2793.59339,0.00835
2791.53322,0.00822
2789.47305,0.00805
2787.41287,0.00779
2785.35270,0.00756
2783.29253,0.00731
2781.23236,0.00720
2779.17219,0.00749
2777.11201,0.00791
2775.05184,0.00807
2772.99167,0.00799
2770.93150,0.00781
2768.87133,0.00765
2766.81115,0.00757
2764.75098,0.00745
2762.69081,0.00726
2760.63064,0.00734
2758.57046,0.00767
2756.51029,0.00784
2754.45012,0.00783
2752.38995,0.00780
2750.32978,0.00773
2748.26960,0.00762
2746.20943,0.00749
2744.14926,0.00729
2742.08909,0.00711
2740.02892,0.00708
2737.96874,0.00712
2735.90857,0.00718
2733.84840,0.00729
2731.78823,0.00722
2729.72805,0.00685
2727.66788,0.00658
2725.60771,0.00668
2723.54754,0.00682
2721.48737,0.00669
2719.42719,0.00650
2717.36702,0.00662
2715.30685,0.00686
2713.24668,0.00686
2711.18651,0.00664
2709.12633,0.00640
2707.06616,0.00633
2705.00599,0.00643
2702.94582,0.00641
2700.88565,0.00623
2698.82547,0.00612
2696.76530,0.00609
2694.70513,0.00607
2692.64496,0.00610
2690.58478,0.00613
2688.52461,0.00611
2686.46444,0.00609
2684.40427,0.00613
2682.34410,0.00608
2680.28392,0.00589
2678.22375,0.00584
2676.16358,0.00601
2674.10341,0.00606
2672.04324,0.00599
2669.98306,0.00592
2667.92289,0.00580
2665.86272,0.00566
2663.80255,0.00559
2661.74238,0.00553
2659.68220,0.00560
2657.62203,0.00577
2655.56186,0.00574
2653.50169,0.00553
2651.44151,0.00541
2649.38134,0.00553
2647.32117,0.00571
2645.26100,0.00564
2643.20083,0.00532
2641.14065,0.00504
2639.08048,0.00509
2637.02031,0.00541
2634.96014,0.00563
2632.89997,0.00566
2630.83979,0.00558
2628.77962,0.00543
2626.71945,0.00527
2624.65928,0.00506
2622.59910,0.00485
2620.53893,0.00477
2618.47876,0.00486
2616.41859,0.00507
2614.35842,0.00508
2612.29824,0.00482
2610.23807,0.00457
2608.17790,0.00455
2606.11773,0.00465
2604.05756,0.00454
2601.99738,0.00434
2599.93721,0.00424
2597.87704,0.00413
2595.81687,0.00403
2593.75670,0.00399
2591.69652,0.00409
2589.63635,0.00431
2587.57618,0.00445
2585.51601,0.00464
2583.45583,0.00491
2581.39566,0.00473
2579.33549,0.00430
2577.27532,0.00428
2575.21515,0.00437
2573.15497,0.00437
2571.09480,0.00445
2569.03463,0.00451
2566.97446,0.00456
2564.91429,0.00453
2562.85411,0.00439
2560.79394,0.00435
2558.73377,0.00438
2556.67360,0.00437
2554.61342,0.00445
2552.55325,0.00457
2550.49308,0.00435
2548.43291,0.00396
2546.37274,0.00403
2544.31256,0.00418
2542.25239,0.00402
2540.19222,0.00391
2538.13205,0.00386
2536.07188,0.00369
2534.01170,0.00373
2531.95153,0.00403
2529.89136,0.00405
2527.83119,0.00390
2525.77102,0.00396
2523.71084,0.00408
2521.65067,0.00410
2519.59050,0.00406
2517.53033,0.00403
2515.47015,0.00403
2513.40998,0.00422
2511.34981,0.00452
2509.28964,0.00431
2507.22947,0.00377
2505.16929,0.00361
2503.10912,0.00374
2501.04895,0.00374
2498.98878,0.00368
2496.92861,0.00394
2494.86843,0.00428
2492.80826,0.00432
2490.74809,0.00422
2488.68792,0.00418
2486.62775,0.00412
2484.56757,0.00406
2482.50740,0.00408
2480.44723,0.00411
2478.38706,0.00426
2476.32688,0.00452
2474.26671,0.00461
2472.20654,0.00437
2470.14637,0.00407
2468.08620,0.00414
2466.02602,0.00452
2463.96585,0.00462
2461.90568,0.00446
2459.84551,0.00460
2457.78534,0.00492
2455.72516,0.00495
2453.66499,0.00478
2451.60482,0.00469
2449.54465,0.00466
2447.48447,0.00455
2445.42430,0.00437
2443.36413,0.00450
2441.30396,0.00480
2439.24379,0.00471
2437.18361,0.00454
2435.12344,0.00459
2433.06327,0.00446
2431.00310,0.00414
2428.94293,0.00406
2426.88275,0.00422
2424.82258,0.00438
2422.76241,0.00445
2420.70224,0.00440
2418.64207,0.00450
2416.58189,0.00476
2414.52172,0.00504
2412.46155,0.00522
2410.40138,0.00503
2408.34120,0.00473
2406.28103,0.00467
2404.22086,0.00468
2402.16069,0.00467
2400.10052,0.00462
2398.04034,0.00433
2395.98017,0.00410
2393.92000,0.00402
2391.85983,0.00413
2389.79966,0.00434
2387.73948,0.00438
2385.67931,0.00425
2383.61914,0.00426
2381.55897,0.00452
2379.49880,0.00492
2377.43862,0.00522
2375.37845,0.00552
2373.31828,0.00535
2371.25811,0.00485
2369.19793,0.00504
2367.13776,0.00511
2365.07759,0.00421
2363.01742,0.00382
2360.95725,0.00248
2358.89707,0.00207
2356.83690,0.00290
2354.77673,0.00459
2352.71656,0.00503
2350.65639,0.00209
2348.59621,0.00057
2346.53604,0.00450
2344.47587,0.00573
2342.41570,0.00515
2340.35552,0.00489
2338.29535,0.00454
2336.23518,0.00453
2334.17501,0.00450
2332.11484,0.00445
2330.05466,0.00412
2327.99449,0.00417
2325.93432,0.00416
2323.87415,0.00507
2321.81398,0.00581
2319.75380,0.00612
2317.69363,0.00522
2315.63346,0.00452
2313.57329,0.00437
2311.51312,0.00463
2309.45294,0.00513
2307.39277,0.00543
2305.33260,0.00542
2303.27243,0.00511
2301.21225,0.00483
2299.15208,0.00449
2297.09191,0.00419
2295.03174,0.00423
2292.97157,0.00451
2290.91139,0.00479
2288.85122,0.00504
2286.79105,0.00526
2284.73088,0.00533
2282.67071,0.00518
2280.61053,0.00499
2278.55036,0.00487
2276.49019,0.00473
2274.43002,0.00457
2272.36984,0.00438
2270.30967,0.00393
2268.24950,0.00350
2266.18933,0.00384
2264.12916,0.00460
2262.06898,0.00482
2260.00881,0.00454
2257.94864,0.00450
2255.88847,0.00479
2253.82830,0.00466
2251.76812,0.00385
2249.70795,0.00315
2247.64778,0.00334
2245.58761,0.00402
2243.52744,0.00431
2241.46726,0.00419
2239.40709,0.00406
2237.34692,0.00393
2235.28675,0.00402
2233.22657,0.00477
2231.16640,0.00550
2229.10623,0.00528
2227.04606,0.00463
2224.98589,0.00443
2222.92571,0.00474
2220.86554,0.00501
2218.80537,0.00478
2216.74520,0.00466
2214.68503,0.00459
2212.62485,0.00347
2210.56468,0.00233
2208.50451,0.00264
2206.44434,0.00334
2204.38417,0.00297
2202.32399,0.00219
2200.26382,0.00218
2198.20365,0.00267
2196.14348,0.00297
2194.08330,0.00294
2192.02313,0.00295
2189.96296,0.00285
2187.90279,0.00245
2185.84262,0.00199
2183.78244,0.00151
2181.72227,0.00120
2179.66210,0.00150
2177.60193,0.00289
2175.54176,0.00411
2173.48158,0.00327
2171.42141,0.00156
2169.36124,0.00136
2167.30107,0.00234
2165.24089,0.00270
2163.18072,0.00196
2161.12055,0.00103
2159.06038,0.00036
2157.00021,0.00025
2154.94003,0.00120
2152.87986,0.00243
2150.81969,0.00279
2148.75952,0.00260
2146.69935,0.00276
2144.63917,0.00294
2142.57900,0.00257
2140.51883,0.00197
2138.45866,0.00160
2136.39849,0.00131
2134.33831,0.00092
2132.27814,0.00114
2130.21797,0.00216
2128.15780,0.00259
2126.09762,0.00182
2124.03745,0.00131
2121.97728,0.00182
2119.91711,0.00252
2117.85694,0.00287
2115.79676,0.00287
2113.73659,0.00279
2111.67642,0.00283
2109.61625,0.00286
2107.55608,0.00250
2105.49590,0.00196
2103.43573,0.00212
2101.37556,0.00233
2099.31539,0.00158
2097.25521,0.00104
2095.19504,0.00176
2093.13487,0.00277
2091.07470,0.00319
2089.01453,0.00325
2086.95435,0.00308
2084.89418,0.00267
2082.83401,0.00234
2080.77384,0.00213
2078.71367,0.00203
2076.65349,0.00232
2074.59332,0.00273
2072.53315,0.00275
2070.47298,0.00266
2068.41281,0.00291
2066.35263,0.00298
2064.29246,0.00239
2062.23229,0.00196
2060.17212,0.00199
2058.11194,0.00161
2056.05177,0.00071
2053.99160,0.00042
2051.93143,0.00126
2049.87126,0.00225
2047.81108,0.00280
2045.75091,0.00344
2043.69074,0.00361
2041.63057,0.00230
2039.57040,0.00121
2037.51022,0.00207
2035.45005,0.00321
2033.38988,0.00288
2031.32971,0.00156
2029.26954,0.00084
2027.20936,0.00133
2025.14919,0.00168
2023.08902,0.00143
2021.02885,0.00125
2018.96867,0.00092
2016.90850,0.00041
2014.84833,0.00057
2012.78816,0.00119
2010.72799,0.00135
2008.66781,0.00186
2006.60764,0.00311
2004.54747,0.00359
2002.48730,0.00306
2000.42713,0.00256
1998.36695,0.00262
1996.30678,0.00298
1994.24661,0.00315
1992.18644,0.00326
1990.12626,0.00349
1988.06609,0.00340
1986.00592,0.00285
1983.94575,0.00222
1981.88558,0.00157
1979.82540,0.00063
1977.76523,0.00009
1975.70506,0.00079
1973.64489,0.00144
1971.58472,0.00115
1969.52454,0.00048
1967.46437,0.00011
1965.40420,0.00044
1963.34403,0.00083
1961.28386,0.00103
1959.22368,0.00172
1957.16351,0.00224
1955.10334,0.00158
1953.04317,0.00081
1950.98299,0.00110
1948.92282,0.00159
1946.86265,0.00127
1944.80248,0.00048
1942.74231,0.00019
1940.68213,0.00089
1938.62196,0.00191
1936.56179,0.00216
1934.50162,0.00188
1932.44145,0.00148
1930.38127,0.00071
1928.32110,0.00010
1926.26093,0.00012
1924.20076,0.00030
1922.14059,0.00021
1920.08041,0.00021
1918.02024,0.00084
1915.96007,0.00160
1913.89990,0.00168
1911.83972,0.00133
1909.77955,0.00110
1907.71938,0.00117
1905.65921,0.00138
1903.59904,0.00141
1901.53886,0.00133
1899.47869,0.00137
1897.41852,0.00140
1895.35835,0.00147
1893.29818,0.00162
1891.23800,0.00163
1889.17783,0.00164
1887.11766,0.00182
1885.05749,0.00189
1882.99731,0.00176
1880.93714,0.00165
1878.87697,0.00155
1876.81680,0.00139
1874.75663,0.00114
1872.69645,0.00082
1870.63628,0.00072
1868.57611,0.00097
1866.51594,0.00126
1864.45577,0.00142
1862.39559,0.00149
1860.33542,0.00129
1858.27525,0.00093
1856.21508,0.00084
1854.15491,0.00099
1852.09473,0.00110
1850.03456,0.00101
1847.97439,0.00073
1845.91422,0.00061
1843.85404,0.00082
1841.79387,0.00113
1839.73370,0.00137
1837.67353,0.00151
1835.61336,0.00160
1833.55318,0.00180
1831.49301,0.00206
1829.43284,0.00216
1827.37267,0.00189
1825.31250,0.00151
1823.25232,0.00140
1821.19215,0.00144
1819.13198,0.00142
1817.07181,0.00153
1815.01163,0.00175
1812.95146,0.00178
1810.89129,0.00162
1808.83112,0.00148
1806.77095,0.00143
1804.71077,0.00147
1802.65060,0.00156
1800.59043,0.00163
1798.53026,0.00165
1796.47009,0.00162
1794.40991,0.00153
1792.34974,0.00154
1790.28957,0.00181
1788.22940,0.00202
1786.16923,0.00194
1784.10905,0.00182
1782.04888,0.00187
1779.98871,0.00183
1777.92854,0.00174
1775.86836,0.00181
1773.80819,0.00187
1771.74802,0.00175
1769.68785,0.00171
1767.62768,0.00187
1765.56750,0.00205
1763.50733,0.00214
1761.44716,0.00219
1759.38699,0.00219
1757.32682,0.00213
1755.26664,0.00214
1753.20647,0.00229
1751.14630,0.00234
1749.08613,0.00220
1747.02596,0.00219
1744.96578,0.00240
1742.90561,0.00254
1740.84544,0.00250
1738.78527,0.00240
1736.72509,0.00224
1734.66492,0.00191
1732.60475,0.00181
1730.54458,0.00224
1728.48441,0.00268
1726.42423,0.00289
1724.36406,0.00295
1722.30389,0.00299
1720.24372,0.00312
1718.18355,0.00332
1716.12337,0.00325
1714.06320,0.00300
1712.00303,0.00296
1709.94286,0.00308
1707.88268,0.00317
1705.82251,0.00314
1703.76234,0.00304
1701.70217,0.00300
1699.64200,0.00311
1697.58182,0.00337
1695.52165,0.00376
1693.46148,0.00421
1691.40131,0.00464
1689.34114,0.00500
1687.28096,0.00517
1685.22079,0.00507
1683.16062,0.00487
1681.10045,0.00491
1679.04028,0.00512
1676.98010,0.00536
1674.91993,0.00548
1672.85976,0.00532
1670.79959,0.00517
1668.73941,0.00548
1666.67924,0.00611
1664.61907,0.00657
1662.55890,0.00668
1660.49873,0.00659
1658.43855,0.00655
1656.37838,0.00664
1654.31821,0.00672
1652.25804,0.00658
1650.19787,0.00643
1648.13769,0.00631
1646.07752,0.00618
1644.01735,0.00621
1641.95718,0.00629
1639.89701,0.00627
1637.83683,0.00621
1635.77666,0.00625
1633.71649,0.00630
1631.65632,0.00630
1629.59614,0.00627
1627.53597,0.00611
1625.47580,0.00587
1623.41563,0.00573
1621.35546,0.00569
1619.29528,0.00558
1617.23511,0.00530
1615.17494,0.00511
1613.11477,0.00514
1611.05460,0.00523
1608.99442,0.00530
1606.93425,0.00529
1604.87408,0.00517
1602.81391,0.00501
1600.75373,0.00491
1598.69356,0.00485
1596.63339,0.00476
1594.57322,0.00468
1592.51305,0.00471
1590.45287,0.00471
1588.39270,0.00456
1586.33253,0.00437
1584.27236,0.00420
1582.21219,0.00410
1580.15201,0.00401
1578.09184,0.00379
1576.03167,0.00357
1573.97150,0.00356
1571.91133,0.00356
1569.85115,0.00335
1567.79098,0.00307
1565.73081,0.00290
1563.67064,0.00279
1561.61046,0.00253
1559.55029,0.00197
1557.49012,0.00167
1555.42995,0.00204
1553.36978,0.00249
1551.30960,0.00275
1549.24943,0.00273
1547.18926,0.00252
1545.12909,0.00230
1543.06892,0.00204
1541.00874,0.00170
1538.94857,0.00157
1536.88840,0.00166
1534.82823,0.00170
1532.76805,0.00173
1530.70788,0.00185
1528.64771,0.00188
1526.58754,0.00168
1524.52737,0.00144
1522.46719,0.00140
1520.40702,0.00157
1518.34685,0.00165
1516.28668,0.00150
1514.22651,0.00137
1512.16633,0.00135
1510.10616,0.00134
1508.04599,0.00130
1505.98582,0.00129
1503.92565,0.00134
1501.86547,0.00143
1499.80530,0.00150
1497.74513,0.00141
1495.68496,0.00127
1493.62478,0.00129
1491.56461,0.00143
1489.50444,0.00146
1487.44427,0.00132
1485.38410,0.00127
1483.32392,0.00135
1481.26375,0.00141
1479.20358,0.00144
1477.14341,0.00154
1475.08324,0.00159
1473.02306,0.00146
1470.96289,0.00134
1468.90272,0.00136
1466.84255,0.00142
1464.78238,0.00144
1462.72220,0.00143
1460.66203,0.00144
1458.60186,0.00147
1456.54169,0.00146
1454.48151,0.00145
1452.42134,0.00142
1450.36117,0.00140
1448.30100,0.00141
1446.24083,0.00142
1444.18065,0.00143
1442.12048,0.00147
1440.06031,0.00150
1438.00014,0.00146
1435.93997,0.00132
1433.87979,0.00129
1431.81962,0.00149
1429.75945,0.00175
1427.69928,0.00181
1425.63910,0.00166
1423.57893,0.00152
1421.51876,0.00155
1419.45859,0.00163
1417.39842,0.00165
1415.33824,0.00174
1413.27807,0.00184
1411.21790,0.00177
1409.15773,0.00156
1407.09756,0.00142
1405.03738,0.00135
1402.97721,0.00132
1400.91704,0.00135
1398.85687,0.00135
1396.79670,0.00124
1394.73652,0.00109
1392.67635,0.00104
1390.61618,0.00110
1388.55601,0.00124
1386.49583,0.00139
1384.43566,0.00149
1382.37549,0.00152
1380.31532,0.00149
1378.25515,0.00136
1376.19497,0.00119
1374.13480,0.00111
1372.07463,0.00114
1370.01446,0.00118
1367.95429,0.00113
1365.89411,0.00101
1363.83394,0.00088
1361.77377,0.00085
1359.71360,0.00094
1357.65343,0.00110
1355.59325,0.00126
1353.53308,0.00136
1351.47291,0.00135
1349.41274,0.00127
1347.35256,0.00123
1345.29239,0.00123
1343.23222,0.00120
1341.17205,0.00113
1339.11188,0.00107
1337.05170,0.00104
1334.99153,0.00100
1332.93136,0.00094
1330.87119,0.00094
1328.81102,0.00101
1326.75084,0.00100
1324.69067,0.00091
1322.63050,0.00089
1320.57033,0.00098
1318.51015,0.00106
1316.44998,0.00109
1314.38981,0.00111
1312.32964,0.00108
1310.26947,0.00097
1308.20929,0.00091
1306.14912,0.00095
1304.08895,0.00097
1302.02878,0.00097
1299.96861,0.00109
1297.90843,0.00121
1295.84826,0.00118
1293.78809,0.00116
1291.72792,0.00132
1289.66775,0.00141
1287.60757,0.00128
1285.54740,0.00107
1283.48723,0.00104
1281.42706,0.00113
1279.36688,0.00113
1277.30671,0.00114
1275.24654,0.00121
1273.18637,0.00122
1271.12620,0.00132
1269.06602,0.00153
1267.00585,0.00161
1264.94568,0.00151
1262.88551,0.00138
1260.82534,0.00134
1258.76516,0.00132
1256.70499,0.00118
1254.64482,0.00106
1252.58465,0.00110
1250.52447,0.00126
1248.46430,0.00129
1246.40413,0.00119
1244.34396,0.00119
1242.28379,0.00122
1240.22361,0.00111
1238.16344,0.00096
1236.10327,0.00098
1234.04310,0.00107
1231.98293,0.00102
1229.92275,0.00080
1227.86258,0.00065
1225.80241,0.00074
1223.74224,0.00083
1221.68207,0.00075
1219.62189,0.00063
1217.56172,0.00058
1215.50155,0.00054
1213.44138,0.00048
1211.38120,0.00043
1209.32103,0.00037
1207.26086,0.00037
1205.20069,0.00036
1203.14052,0.00021
1201.08034,0.00013
1199.02017,0.00031
1196.96000,0.00053
1194.89983,0.00049
1192.83966,0.00023
1190.77948,0.00004
1188.71931,0.00000
1186.65914,0.00001
1184.59897,0.00008
1182.53880,0.00028
1180.47862,0.00046
1178.41845,0.00049
1176.35828,0.00055
1174.29811,0.00073
1172.23793,0.00074
1170.17776,0.00060
1168.11759,0.00079
1166.05742,0.00123
1163.99725,0.00151
1161.93707,0.00160
1159.87690,0.00173
1157.81673,0.00195
1155.75656,0.00230
1153.69639,0.00273
1151.63621,0.00297
1149.57604,0.00312
1147.51587,0.00353
1145.45570,0.00411
1143.39552,0.00453
1141.33535,0.00487
1139.27518,0.00533
1137.21501,0.00583
1135.15484,0.00634
1133.09466,0.00680
1131.03449,0.00718
1128.97432,0.00775
1126.91415,0.00860
1124.85398,0.00956
1122.79380,0.01034
1120.73363,0.01085
1118.67346,0.01141
1116.61329,0.01212
1114.55312,0.01277
1112.49294,0.01342
1110.43277,0.01414
1108.37260,0.01486
1106.31243,0.01551
1104.25225,0.01614
1102.19208,0.01686
1100.13191,0.01752
1098.07174,0.01796
1096.01157,0.01835
1093.95139,0.01873
1091.89122,0.01909
1089.83105,0.01963
1087.77088,0.02021
1085.71071,0.02069
1083.65053,0.02112
1081.59036,0.02154
1079.53019,0.02197
1077.47002,0.02229
1075.40985,0.02254
1073.34967,0.02290
1071.28950,0.02318
1069.22933,0.02315
1067.16916,0.02303
1065.10898,0.02308
1063.04881,0.02323
1060.98864,0.02325
1058.92847,0.02304
1056.86830,0.02269
1054.80812,0.02214
1052.74795,0.02135
1050.68778,0.02056
1048.62761,0.01971
1046.56744,0.01855
1044.50726,0.01745
1042.44709,0.01667
1040.38692,0.01589
1038.32675,0.01484
1036.26657,0.01369
1034.20640,0.01270
1032.14623,0.01178
1030.08606,0.01092
1028.02589,0.01025
1025.96571,0.00968
1023.90554,0.00909
1021.84537,0.00858
1019.78520,0.00827
1017.72503,0.00832
1015.66485,0.00840
1013.60468,0.00807
1011.54451,0.00777
1009.48434,0.00795
1007.42417,0.00829
1005.36399,0.00858
1003.30382,0.00918
1001.24365,0.01004
999.18348,0.01089
997.12330,0.01172
995.06313,0.01241
993.00296,0.01279
990.94279,0.01310
988.88262,0.01365
986.82244,0.01417
984.76227,0.01449
982.70210,0.01480
980.64193,0.01499
978.58176,0.01485
976.52158,0.01457
974.46141,0.01435
972.40124,0.01416
970.34107,0.01397
968.28089,0.01363
966.22072,0.01308
964.16055,0.01257
962.10038,0.01219
960.04021,0.01167
957.98003,0.01075
955.91986,0.00968
953.85969,0.00900
951.79952,0.00870
949.73935,0.00838
947.67917,0.00786
945.61900,0.00720
943.55883,0.00644
941.49866,0.00584
939.43849,0.00560
937.37831,0.00563
935.31814,0.00557
933.25797,0.00522
931.19780,0.00469
929.13762,0.00425
927.07745,0.00411
925.01728,0.00415
922.95711,0.00417
920.89694,0.00414
918.83676,0.00395
916.77659,0.00359
914.71642,0.00330
912.65625,0.00309
910.59608,0.00292
908.53590,0.00309
906.47573,0.00348
904.41556,0.00349
902.35539,0.00317
900.29522,0.00317
898.23504,0.00366
896.17487,0.00417
894.11470,0.00441
892.05453,0.00454
889.99435,0.00474
887.93418,0.00506
885.87401,0.00543
883.81384,0.00579
881.75367,0.00605
879.69349,0.00624
877.63332,0.00644
875.57315,0.00663
873.51298,0.00706
871.45281,0.00758
869.39263,0.00787
867.33246,0.00818
865.27229,0.00852
863.21212,0.00850
861.15194,0.00822
859.09177,0.00828
857.03160,0.00850
854.97143,0.00840
852.91126,0.00836
850.85108,0.00836
848.79091,0.00802
846.73074,0.00775
844.67057,0.00778
842.61040,0.00774
840.55022,0.00757
838.49005,0.00729
836.42988,0.00686
834.36971,0.00644
832.30954,0.00595
830.24936,0.00549
828.18919,0.00538
826.12902,0.00532
824.06885,0.00508
822.00867,0.00502
819.94850,0.00512
817.88833,0.00499
815.82816,0.00460
813.76799,0.00435
811.70781,0.00445
809.64764,0.00459
807.58747,0.00467
805.52730,0.00473
803.46713,0.00441
801.40695,0.00393
799.34678,0.00357
797.28661,0.00324
795.22644,0.00306
793.16627,0.00318
791.10609,0.00334
789.04592,0.00317
786.98575,0.00312
784.92558,0.00342
782.86540,0.00354
780.80523,0.00351
778.74506,0.00358
776.68489,0.00359
774.62472,0.00362
772.56454,0.00338
770.50437,0.00282
768.44420,0.00258
766.38403,0.00266
764.32386,0.00284
762.26368,0.00309
760.20351,0.00325
758.14334,0.00334
756.08317,0.00349
754.02299,0.00358
751.96282,0.00341
749.90265,0.00290
747.84248,0.00261
745.78231,0.00325
743.72213,0.00397
741.66196,0.00371
739.60179,0.00326
737.54162,0.00322
735.48145,0.00311
733.42127,0.00284
731.36110,0.00264
729.30093,0.00281
727.24076,0.00348
725.18059,0.00413
723.12041,0.00410
721.06024,0.00416
719.00007,0.00379
716.93990,0.00387
714.87972,0.00447
712.81955,0.00452
710.75938,0.00377
708.69921,0.00303
706.63904,0.00297
704.57886,0.00326
702.51869,0.00323
700.45852,0.00328
698.39835,0.00403
696.33818,0.00492
694.27800,0.00521
692.21783,0.00511
690.15766,0.00505
688.09749,0.00470
686.03731,0.00347
683.97714,0.00190
681.91697,0.00134
679.85680,0.00191
677.79663,0.00251
675.73645,0.00286
673.67628,0.00215
671.61611,0.00002
669.55594,0.00314
667.49577,0.00710
665.43559,0.00065
663.37542,0.00277
661.31525,0.00542
659.25508,0.00573
657.19491,0.00493
655.13473,0.00398
653.07456,0.00389
651.01439,0.00470
648.95422,0.00557
646.89404,0.00551
644.83387,0.00498
642.77370,0.00448
640.71353,0.00400
638.65336,0.00355
636.59318,0.00372
634.53301,0.00454
632.47284,0.00591
630.41267,0.00741
628.35250,0.00753
626.29232,0.00534
624.23215,0.00395
622.17198,0.00528
620.11181,0.00602
618.05164,0.00425
615.99146,0.00297
613.93129,0.00313
611.87112,0.00194
609.81095,0.00000
607.75077,0.00012
605.69060,0.00236
603.63043,0.00285
601.57026,0.00190
599.51009,0.00000
