3996.73391,-0.00009
3994.67373,-0.00027
3992.61356,-0.00038
3990.55339,-0.00022
3988.49322,0.00000
3986.43305,-0.00005
3984.37287,-0.00019
3982.31270,0.00007
3980.25253,0.00064
3978.19236,0.00096
3976.13219,0.00073
3974.07201,0.00025
3972.01184,0.00001
3969.95167,0.00013
3967.89150,0.00052
3965.83133,0.00086
3963.77115,0.00080
3961.71098,0.00049
3959.65081,0.00041
3957.59064,0.00063
3955.53046,0.00084
3953.47029,0.00079
3951.41012,0.00044
3949.34995,-0.00000
3947.28978,0.00000
3945.22960,0.00039
3943.16943,0.00060
3941.10926,0.00065
3939.04909,0.00078
3936.98892,0.00080
3934.92874,0.00053
3932.86857,0.00025
3930.80840,0.00043
3928.74823,0.00100
3926.68805,0.00151
3924.62788,0.00179
3922.56771,0.00172
3920.50754,0.00131
3918.44737,0.00085
3916.38719,0.00082
3914.32702,0.00115
3912.26685,0.00141
3910.20668,0.00151
3908.14651,0.00150
3906.08633,0.00135
3904.02616,0.00099
3901.96599,0.00074
3899.90582,0.00098
3897.84565,0.00136
3895.78547,0.00149
3893.72530,0.00144
3891.66513,0.00138
3889.60496,0.00131
3887.54478,0.00112
3885.48461,0.00087
3883.42444,0.00067
3881.36427,0.00075
3879.30410,0.00126
3877.24392,0.00167
3875.18375,0.00149
3873.12358,0.00087
3871.06341,0.00028
3869.00324,0.00009
3866.94306,0.00029
3864.88289,0.00075
3862.82272,0.00118
3860.76255,0.00118
3858.70237,0.00070
3856.64220,0.00003
3854.58203,0.00000
3852.52186,0.00089
3850.46169,0.00171
3848.40151,0.00170
3846.34134,0.00143
3844.28117,0.00137
3842.22100,0.00146
3840.16083,0.00145
3838.10065,0.00121
3836.04048,0.00119
3833.98031,0.00162
3831.92014,0.00213
3829.85997,0.00239
3827.79979,0.00232
3825.73962,0.00215
3823.67945,0.00215
3821.61928,0.00235
3819.55910,0.00247
3817.49893,0.00262
3815.43876,0.00298
3813.37859,0.00321
3811.31842,0.00307
3809.25824,0.00294
3807.19807,0.00289
3805.13790,0.00275
3803.07773,0.00276
3801.01756,0.00305
3798.95738,0.00326
3796.89721,0.00322
3794.83704,0.00327
3792.77687,0.00354
3790.71670,0.00374
3788.65652,0.00372
3786.59635,0.00373
3784.53618,0.00390
3782.47601,0.00407
3780.41583,0.00397
3778.35566,0.00358
3776.29549,0.00332
3774.23532,0.00333
3772.17515,0.00336
3770.11497,0.00318
3768.05480,0.00293
3765.99463,0.00280
3763.93446,0.00279
3761.87429,0.00280
3759.81411,0.00272
3757.75394,0.00241
3755.69377,0.00193
3753.63360,0.00135
3751.57342,0.00077
3749.51325,0.00040
3747.45308,0.00027
3745.39291,0.00000
3743.33274,0.00025
3741.27256,0.00087
3739.21239,0.00089
3737.15222,0.00049
3735.09205,0.00031
3733.03188,0.00090
3730.97170,0.00173
3728.91153,0.00217
3726.85136,0.00223
3724.79119,0.00205
3722.73102,0.00187
3720.67084,0.00207
3718.61067,0.00227
3716.55050,0.00213
3714.49033,0.00200
3712.43015,0.00234
3710.36998,0.00294
3708.30981,0.00333
3706.24964,0.00345
3704.18947,0.00333
3702.12929,0.00320
3700.06912,0.00333
3698.00895,0.00364
3695.94878,0.00392
3693.88861,0.00420
3691.82843,0.00434
3689.76826,0.00378
3687.70809,0.00298
3685.64792,0.00291
3683.58775,0.00319
3681.52757,0.00344
3679.46740,0.00357
3677.40723,0.00335
3675.34706,0.00287
3673.28688,0.00263
3671.22671,0.00273
3669.16654,0.00294
3667.10637,0.00310
3665.04620,0.00319
3662.98602,0.00332
3660.92585,0.00355
3658.86568,0.00377
3656.80551,0.00388
3654.74534,0.00388
3652.68516,0.00386
3650.62499,0.00388
3648.56482,0.00379
3646.50465,0.00392
3644.44447,0.00395
3642.38430,0.00377
3640.32413,0.00363
3638.26396,0.00357
3636.20379,0.00351
3634.14361,0.00342
3632.08344,0.00334
3630.02327,0.00339
3627.96310,0.00368
3625.90293,0.00399
3623.84275,0.00402
3621.78258,0.00386
3619.72241,0.00370
3617.66224,0.00378
3615.60207,0.00410
3613.54189,0.00426
3611.48172,0.00408
3609.42155,0.00402
3607.36138,0.00429
3605.30120,0.00465
3603.24103,0.00494
3601.18086,0.00509
3599.12069,0.00510
3597.06052,0.00504
3595.00034,0.00504
3592.94017,0.00512
3590.88000,0.00523
3588.81983,0.00521
3586.75966,0.00524
3584.69948,0.00550
3582.63931,0.00572
3580.57914,0.00594
3578.51897,0.00628
3576.45879,0.00661
3574.39862,0.00675
3572.33845,0.00663
3570.27828,0.00623
3568.21811,0.00563
3566.15793,0.00550
3564.09776,0.00623
3562.03759,0.00707
3559.97742,0.00749
3557.91725,0.00770
3555.85707,0.00785
3553.79690,0.00793
3551.73673,0.00790
3549.67656,0.00759
3547.61639,0.00711
3545.55621,0.00721
3543.49604,0.00811
3541.43587,0.00904
3539.37570,0.00935
3537.31552,0.00913
3535.25535,0.00884
3533.19518,0.00877
3531.13501,0.00883
3529.07484,0.00876
3527.01466,0.00858
3524.95449,0.00867
3522.89432,0.00909
3520.83415,0.00942
3518.77398,0.00948
3516.71380,0.00953
3514.65363,0.00983
3512.59346,0.01025
3510.53329,0.01043
3508.47312,0.01027
3506.41294,0.01007
3504.35277,0.00998
3502.29260,0.00999
3500.23243,0.01029
3498.17225,0.01075
3496.11208,0.01107
3494.05191,0.01127
3491.99174,0.01149
3489.93157,0.01162
3487.87139,0.01152
3485.81122,0.01136
3483.75105,0.01138
3481.69088,0.01158
3479.63071,0.01181
3477.57053,0.01192
3475.51036,0.01197
3473.45019,0.01214
3471.39002,0.01232
3469.32984,0.01236
3467.26967,0.01230
3465.20950,0.01224
3463.14933,0.01235
3461.08916,0.01255
3459.02898,0.01274
3456.96881,0.01286
3454.90864,0.01291
3452.84847,0.01285
3450.78830,0.01269
3448.72812,0.01264
3446.66795,0.01274
3444.60778,0.01277
3442.54761,0.01279
3440.48744,0.01293
3438.42726,0.01306
3436.36709,0.01321
3434.30692,0.01348
3432.24675,0.01373
3430.18657,0.01383
3428.12640,0.01384
3426.06623,0.01384
3424.00606,0.01378
3421.94589,0.01371
3419.88571,0.01377
3417.82554,0.01404
3415.76537,0.01436
3413.70520,0.01448
3411.64503,0.01444
3409.58485,0.01448
3407.52468,0.01465
3405.46451,0.01476
3403.40434,0.01478
3401.34416,0.01477
3399.28399,0.01407
3397.22382,0.01391
3395.16365,0.01383
3393.10348,0.01363
3391.04330,0.01359
3388.98313,0.01391
3386.92296,0.01432
3384.86279,0.01446
3382.80262,0.01453
3380.74244,0.01470
3378.68227,0.01491
3376.62210,0.01499
3374.56193,0.01488
3372.50176,0.01479
3370.44158,0.01484
3368.38141,0.01486
3366.32124,0.01486
3364.26107,0.01498
3362.20089,0.01516
3360.14072,0.01528
3358.08055,0.01531
3356.02038,0.01530
3353.96021,0.01529
3351.90003,0.01525
3349.83986,0.01524
3347.77969,0.01537
3345.71952,0.01550
3343.65935,0.01551
3341.59917,0.01551
3339.53900,0.01545
3337.47883,0.01528
3335.41866,0.01532
3333.35849,0.01559
3331.29831,0.01564
3329.23814,0.01548
3327.17797,0.01541
3325.11780,0.01552
3323.05762,0.01569
3320.99745,0.01565
3318.93728,0.01547
3316.87711,0.01549
3314.81694,0.01566
3312.75676,0.01568
3310.69659,0.01556
3308.63642,0.01553
3306.57625,0.01566
3304.51608,0.01579
3302.45590,0.01584
3300.39573,0.01589
3298.33556,0.01600
3296.27539,0.01610
3294.21521,0.01603
3292.15504,0.01592
3290.09487,0.01593
3288.03470,0.01599
3285.97453,0.01596
3283.91435,0.01581
3281.85418,0.01569
3279.79401,0.01575
3277.73384,0.01592
3275.67367,0.01604
3273.61349,0.01605
3271.55332,0.01604
3269.49315,0.01610
3267.43298,0.01613
3265.37281,0.01601
3263.31263,0.01582
3261.25246,0.01571
3259.19229,0.01570
3257.13212,0.01566
3255.07194,0.01561
3253.01177,0.01566
3250.95160,0.01574
3248.89143,0.01575
3246.83126,0.01579
3244.77108,0.01583
3242.71091,0.01571
3240.65074,0.01564
3238.59057,0.01573
3236.53040,0.01578
3234.47022,0.01571
3232.41005,0.01553
3230.34988,0.01531
3228.28971,0.01523
3226.22954,0.01531
3224.16936,0.01544
3222.10919,0.01543
3220.04902,0.01526
3217.98885,0.01515
3215.92867,0.01515
3213.86850,0.01513
3211.80833,0.01513
3209.74816,0.01519
3207.68799,0.01521
3205.62781,0.01525
3203.56764,0.01539
3201.50747,0.01551
3199.44730,0.01545
3197.38713,0.01530
3195.32695,0.01519
3193.26678,0.01512
3191.20661,0.01502
3189.14644,0.01492
3187.08626,0.01490
3185.02609,0.01485
3182.96592,0.01469
3180.90575,0.01452
3178.84558,0.01446
3176.78540,0.01449
3174.72523,0.01453
3172.66506,0.01457
3170.60489,0.01458
3168.54472,0.01461
3166.48454,0.01457
3164.42437,0.01444
3162.36420,0.01440
3160.30403,0.01445
3158.24386,0.01449
3156.18368,0.01446
3154.12351,0.01436
3152.06334,0.01424
3150.00317,0.01420
3147.94299,0.01422
3145.88282,0.01414
3143.82265,0.01408
3141.76248,0.01413
3139.70231,0.01411
3137.64213,0.01403
3135.58196,0.01401
3133.52179,0.01408
3131.46162,0.01416
3129.40145,0.01406
3127.34127,0.01379
3125.28110,0.01359
3123.22093,0.01347
3121.16076,0.01335
3119.10058,0.01327
3117.04041,0.01330
3114.98024,0.01337
3112.92007,0.01333
3110.85990,0.01327
3108.79972,0.01330
3106.73955,0.01339
3104.67938,0.01349
3102.61921,0.01343
3100.55904,0.01333
3098.49886,0.01328
3096.43869,0.01322
3094.37852,0.01317
3092.31835,0.01320
3090.25818,0.01316
3088.19800,0.01294
3086.13783,0.01285
3084.07766,0.01305
3082.01749,0.01320
3079.95731,0.01313
3077.89714,0.01294
3075.83697,0.01286
3073.77680,0.01295
3071.71663,0.01306
3069.65645,0.01305
3067.59628,0.01292
3065.53611,0.01281
3063.47594,0.01268
3061.41577,0.01246
3059.35559,0.01229
3057.29542,0.01230
3055.23525,0.01242
3053.17508,0.01247
3051.11491,0.01239
3049.05473,0.01231
3046.99456,0.01231
3044.93439,0.01234
3042.87422,0.01236
3040.81404,0.01231
3038.75387,0.01214
3036.69370,0.01190
3034.63353,0.01166
3032.57336,0.01151
3030.51318,0.01149
3028.45301,0.01154
3026.39284,0.01158
3024.33267,0.01168
3022.27250,0.01178
3020.21232,0.01179
3018.15215,0.01176
3016.09198,0.01168
3014.03181,0.01147
3011.97163,0.01127
3009.91146,0.01121
3007.85129,0.01123
3005.79112,0.01130
3003.73095,0.01139
3001.67077,0.01138
2999.61060,0.01137
2997.55043,0.01127
2995.49026,0.01107
2993.43009,0.01096
2991.36991,0.01099
2989.30974,0.01099
2987.24957,0.01107
2985.18940,0.01122
2983.12923,0.01133
2981.06905,0.01140
2979.00888,0.01148
2976.94871,0.01143
2974.88854,0.01133
2972.82836,0.01130
2970.76819,0.01133
2968.70802,0.01140
2966.64785,0.01149
2964.58768,0.01155
2962.52750,0.01152
2960.46733,0.01143
2958.40716,0.01137
2956.34699,0.01135
2954.28682,0.01134
2952.22664,0.01145
2950.16647,0.01165
2948.10630,0.01173
2946.04613,0.01173
2943.98596,0.01176
2941.92578,0.01180
2939.86561,0.01177
2937.80544,0.01172
2935.74527,0.01165
2933.68509,0.01165
2931.62492,0.01177
2929.56475,0.01182
2927.50458,0.01171
2925.44441,0.01150
2923.38423,0.01127
2921.32406,0.01107
2919.26389,0.01092
2917.20372,0.01095
2915.14355,0.01107
2913.08337,0.01103
2911.02320,0.01095
2908.96303,0.01100
2906.90286,0.01110
2904.84268,0.01118
2902.78251,0.01119
2900.72234,0.01115
2898.66217,0.01107
2896.60200,0.01098
2894.54182,0.01101
2892.48165,0.01113
2890.42148,0.01108
2888.36131,0.01098
2886.30114,0.01112
2884.24096,0.01132
2882.18079,0.01143
2880.12062,0.01149
2878.06045,0.01141
2876.00028,0.01132
2873.94010,0.01139
2871.87993,0.01140
2869.81976,0.01126
2867.75959,0.01108
2865.69941,0.01100
2863.63924,0.01102
2861.57907,0.01093
2859.51890,0.01075
2857.45873,0.01067
2855.39855,0.01053
2853.33838,0.01032
2851.27821,0.01020
2849.21804,0.01012
2847.15787,0.01001
2845.09769,0.01004
2843.03752,0.01021
2840.97735,0.01022
2838.91718,0.01011
2836.85700,0.01008
2834.79683,0.01005
2832.73666,0.00999
2830.67649,0.00994
2828.61632,0.00983
2826.55614,0.00975
2824.49597,0.00978
2822.43580,0.00973
2820.37563,0.00960
2818.31546,0.00952
2816.25528,0.00948
2814.19511,0.00950
2812.13494,0.00957
2810.07477,0.00956
2808.01460,0.00941
2805.95442,0.00933
2803.89425,0.00945
2801.83408,0.00960
2799.77391,0.00954
2797.71373,0.00928
2795.65356,0.00909
2793.59339,0.00908
2791.53322,0.00915
2789.47305,0.00918
2787.41287,0.00903
2785.35270,0.00882
2783.29253,0.00880
2781.23236,0.00878
2779.17219,0.00859
2777.11201,0.00847
2775.05184,0.00854
2772.99167,0.00858
2770.93150,0.00849
2768.87133,0.00834
2766.81115,0.00829
2764.75098,0.00846
2762.69081,0.00860
2760.63064,0.00850
2758.57046,0.00835
2756.51029,0.00827
2754.45012,0.00816
2752.38995,0.00810
2750.32978,0.00821
2748.26960,0.00828
2746.20943,0.00821
2744.14926,0.00811
2742.08909,0.00803
2740.02892,0.00799
2737.96874,0.00793
2735.90857,0.00788
2733.84840,0.00789
2731.78823,0.00779
2729.72805,0.00763
2727.66788,0.00750
2725.60771,0.00744
2723.54754,0.00754
2721.48737,0.00766
2719.42719,0.00761
2717.36702,0.00751
2715.30685,0.00751
2713.24668,0.00754
2711.18651,0.00748
2709.12633,0.00735
2707.06616,0.00737
2705.00599,0.00753
2702.94582,0.00760
2700.88565,0.00759
2698.82547,0.00754
2696.76530,0.00741
2694.70513,0.00729
2692.64496,0.00719
2690.58478,0.00710
2688.52461,0.00710
2686.46444,0.00718
2684.40427,0.00727
2682.34410,0.00722
2680.28392,0.00710
2678.22375,0.00712
2676.16358,0.00724
2674.10341,0.00725
2672.04324,0.00714
2669.98306,0.00707
2667.92289,0.00704
2665.86272,0.00703
2663.80255,0.00713
2661.74238,0.00721
2659.68220,0.00719
2657.62203,0.00715
2655.56186,0.00715
2653.50169,0.00726
2651.44151,0.00738
2649.38134,0.00729
2647.32117,0.00710
2645.26100,0.00699
2643.20083,0.00697
2641.14065,0.00705
2639.08048,0.00719
2637.02031,0.00728
2634.96014,0.00719
2632.89997,0.00694
2630.83979,0.00673
2628.77962,0.00673
2626.71945,0.00682
2624.65928,0.00685
2622.59910,0.00683
2620.53893,0.00679
2618.47876,0.00674
2616.41859,0.00676
2614.35842,0.00678
2612.29824,0.00666
2610.23807,0.00660
2608.17790,0.00669
2606.11773,0.00668
2604.05756,0.00663
2601.99738,0.00669
2599.93721,0.00674
2597.87704,0.00675
2595.81687,0.00670
2593.75670,0.00662
2591.69652,0.00659
2589.63635,0.00665
2587.57618,0.00678
2585.51601,0.00676
2583.45583,0.00640
2581.39566,0.00608
2579.33549,0.00618
2577.27532,0.00637
2575.21515,0.00636
2573.15497,0.00641
2571.09480,0.00657
2569.03463,0.00673
2566.97446,0.00689
2564.91429,0.00694
2562.85411,0.00680
2560.79394,0.00646
2558.73377,0.00611
2556.67360,0.00603
2554.61342,0.00620
2552.55325,0.00645
2550.49308,0.00650
2548.43291,0.00639
2546.37274,0.00632
2544.31256,0.00616
2542.25239,0.00596
2540.19222,0.00598
2538.13205,0.00611
2536.07188,0.00620
2534.01170,0.00625
2531.95153,0.00630
2529.89136,0.00635
2527.83119,0.00645
2525.77102,0.00656
2523.71084,0.00656
2521.65067,0.00645
2519.59050,0.00632
2517.53033,0.00621
2515.47015,0.00623
2513.40998,0.00641
2511.34981,0.00661
2509.28964,0.00669
2507.22947,0.00657
2505.16929,0.00635
2503.10912,0.00620
2501.04895,0.00621
2498.98878,0.00640
2496.92861,0.00664
2494.86843,0.00674
2492.80826,0.00664
2490.74809,0.00652
2488.68792,0.00652
2486.62775,0.00659
2484.56757,0.00655
2482.50740,0.00650
2480.44723,0.00668
2478.38706,0.00695
2476.32688,0.00690
2474.26671,0.00668
2472.20654,0.00671
2470.14637,0.00695
2468.08620,0.00713
2466.02602,0.00712
2463.96585,0.00709
2461.90568,0.00720
2459.84551,0.00733
2457.78534,0.00733
2455.72516,0.00725
2453.66499,0.00719
2451.60482,0.00709
2449.54465,0.00695
2447.48447,0.00691
2445.42430,0.00698
2443.36413,0.00702
2441.30396,0.00696
2439.24379,0.00682
2437.18361,0.00673
2435.12344,0.00671
2433.06327,0.00674
2431.00310,0.00681
2428.94293,0.00694
2426.88275,0.00711
2424.82258,0.00713
2422.76241,0.00696
2420.70224,0.00691
2418.64207,0.00684
2416.58189,0.00672
2414.52172,0.00696
2412.46155,0.00720
2410.40138,0.00709
2408.34120,0.00682
2406.28103,0.00662
2404.22086,0.00663
2402.16069,0.00673
2400.10052,0.00676
2398.04034,0.00677
2395.98017,0.00663
2393.92000,0.00645
2391.85983,0.00634
2389.79966,0.00625
2387.73948,0.00619
2385.67931,0.00615
2383.61914,0.00596
2381.55897,0.00560
2379.49880,0.00523
2377.43862,0.00505
2375.37845,0.00498
2373.31828,0.00536
2371.25811,0.00590
2369.19793,0.00602
2367.13776,0.00650
2365.07759,0.00783
2363.01742,0.00842
2360.95725,0.00919
2358.89707,0.00855
2356.83690,0.00701
2354.77673,0.00537
2352.71656,0.00510
2350.65639,0.00735
2348.59621,0.00886
2346.53604,0.00637
2344.47587,0.00608
2342.41570,0.00682
2340.35552,0.00713
2338.29535,0.00735
2336.23518,0.00722
2334.17501,0.00691
2332.11484,0.00665
2330.05466,0.00667
2327.99449,0.00641
2325.93432,0.00666
2323.87415,0.00612
2321.81398,0.00553
2319.75380,0.00486
2317.69363,0.00505
2315.63346,0.00506
2313.57329,0.00494
2311.51312,0.00505
2309.45294,0.00510
2307.39277,0.00513
2305.33260,0.00528
2303.27243,0.00549
2301.21225,0.00545
2299.15208,0.00546
2297.09191,0.00556
2295.03174,0.00553
2292.97157,0.00560
2290.91139,0.00592
2288.85122,0.00620
2286.79105,0.00604
2284.73088,0.00549
2282.67071,0.00508
2280.61053,0.00518
2278.55036,0.00551
2276.49019,0.00572
2274.43002,0.00585
2272.36984,0.00582
2270.30967,0.00573
2268.24950,0.00579
2266.18933,0.00583
2264.12916,0.00561
2262.06898,0.00536
2260.00881,0.00504
2257.94864,0.00458
2255.88847,0.00451
2253.82830,0.00515
2251.76812,0.00578
2249.70795,0.00574
2247.64778,0.00521
2245.58761,0.00482
2243.52744,0.00454
2241.46726,0.00430
2239.40709,0.00436
2237.34692,0.00428
2235.28675,0.00371
2233.22657,0.00330
2231.16640,0.00349
2229.10623,0.00401
2227.04606,0.00444
2224.98589,0.00451
2222.92571,0.00438
2220.86554,0.00431
2218.80537,0.00436
2216.74520,0.00423
2214.68503,0.00369
2212.62485,0.00335
2210.56468,0.00358
2208.50451,0.00410
2206.44434,0.00452
2204.38417,0.00428
2202.32399,0.00354
2200.26382,0.00326
2198.20365,0.00393
2196.14348,0.00456
2194.08330,0.00432
2192.02313,0.00386
2189.96296,0.00346
2187.90279,0.00290
2185.84262,0.00251
2183.78244,0.00271
2181.72227,0.00343
2179.66210,0.00375
2177.60193,0.00297
2175.54176,0.00205
2173.48158,0.00248
2171.42141,0.00360
2169.36124,0.00387
2167.30107,0.00354
2165.24089,0.00326
2163.18072,0.00300
2161.12055,0.00223
2159.06038,0.00080
2157.00021,0.00000
2154.94003,0.00036
2152.87986,0.00080
2150.81969,0.00045
2148.75952,-0.00002
2146.69935,0.00064
2144.63917,0.00180
2142.57900,0.00210
2140.51883,0.00185
2138.45866,0.00181
2136.39849,0.00181
2134.33831,0.00159
2132.27814,0.00154
2130.21797,0.00177
2128.15780,0.00172
2126.09762,0.00168
2124.03745,0.00221
2121.97728,0.00277
2119.91711,0.00307
2117.85694,0.00346
2115.79676,0.00386
2113.73659,0.00411
2111.67642,0.00422
2109.61625,0.00385
2107.55608,0.00309
2105.49590,0.00258
2103.43573,0.00250
2101.37556,0.00253
2099.31539,0.00251
2097.25521,0.00227
2095.19504,0.00248
2093.13487,0.00292
2091.07470,0.00298
2089.01453,0.00306
2086.95435,0.00342
2084.89418,0.00368
2082.83401,0.00359
2080.77384,0.00344
2078.71367,0.00360
2076.65349,0.00395
2074.59332,0.00426
2072.53315,0.00436
2070.47298,0.00402
2068.41281,0.00352
2066.35263,0.00316
2064.29246,0.00265
2062.23229,0.00212
2060.17212,0.00224
2058.11194,0.00277
2056.05177,0.00308
2053.99160,0.00340
2051.93143,0.00370
2049.87126,0.00383
2047.81108,0.00402
2045.75091,0.00394
2043.69074,0.00345
2041.63057,0.00326
2039.57040,0.00381
2037.51022,0.00472
2035.45005,0.00522
2033.38988,0.00509
2031.32971,0.00465
2029.26954,0.00414
2027.20936,0.00354
2025.14919,0.00309
2023.08902,0.00284
2021.02885,0.00228
2018.96867,0.00170
2016.90850,0.00201
2014.84833,0.00313
2012.78816,0.00396
2010.72799,0.00407
2008.66781,0.00389
2006.60764,0.00376
2004.54747,0.00335
2002.48730,0.00274
2000.42713,0.00263
1998.36695,0.00286
1996.30678,0.00251
1994.24661,0.00194
1992.18644,0.00211
1990.12626,0.00258
1988.06609,0.00260
1986.00592,0.00251
1983.94575,0.00286
1981.88558,0.00354
1979.82540,0.00408
1977.76523,0.00408
1975.70506,0.00355
1973.64489,0.00279
1971.58472,0.00228
1969.52454,0.00241
1967.46437,0.00266
1965.40420,0.00215
1963.34403,0.00133
1961.28386,0.00133
1959.22368,0.00196
1957.16351,0.00216
1955.10334,0.00176
1953.04317,0.00152
1950.98299,0.00193
1948.92282,0.00233
1946.86265,0.00211
1944.80248,0.00191
1942.74231,0.00214
1940.68213,0.00223
1938.62196,0.00203
1936.56179,0.00198
1934.50162,0.00224
1932.44145,0.00263
1930.38127,0.00287
1928.32110,0.00282
1926.26093,0.00263
1924.20076,0.00250
1922.14059,0.00251
1920.08041,0.00268
1918.02024,0.00300
1915.96007,0.00316
1913.89990,0.00295
1911.83972,0.00263
1909.77955,0.00259
1907.71938,0.00278
1905.65921,0.00303
1903.59904,0.00332
1901.53886,0.00340
1899.47869,0.00322
1897.41852,0.00312
1895.35835,0.00325
1893.29818,0.00334
1891.23800,0.00336
1889.17783,0.00342
1887.11766,0.00357
1885.05749,0.00378
1882.99731,0.00397
1880.93714,0.00397
1878.87697,0.00376
1876.81680,0.00355
1874.75663,0.00348
1872.69645,0.00345
1870.63628,0.00344
1868.57611,0.00347
1866.51594,0.00348
1864.45577,0.00342
1862.39559,0.00342
1860.33542,0.00355
1858.27525,0.00370
1856.21508,0.00368
1854.15491,0.00353
1852.09473,0.00342
1850.03456,0.00333
1847.97439,0.00309
1845.91422,0.00285
1843.85404,0.00286
1841.79387,0.00310
1839.73370,0.00336
1837.67353,0.00358
1835.61336,0.00363
1833.55318,0.00360
1831.49301,0.00371
1829.43284,0.00386
1827.37267,0.00384
1825.31250,0.00378
1823.25232,0.00383
1821.19215,0.00390
1819.13198,0.00391
1817.07181,0.00394
1815.01163,0.00394
1812.95146,0.00381
1810.89129,0.00366
1808.83112,0.00374
1806.77095,0.00392
1804.71077,0.00383
1802.65060,0.00348
1800.59043,0.00329
1798.53026,0.00336
1796.47009,0.00345
1794.40991,0.00350
1792.34974,0.00350
1790.28957,0.00341
1788.22940,0.00336
1786.16923,0.00337
1784.10905,0.00348
1782.04888,0.00369
1779.98871,0.00374
1777.92854,0.00362
1775.86836,0.00365
1773.80819,0.00388
1771.74802,0.00386
1769.68785,0.00344
1767.62768,0.00322
1765.56750,0.00339
1763.50733,0.00358
1761.44716,0.00351
1759.38699,0.00332
1757.32682,0.00332
1755.26664,0.00350
1753.20647,0.00359
1751.14630,0.00354
1749.08613,0.00352
1747.02596,0.00356
1744.96578,0.00360
1742.90561,0.00363
1740.84544,0.00358
1738.78527,0.00347
1736.72509,0.00338
1734.66492,0.00334
1732.60475,0.00336
1730.54458,0.00349
1728.48441,0.00354
1726.42423,0.00345
1724.36406,0.00325
1722.30389,0.00310
1720.24372,0.00327
1718.18355,0.00349
1716.12337,0.00317
1714.06320,0.00282
1712.00303,0.00277
1709.94286,0.00293
1707.88268,0.00310
1705.82251,0.00304
1703.76234,0.00287
1701.70217,0.00304
1699.64200,0.00342
1697.58182,0.00354
1695.52165,0.00357
1693.46148,0.00373
1691.40131,0.00399
1689.34114,0.00437
1687.28096,0.00485
1685.22079,0.00546
1683.16062,0.00584
1681.10045,0.00602
1679.04028,0.00636
1676.98010,0.00687
1674.91993,0.00732
1672.85976,0.00771
1670.79959,0.00827
1668.73941,0.00882
1666.67924,0.00906
1664.61907,0.00925
1662.55890,0.00943
1660.49873,0.00928
1658.43855,0.00904
1656.37838,0.00921
1654.31821,0.00977
1652.25804,0.00989
1650.19787,0.00958
1648.13769,0.00932
1646.07752,0.00925
1644.01735,0.00900
1641.95718,0.00877
1639.89701,0.00894
1637.83683,0.00942
1635.77666,0.00962
1633.71649,0.00932
1631.65632,0.00897
1629.59614,0.00882
1627.53597,0.00873
1625.47580,0.00856
1623.41563,0.00836
1621.35546,0.00811
1619.29528,0.00806
1617.23511,0.00827
1615.17494,0.00821
1613.11477,0.00795
1611.05460,0.00789
1608.99442,0.00801
1606.93425,0.00807
1604.87408,0.00810
1602.81391,0.00809
1600.75373,0.00796
1598.69356,0.00778
1596.63339,0.00762
1594.57322,0.00743
1592.51305,0.00718
1590.45287,0.00694
1588.39270,0.00679
1586.33253,0.00673
1584.27236,0.00658
1582.21219,0.00630
1580.15201,0.00610
1578.09184,0.00610
1576.03167,0.00593
1573.97150,0.00542
1571.91133,0.00521
1569.85115,0.00533
1567.79098,0.00510
1565.73081,0.00453
1563.67064,0.00418
1561.61046,0.00447
1559.55029,0.00488
1557.49012,0.00430
1555.42995,0.00346
1553.36978,0.00302
1551.30960,0.00291
1549.24943,0.00288
1547.18926,0.00283
1545.12909,0.00288
1543.06892,0.00319
1541.00874,0.00370
1538.94857,0.00356
1536.88840,0.00285
1534.82823,0.00241
1532.76805,0.00242
1530.70788,0.00240
1528.64771,0.00226
1526.58754,0.00202
1524.52737,0.00176
1522.46719,0.00161
1520.40702,0.00145
1518.34685,0.00144
1516.28668,0.00149
1514.22651,0.00128
1512.16633,0.00096
1510.10616,0.00094
1508.04599,0.00139
1505.98582,0.00193
1503.92565,0.00186
1501.86547,0.00150
1499.80530,0.00160
1497.74513,0.00205
1495.68496,0.00226
1493.62478,0.00225
1491.56461,0.00232
1489.50444,0.00240
1487.44427,0.00241
1485.38410,0.00249
1483.32392,0.00260
1481.26375,0.00262
1479.20358,0.00252
1477.14341,0.00250
1475.08324,0.00277
1473.02306,0.00315
1470.96289,0.00324
1468.90272,0.00310
1466.84255,0.00316
1464.78238,0.00344
1462.72220,0.00367
1460.66203,0.00393
1458.60186,0.00414
1456.54169,0.00392
1454.48151,0.00371
1452.42134,0.00371
1450.36117,0.00390
1448.30100,0.00420
1446.24083,0.00450
1444.18065,0.00475
1442.12048,0.00489
1440.06031,0.00487
1438.00014,0.00471
1435.93997,0.00458
1433.87979,0.00465
1431.81962,0.00482
1429.75945,0.00501
1427.69928,0.00514
1425.63910,0.00527
1423.57893,0.00531
1421.51876,0.00515
1419.45859,0.00496
1417.39842,0.00507
1415.33824,0.00551
1413.27807,0.00596
1411.21790,0.00627
1409.15773,0.00646
1407.09756,0.00658
1405.03738,0.00668
1402.97721,0.00675
1400.91704,0.00670
1398.85687,0.00647
1396.79670,0.00625
1394.73652,0.00634
1392.67635,0.00656
1390.61618,0.00663
1388.55601,0.00666
1386.49583,0.00687
1384.43566,0.00713
1382.37549,0.00722
1380.31532,0.00718
1378.25515,0.00721
1376.19497,0.00732
1374.13480,0.00731
1372.07463,0.00725
1370.01446,0.00735
1367.95429,0.00752
1365.89411,0.00755
1363.83394,0.00735
1361.77377,0.00713
1359.71360,0.00714
1357.65343,0.00723
1355.59325,0.00729
1353.53308,0.00730
1351.47291,0.00725
1349.41274,0.00713
1347.35256,0.00697
1345.29239,0.00683
1343.23222,0.00658
1341.17205,0.00606
1339.11188,0.00541
1337.05170,0.00517
1334.99153,0.00539
1332.93136,0.00564
1330.87119,0.00569
1328.81102,0.00562
1326.75084,0.00554
1324.69067,0.00550
1322.63050,0.00548
1320.57033,0.00535
1318.51015,0.00508
1316.44998,0.00485
1314.38981,0.00483
1312.32964,0.00498
1310.26947,0.00515
1308.20929,0.00525
1306.14912,0.00524
1304.08895,0.00518
1302.02878,0.00513
1299.96861,0.00508
1297.90843,0.00500
1295.84826,0.00495
1293.78809,0.00499
1291.72792,0.00501
1289.66775,0.00492
1287.60757,0.00480
1285.54740,0.00478
1283.48723,0.00484
1281.42706,0.00486
1279.36688,0.00477
1277.30671,0.00467
1275.24654,0.00464
1273.18637,0.00472
1271.12620,0.00474
1269.06602,0.00459
1267.00585,0.00446
1264.94568,0.00454
1262.88551,0.00466
1260.82534,0.00473
1258.76516,0.00478
1256.70499,0.00486
1254.64482,0.00490
1252.58465,0.00486
1250.52447,0.00476
1248.46430,0.00466
1246.40413,0.00464
1244.34396,0.00467
1242.28379,0.00474
1240.22361,0.00483
1238.16344,0.00484
1236.10327,0.00479
1234.04310,0.00473
1231.98293,0.00464
1229.92275,0.00456
1227.86258,0.00450
1225.80241,0.00439
1223.74224,0.00424
1221.68207,0.00416
1219.62189,0.00413
1217.56172,0.00416
1215.50155,0.00421
1213.44138,0.00415
1211.38120,0.00409
1209.32103,0.00416
1207.26086,0.00427
1205.20069,0.00436
1203.14052,0.00447
1201.08034,0.00465
1199.02017,0.00487
1196.96000,0.00534
1194.89983,0.00590
1192.83966,0.00638
1190.77948,0.00688
1188.71931,0.00746
1186.65914,0.00811
1184.59897,0.00890
1182.53880,0.00978
1180.47862,0.01063
1178.41845,0.01142
1176.35828,0.01224
1174.29811,0.01315
1172.23793,0.01403
1170.17776,0.01472
1168.11759,0.01527
1166.05742,0.01592
1163.99725,0.01670
1161.93707,0.01749
1159.87690,0.01809
1157.81673,0.01855
1155.75656,0.01900
1153.69639,0.01942
1151.63621,0.01985
1149.57604,0.02031
1147.51587,0.02063
1145.45570,0.02075
1143.39552,0.02077
1141.33535,0.02071
1139.27518,0.02060
1137.21501,0.02043
1135.15484,0.02025
1133.09466,0.02013
1131.03449,0.01999
1128.97432,0.01993
1126.91415,0.02004
1124.85398,0.02017
1122.79380,0.02034
1120.73363,0.02062
1118.67346,0.02096
1116.61329,0.02130
1114.55312,0.02171
1112.49294,0.02228
1110.43277,0.02288
1108.37260,0.02332
1106.31243,0.02371
1104.25225,0.02424
1102.19208,0.02488
1100.13191,0.02544
1098.07174,0.02595
1096.01157,0.02649
1093.95139,0.02706
1091.89122,0.02759
1089.83105,0.02810
1087.77088,0.02866
1085.71071,0.02930
1083.65053,0.02988
1081.59036,0.03032
1079.53019,0.03071
1077.47002,0.03107
1075.40985,0.03132
1073.34967,0.03146
1071.28950,0.03154
1069.22933,0.03156
1067.16916,0.03144
1065.10898,0.03107
1063.04881,0.03061
1060.98864,0.03021
1058.92847,0.02978
1056.86830,0.02925
1054.80812,0.02864
1052.74795,0.02798
1050.68778,0.02728
1048.62761,0.02657
1046.56744,0.02569
1044.50726,0.02469
1042.44709,0.02382
1040.38692,0.02304
1038.32675,0.02223
1036.26657,0.02141
1034.20640,0.02053
1032.14623,0.01966
1030.08606,0.01897
1028.02589,0.01839
1025.96571,0.01773
1023.90554,0.01709
1021.84537,0.01663
1019.78520,0.01628
1017.72503,0.01593
1015.66485,0.01566
1013.60468,0.01546
1011.54451,0.01528
1009.48434,0.01521
1007.42417,0.01521
1005.36399,0.01527
1003.30382,0.01548
1001.24365,0.01586
999.18348,0.01624
997.12330,0.01656
995.06313,0.01682
993.00296,0.01698
990.94279,0.01724
988.88262,0.01770
986.82244,0.01804
984.76227,0.01810
982.70210,0.01806
980.64193,0.01808
978.58176,0.01827
976.52158,0.01848
974.46141,0.01850
972.40124,0.01848
970.34107,0.01844
968.28089,0.01835
966.22072,0.01836
964.16055,0.01845
962.10038,0.01841
960.04021,0.01836
957.98003,0.01832
955.91986,0.01820
953.85969,0.01810
951.79952,0.01815
949.73935,0.01821
947.67917,0.01811
945.61900,0.01787
943.55883,0.01761
941.49866,0.01728
939.43849,0.01686
937.37831,0.01650
935.31814,0.01614
933.25797,0.01554
931.19780,0.01481
929.13762,0.01430
927.07745,0.01394
925.01728,0.01348
922.95711,0.01288
920.89694,0.01221
918.83676,0.01178
916.77659,0.01163
914.71642,0.01132
912.65625,0.01072
910.59608,0.01011
908.53590,0.00971
906.47573,0.00947
904.41556,0.00926
902.35539,0.00905
900.29522,0.00887
898.23504,0.00886
896.17487,0.00902
894.11470,0.00924
892.05453,0.00946
889.99435,0.00964
887.93418,0.00983
885.87401,0.01024
883.81384,0.01093
881.75367,0.01174
879.69349,0.01260
877.63332,0.01337
875.57315,0.01400
873.51298,0.01468
871.45281,0.01562
869.39263,0.01663
867.33246,0.01751
865.27229,0.01821
863.21212,0.01876
861.15194,0.01930
859.09177,0.01984
857.03160,0.02014
854.97143,0.02001
852.91126,0.01966
850.85108,0.01940
848.79091,0.01910
846.73074,0.01844
844.67057,0.01755
842.61040,0.01675
840.55022,0.01606
838.49005,0.01545
836.42988,0.01483
834.36971,0.01417
832.30954,0.01356
830.24936,0.01309
828.18919,0.01260
826.12902,0.01198
824.06885,0.01149
822.00867,0.01124
819.94850,0.01089
817.88833,0.01057
815.82816,0.01040
813.76799,0.01003
811.70781,0.00952
809.64764,0.00929
807.58747,0.00930
805.52730,0.00920
803.46713,0.00887
801.40695,0.00846
799.34678,0.00817
797.28661,0.00796
795.22644,0.00775
793.16627,0.00760
791.10609,0.00758
789.04592,0.00762
786.98575,0.00765
784.92558,0.00763
782.86540,0.00741
780.80523,0.00678
778.74506,0.00610
776.68489,0.00602
774.62472,0.00640
772.56454,0.00660
770.50437,0.00643
768.44420,0.00613
766.38403,0.00598
764.32386,0.00581
762.26368,0.00554
760.20351,0.00545
758.14334,0.00548
756.08317,0.00550
754.02299,0.00514
751.96282,0.00453
749.90265,0.00439
747.84248,0.00453
745.78231,0.00438
743.72213,0.00426
741.66196,0.00452
739.60179,0.00481
737.54162,0.00481
735.48145,0.00472
733.42127,0.00473
731.36110,0.00456
729.30093,0.00423
727.24076,0.00415
725.18059,0.00420
723.12041,0.00430
721.06024,0.00401
719.00007,0.00427
716.93990,0.00451
714.87972,0.00465
712.81955,0.00469
710.75938,0.00439
708.69921,0.00420
706.63904,0.00437
704.57886,0.00450
702.51869,0.00437
700.45852,0.00409
698.39835,0.00377
696.33818,0.00373
694.27800,0.00419
692.21783,0.00467
690.15766,0.00469
688.09749,0.00463
686.03731,0.00493
683.97714,0.00502
681.91697,0.00453
679.85680,0.00404
677.79663,0.00399
675.73645,0.00398
673.67628,0.00462
671.61611,0.00704
669.55594,0.00579
667.49577,0.00171
665.43559,0.00779
663.37542,0.00634
661.31525,0.00483
659.25508,0.00528
657.19491,0.00575
655.13473,0.00542
653.07456,0.00468
651.01439,0.00404
648.95422,0.00358
646.89404,0.00336
644.83387,0.00297
642.77370,0.00292
640.71353,0.00319
638.65336,0.00309
636.59318,0.00241
634.53301,0.00204
632.47284,0.00246
630.41267,0.00267
628.35250,0.00202
626.29232,0.00154
624.23215,0.00193
622.17198,0.00238
620.11181,0.00189
618.05164,0.00033
615.99146,0.00003
613.93129,0.00160
611.87112,0.00222
609.81095,0.00098
607.75077,0.00000
605.69060,0.00040
603.63043,0.00094
601.57026,0.00044
599.51009,0.00000
