3996.73391,-0.00007
3994.67373,-0.00014
3992.61356,-0.00019
3990.55339,-0.00015
3988.49322,-0.00018
3986.43305,-0.00031
3984.37287,-0.00033
3982.31270,-0.00008
3980.25253,0.00034
3978.19236,0.00059
3976.13219,0.00048
3974.07201,0.00020
3972.01184,0.00005
3969.95167,0.00017
3967.89150,0.00056
3965.83133,0.00091
3963.77115,0.00085
3961.71098,0.00050
3959.65081,0.00039
3957.59064,0.00060
3955.53046,0.00080
3953.47029,0.00071
3951.41012,0.00035
3949.34995,-0.00000
3947.28978,0.00000
3945.22960,0.00027
3943.16943,0.00043
3941.10926,0.00043
3939.04909,0.00040
3936.98892,0.00035
3934.92874,0.00022
3932.86857,0.00016
3930.80840,0.00043
3928.74823,0.00083
3926.68805,0.00113
3924.62788,0.00138
3922.56771,0.00145
3920.50754,0.00126
3918.44737,0.00093
3916.38719,0.00080
3914.32702,0.00097
3912.26685,0.00120
3910.20668,0.00138
3908.14651,0.00142
3906.08633,0.00118
3904.02616,0.00064
3901.96599,0.00025
3899.90582,0.00052
3897.84565,0.00095
3895.78547,0.00103
3893.72530,0.00095
3891.66513,0.00098
3889.60496,0.00099
3887.54478,0.00078
3885.48461,0.00052
3883.42444,0.00038
3881.36427,0.00056
3879.30410,0.00113
3877.24392,0.00144
3875.18375,0.00112
3873.12358,0.00044
3871.06341,-0.00003
3869.00324,0.00008
3866.94306,0.00048
3864.88289,0.00076
3862.82272,0.00075
3860.76255,0.00055
3858.70237,0.00027
3856.64220,0.00000
3854.58203,0.00040
3852.52186,0.00158
3850.46169,0.00216
3848.40151,0.00171
3846.34134,0.00119
3844.28117,0.00110
3842.22100,0.00126
3840.16083,0.00143
3838.10065,0.00137
3836.04048,0.00107
3833.98031,0.00097
3831.92014,0.00139
3829.85997,0.00194
3827.79979,0.00200
3825.73962,0.00174
3823.67945,0.00167
3821.61928,0.00189
3819.55910,0.00196
3817.49893,0.00202
3815.43876,0.00244
3813.37859,0.00283
3811.31842,0.00280
3809.25824,0.00283
3807.19807,0.00307
3805.13790,0.00313
3803.07773,0.00311
3801.01756,0.00335
3798.95738,0.00343
3796.89721,0.00321
3794.83704,0.00313
3792.77687,0.00327
3790.71670,0.00342
3788.65652,0.00349
3786.59635,0.00356
3784.53618,0.00377
3782.47601,0.00406
3780.41583,0.00429
3778.35566,0.00422
3776.29549,0.00386
3774.23532,0.00353
3772.17515,0.00338
3770.11497,0.00324
3768.05480,0.00304
3765.99463,0.00288
3763.93446,0.00281
3761.87429,0.00271
3759.81411,0.00252
3757.75394,0.00225
3755.69377,0.00204
3753.63360,0.00186
3751.57342,0.00147
3749.51325,0.00080
3747.45308,0.00029
3745.39291,0.00000
3743.33274,0.00029
3741.27256,0.00079
3739.21239,0.00080
3737.15222,0.00055
3735.09205,0.00058
3733.03188,0.00121
3730.97170,0.00214
3728.91153,0.00252
3726.85136,0.00249
3724.79119,0.00256
3722.73102,0.00258
3720.67084,0.00287
3718.61067,0.00295
3716.55050,0.00289
3714.49033,0.00275
3712.43015,0.00236
3710.36998,0.00274
3708.30981,0.00341
3706.24964,0.00402
3704.18947,0.00429
3702.12929,0.00423
3700.06912,0.00413
3698.00895,0.00400
3695.94878,0.00396
3693.88861,0.00404
3691.82843,0.00435
3689.76826,0.00428
3687.70809,0.00415
3685.64792,0.00405
3683.58775,0.00410
3681.52757,0.00415
3679.46740,0.00416
3677.40723,0.00395
3675.34706,0.00369
3673.28688,0.00354
3671.22671,0.00354
3669.16654,0.00378
3667.10637,0.00404
3665.04620,0.00414
3662.98602,0.00433
3660.92585,0.00460
3658.86568,0.00465
3656.80551,0.00444
3654.74534,0.00418
3652.68516,0.00413
3650.62499,0.00432
3648.56482,0.00467
3646.50465,0.00526
3644.44447,0.00531
3642.38430,0.00506
3640.32413,0.00507
3638.26396,0.00525
3636.20379,0.00524
3634.14361,0.00497
3632.08344,0.00475
3630.02327,0.00468
3627.96310,0.00502
3625.90293,0.00542
3623.84275,0.00571
3621.78258,0.00569
3619.72241,0.00551
3617.66224,0.00567
3615.60207,0.00582
3613.54189,0.00577
3611.48172,0.00548
3609.42155,0.00556
3607.36138,0.00597
3605.30120,0.00613
3603.24103,0.00643
3601.18086,0.00699
3599.12069,0.00749
3597.06052,0.00744
3595.00034,0.00741
3592.94017,0.00723
3590.88000,0.00704
3588.81983,0.00679
3586.75966,0.00714
3584.69948,0.00793
3582.63931,0.00831
3580.57914,0.00832
3578.51897,0.00844
3576.45879,0.00893
3574.39862,0.00944
3572.33845,0.00949
3570.27828,0.00903
3568.21811,0.00850
3566.15793,0.00851
3564.09776,0.00909
3562.03759,0.00958
3559.97742,0.00991
3557.91725,0.01017
3555.85707,0.01025
3553.79690,0.01030
3551.73673,0.01050
3549.67656,0.01057
3547.61639,0.01034
3545.55621,0.01038
3543.49604,0.01096
3541.43587,0.01163
3539.37570,0.01200
3537.31552,0.01211
3535.25535,0.01205
3533.19518,0.01193
3531.13501,0.01184
3529.07484,0.01179
3527.01466,0.01173
3524.95449,0.01179
3522.89432,0.01214
3520.83415,0.01263
3518.77398,0.01309
3516.71380,0.01349
3514.65363,0.01376
3512.59346,0.01382
3510.53329,0.01364
3508.47312,0.01348
3506.41294,0.01357
3504.35277,0.01378
3502.29260,0.01384
3500.23243,0.01398
3498.17225,0.01439
3496.11208,0.01478
3494.05191,0.01492
3491.99174,0.01500
3489.93157,0.01517
3487.87139,0.01527
3485.81122,0.01524
3483.75105,0.01539
3481.69088,0.01577
3479.63071,0.01603
3477.57053,0.01609
3475.51036,0.01611
3473.45019,0.01617
3471.39002,0.01617
3469.32984,0.01616
3467.26967,0.01626
3465.20950,0.01637
3463.14933,0.01644
3461.08916,0.01675
3459.02898,0.01719
3456.96881,0.01731
3454.90864,0.01703
3452.84847,0.01675
3450.78830,0.01677
3448.72812,0.01701
3446.66795,0.01717
3444.60778,0.01708
3442.54761,0.01702
3440.48744,0.01717
3438.42726,0.01739
3436.36709,0.01767
3434.30692,0.01800
3432.24675,0.01809
3430.18657,0.01802
3428.12640,0.01807
3426.06623,0.01818
3424.00606,0.01824
3421.94589,0.01828
3419.88571,0.01840
3417.82554,0.01865
3415.76537,0.01899
3413.70520,0.01921
3411.64503,0.01920
3409.58485,0.01923
3407.52468,0.01944
3405.46451,0.01947
3403.40434,0.01930
3401.34416,0.01929
3399.28399,0.01882
3397.22382,0.01887
3395.16365,0.01884
3393.10348,0.01859
3391.04330,0.01844
3388.98313,0.01857
3386.92296,0.01887
3384.86279,0.01917
3382.80262,0.01953
3380.74244,0.02002
3378.68227,0.02038
3376.62210,0.02028
3374.56193,0.01993
3372.50176,0.01985
3370.44158,0.01996
3368.38141,0.01980
3366.32124,0.01951
3364.26107,0.01958
3362.20089,0.01986
3360.14072,0.02015
3358.08055,0.02043
3356.02038,0.02039
3353.96021,0.02007
3351.90003,0.01992
3349.83986,0.02011
3347.77969,0.02043
3345.71952,0.02059
3343.65935,0.02051
3341.59917,0.02057
3339.53900,0.02074
3337.47883,0.02060
3335.41866,0.02044
3333.35849,0.02061
3331.29831,0.02080
3329.23814,0.02075
3327.17797,0.02068
3325.11780,0.02079
3323.05762,0.02103
3320.99745,0.02120
3318.93728,0.02121
3316.87711,0.02115
3314.81694,0.02107
3312.75676,0.02093
3310.69659,0.02079
3308.63642,0.02077
3306.57625,0.02088
3304.51608,0.02106
3302.45590,0.02119
3300.39573,0.02115
3298.33556,0.02105
3296.27539,0.02103
3294.21521,0.02103
3292.15504,0.02102
3290.09487,0.02104
3288.03470,0.02106
3285.97453,0.02111
3283.91435,0.02122
3281.85418,0.02122
3279.79401,0.02117
3277.73384,0.02121
3275.67367,0.02124
3273.61349,0.02117
3271.55332,0.02110
3269.49315,0.02108
3267.43298,0.02102
3265.37281,0.02089
3263.31263,0.02092
3261.25246,0.02103
3259.19229,0.02100
3257.13212,0.02086
3255.07194,0.02078
3253.01177,0.02088
3250.95160,0.02105
3248.89143,0.02109
3246.83126,0.02093
3244.77108,0.02067
3242.71091,0.02043
3240.65074,0.02045
3238.59057,0.02074
3236.53040,0.02096
3234.47022,0.02099
3232.41005,0.02101
3230.34988,0.02103
3228.28971,0.02098
3226.22954,0.02085
3224.16936,0.02064
3222.10919,0.02038
3220.04902,0.02016
3217.98885,0.02016
3215.92867,0.02029
3213.86850,0.02034
3211.80833,0.02034
3209.74816,0.02047
3207.68799,0.02062
3205.62781,0.02064
3203.56764,0.02060
3201.50747,0.02056
3199.44730,0.02052
3197.38713,0.02048
3195.32695,0.02037
3193.26678,0.02025
3191.20661,0.02020
3189.14644,0.02022
3187.08626,0.02017
3185.02609,0.02013
3182.96592,0.02018
3180.90575,0.02014
3178.84558,0.01989
3176.78540,0.01970
3174.72523,0.01972
3172.66506,0.01979
3170.60489,0.01984
3168.54472,0.01999
3166.48454,0.02010
3164.42437,0.01999
3162.36420,0.01981
3160.30403,0.01965
3158.24386,0.01946
3156.18368,0.01932
3154.12351,0.01934
3152.06334,0.01945
3150.00317,0.01949
3147.94299,0.01947
3145.88282,0.01938
3143.82265,0.01928
3141.76248,0.01926
3139.70231,0.01928
3137.64213,0.01927
3135.58196,0.01922
3133.52179,0.01921
3131.46162,0.01927
3129.40145,0.01920
3127.34127,0.01902
3125.28110,0.01890
3123.22093,0.01883
3121.16076,0.01872
3119.10058,0.01851
3117.04041,0.01827
3114.98024,0.01819
3112.92007,0.01837
3110.85990,0.01859
3108.79972,0.01869
3106.73955,0.01876
3104.67938,0.01883
3102.61921,0.01875
3100.55904,0.01852
3098.49886,0.01838
3096.43869,0.01840
3094.37852,0.01848
3092.31835,0.01854
3090.25818,0.01855
3088.19800,0.01841
3086.13783,0.01825
3084.07766,0.01822
3082.01749,0.01815
3079.95731,0.01795
3077.89714,0.01786
3075.83697,0.01801
3073.77680,0.01820
3071.71663,0.01818
3069.65645,0.01795
3067.59628,0.01778
3065.53611,0.01772
3063.47594,0.01770
3061.41577,0.01770
3059.35559,0.01775
3057.29542,0.01781
3055.23525,0.01783
3053.17508,0.01777
3051.11491,0.01764
3049.05473,0.01749
3046.99456,0.01744
3044.93439,0.01750
3042.87422,0.01762
3040.81404,0.01764
3038.75387,0.01755
3036.69370,0.01734
3034.63353,0.01701
3032.57336,0.01667
3030.51318,0.01662
3028.45301,0.01679
3026.39284,0.01685
3024.33267,0.01675
3022.27250,0.01662
3020.21232,0.01651
3018.15215,0.01646
3016.09198,0.01640
3014.03181,0.01628
3011.97163,0.01621
3009.91146,0.01629
3007.85129,0.01640
3005.79112,0.01647
3003.73095,0.01647
3001.67077,0.01643
2999.61060,0.01652
2997.55043,0.01659
2995.49026,0.01647
2993.43009,0.01627
2991.36991,0.01615
2989.30974,0.01604
2987.24957,0.01603
2985.18940,0.01616
2983.12923,0.01635
2981.06905,0.01643
2979.00888,0.01638
2976.94871,0.01634
2974.88854,0.01637
2972.82836,0.01642
2970.76819,0.01654
2968.70802,0.01667
2966.64785,0.01658
2964.58768,0.01648
2962.52750,0.01660
2960.46733,0.01677
2958.40716,0.01680
2956.34699,0.01673
2954.28682,0.01668
2952.22664,0.01673
2950.16647,0.01676
2948.10630,0.01676
2946.04613,0.01694
2943.98596,0.01719
2941.92578,0.01721
2939.86561,0.01704
2937.80544,0.01686
2935.74527,0.01674
2933.68509,0.01681
2931.62492,0.01708
2929.56475,0.01722
2927.50458,0.01705
2925.44441,0.01685
2923.38423,0.01674
2921.32406,0.01653
2919.26389,0.01630
2917.20372,0.01623
2915.14355,0.01622
2913.08337,0.01623
2911.02320,0.01631
2908.96303,0.01632
2906.90286,0.01624
2904.84268,0.01616
2902.78251,0.01615
2900.72234,0.01625
2898.66217,0.01632
2896.60200,0.01627
2894.54182,0.01622
2892.48165,0.01624
2890.42148,0.01624
2888.36131,0.01627
2886.30114,0.01634
2884.24096,0.01647
2882.18079,0.01661
2880.12062,0.01658
2878.06045,0.01645
2876.00028,0.01636
2873.94010,0.01633
2871.87993,0.01635
2869.81976,0.01639
2867.75959,0.01630
2865.69941,0.01611
2863.63924,0.01600
2861.57907,0.01590
2859.51890,0.01581
2857.45873,0.01581
2855.39855,0.01572
2853.33838,0.01551
2851.27821,0.01536
2849.21804,0.01532
2847.15787,0.01524
2845.09769,0.01509
2843.03752,0.01506
2840.97735,0.01518
2838.91718,0.01523
2836.85700,0.01524
2834.79683,0.01523
2832.73666,0.01511
2830.67649,0.01501
2828.61632,0.01500
2826.55614,0.01497
2824.49597,0.01492
2822.43580,0.01487
2820.37563,0.01488
2818.31546,0.01487
2816.25528,0.01477
2814.19511,0.01468
2812.13494,0.01466
2810.07477,0.01459
2808.01460,0.01447
2805.95442,0.01451
2803.89425,0.01466
2801.83408,0.01468
2799.77391,0.01455
2797.71373,0.01439
2795.65356,0.01431
2793.59339,0.01439
2791.53322,0.01447
2789.47305,0.01440
2787.41287,0.01422
2785.35270,0.01403
2783.29253,0.01400
2781.23236,0.01409
2779.17219,0.01404
2777.11201,0.01388
2775.05184,0.01378
2772.99167,0.01377
2770.93150,0.01387
2768.87133,0.01396
2766.81115,0.01396
2764.75098,0.01397
2762.69081,0.01393
2760.63064,0.01377
2758.57046,0.01358
2756.51029,0.01350
2754.45012,0.01350
2752.38995,0.01354
2750.32978,0.01368
2748.26960,0.01380
2746.20943,0.01370
2744.14926,0.01339
2742.08909,0.01319
2740.02892,0.01330
2737.96874,0.01343
2735.90857,0.01331
2733.84840,0.01317
2731.78823,0.01315
2729.72805,0.01318
2727.66788,0.01319
2725.60771,0.01314
2723.54754,0.01311
2721.48737,0.01316
2719.42719,0.01322
2717.36702,0.01322
2715.30685,0.01311
2713.24668,0.01297
2711.18651,0.01286
2709.12633,0.01283
2707.06616,0.01290
2705.00599,0.01301
2702.94582,0.01311
2700.88565,0.01312
2698.82547,0.01294
2696.76530,0.01277
2694.70513,0.01275
2692.64496,0.01274
2690.58478,0.01276
2688.52461,0.01285
2686.46444,0.01295
2684.40427,0.01298
2682.34410,0.01293
2680.28392,0.01288
2678.22375,0.01285
2676.16358,0.01270
2674.10341,0.01254
2672.04324,0.01251
2669.98306,0.01261
2667.92289,0.01266
2665.86272,0.01267
2663.80255,0.01278
2661.74238,0.01286
2659.68220,0.01279
2657.62203,0.01269
2655.56186,0.01269
2653.50169,0.01285
2651.44151,0.01301
2649.38134,0.01294
2647.32117,0.01280
2645.26100,0.01275
2643.20083,0.01270
2641.14065,0.01268
2639.08048,0.01267
2637.02031,0.01262
2634.96014,0.01261
2632.89997,0.01260
2630.83979,0.01260
2628.77962,0.01264
2626.71945,0.01262
2624.65928,0.01251
2622.59910,0.01241
2620.53893,0.01240
2618.47876,0.01240
2616.41859,0.01230
2614.35842,0.01215
2612.29824,0.01198
2610.23807,0.01193
2608.17790,0.01208
2606.11773,0.01222
2604.05756,0.01224
2601.99738,0.01226
2599.93721,0.01221
2597.87704,0.01219
2595.81687,0.01224
2593.75670,0.01232
2591.69652,0.01241
2589.63635,0.01232
2587.57618,0.01212
2585.51601,0.01207
2583.45583,0.01215
2581.39566,0.01217
2579.33549,0.01212
2577.27532,0.01206
2575.21515,0.01205
2573.15497,0.01205
2571.09480,0.01205
2569.03463,0.01213
2566.97446,0.01231
2564.91429,0.01245
2562.85411,0.01241
2560.79394,0.01205
2558.73377,0.01160
2556.67360,0.01153
2554.61342,0.01189
2552.55325,0.01219
2550.49308,0.01221
2548.43291,0.01220
2546.37274,0.01216
2544.31256,0.01199
2542.25239,0.01189
2540.19222,0.01197
2538.13205,0.01209
2536.07188,0.01206
2534.01170,0.01200
2531.95153,0.01209
2529.89136,0.01222
2527.83119,0.01233
2525.77102,0.01219
2523.71084,0.01189
2521.65067,0.01189
2519.59050,0.01213
2517.53033,0.01226
2515.47015,0.01229
2513.40998,0.01230
2511.34981,0.01239
2509.28964,0.01246
2507.22947,0.01241
2505.16929,0.01229
2503.10912,0.01213
2501.04895,0.01207
2498.98878,0.01226
2496.92861,0.01258
2494.86843,0.01287
2492.80826,0.01296
2490.74809,0.01284
2488.68792,0.01269
2486.62775,0.01251
2484.56757,0.01241
2482.50740,0.01254
2480.44723,0.01282
2478.38706,0.01308
2476.32688,0.01310
2474.26671,0.01295
2472.20654,0.01300
2470.14637,0.01326
2468.08620,0.01342
2466.02602,0.01336
2463.96585,0.01316
2461.90568,0.01308
2459.84551,0.01314
2457.78534,0.01327
2455.72516,0.01337
2453.66499,0.01330
2451.60482,0.01318
2449.54465,0.01306
2447.48447,0.01297
2445.42430,0.01301
2443.36413,0.01308
2441.30396,0.01297
2439.24379,0.01281
2437.18361,0.01286
2435.12344,0.01293
2433.06327,0.01288
2431.00310,0.01290
2428.94293,0.01305
2426.88275,0.01325
2424.82258,0.01337
2422.76241,0.01336
2420.70224,0.01337
2418.64207,0.01312
2416.58189,0.01270
2414.52172,0.01273
2412.46155,0.01302
2410.40138,0.01318
2408.34120,0.01320
2406.28103,0.01308
2404.22086,0.01291
2402.16069,0.01283
2400.10052,0.01291
2398.04034,0.01305
2395.98017,0.01308
2393.92000,0.01305
2391.85983,0.01299
2389.79966,0.01292
2387.73948,0.01297
2385.67931,0.01340
2383.61914,0.01368
2381.55897,0.01313
2379.49880,0.01259
2377.43862,0.01209
2375.37845,0.01049
2373.31828,0.01163
2371.25811,0.01242
2369.19793,0.01086
2367.13776,0.01032
2365.07759,0.01333
2363.01742,0.01360
2360.95725,0.01691
2358.89707,0.01423
2356.83690,0.01148
2354.77673,0.00763
2352.71656,0.00925
2350.65639,0.01816
2348.59621,0.02482
2346.53604,0.01030
2344.47587,0.00760
2342.41570,0.01175
2340.35552,0.01500
2338.29535,0.01416
2336.23518,0.01364
2334.17501,0.01350
2332.11484,0.01326
2330.05466,0.01498
2327.99449,0.01347
2325.93432,0.01677
2323.87415,0.01526
2321.81398,0.01510
2319.75380,0.01119
2317.69363,0.01166
2315.63346,0.01155
2313.57329,0.00971
2311.51312,0.01030
2309.45294,0.01120
2307.39277,0.01203
2305.33260,0.01287
2303.27243,0.01337
2301.21225,0.01315
2299.15208,0.01342
2297.09191,0.01351
2295.03174,0.01275
2292.97157,0.01252
2290.91139,0.01268
2288.85122,0.01264
2286.79105,0.01256
2284.73088,0.01268
2282.67071,0.01282
2280.61053,0.01300
2278.55036,0.01293
2276.49019,0.01269
2274.43002,0.01280
2272.36984,0.01270
2270.30967,0.01259
2268.24950,0.01291
2266.18933,0.01326
2264.12916,0.01318
2262.06898,0.01304
2260.00881,0.01236
2257.94864,0.01164
2255.88847,0.01138
2253.82830,0.01165
2251.76812,0.01203
2249.70795,0.01198
2247.64778,0.01158
2245.58761,0.01145
2243.52744,0.01137
2241.46726,0.01119
2239.40709,0.01133
2237.34692,0.01164
2235.28675,0.01161
2233.22657,0.01134
2231.16640,0.01130
2229.10623,0.01141
2227.04606,0.01143
2224.98589,0.01146
2222.92571,0.01148
2220.86554,0.01139
2218.80537,0.01132
2216.74520,0.01110
2214.68503,0.01081
2212.62485,0.01093
2210.56468,0.01153
2208.50451,0.01223
2206.44434,0.01222
2204.38417,0.01126
2202.32399,0.01037
2200.26382,0.01037
2198.20365,0.01068
2196.14348,0.01053
2194.08330,0.01029
2192.02313,0.01063
2189.96296,0.01093
2187.90279,0.01042
2185.84262,0.00988
2183.78244,0.00999
2181.72227,0.01056
2179.66210,0.01112
2177.60193,0.01091
2175.54176,0.01001
2173.48158,0.00950
2171.42141,0.00997
2169.36124,0.01050
2167.30107,0.01010
2165.24089,0.00976
2163.18072,0.01014
2161.12055,0.00969
2159.06038,0.00839
2157.00021,0.00762
2154.94003,0.00753
2152.87986,0.00775
2150.81969,0.00754
2148.75952,0.00741
2146.69935,0.00837
2144.63917,0.00955
2142.57900,0.00993
2140.51883,0.00981
2138.45866,0.00977
2136.39849,0.00988
2134.33831,0.00984
2132.27814,0.00956
2130.21797,0.00936
2128.15780,0.00939
2126.09762,0.00956
2124.03745,0.00988
2121.97728,0.01020
2119.91711,0.01044
2117.85694,0.01075
2115.79676,0.01111
2113.73659,0.01137
2111.67642,0.01143
2109.61625,0.01132
2107.55608,0.01111
2105.49590,0.01094
2103.43573,0.01075
2101.37556,0.01033
2099.31539,0.00992
2097.25521,0.00968
2095.19504,0.00986
2093.13487,0.01009
2091.07470,0.01020
2089.01453,0.01048
2086.95435,0.01097
2084.89418,0.01145
2082.83401,0.01171
2080.77384,0.01162
2078.71367,0.01141
2076.65349,0.01141
2074.59332,0.01154
2072.53315,0.01151
2070.47298,0.01130
2068.41281,0.01118
2066.35263,0.01117
2064.29246,0.01071
2062.23229,0.00994
2060.17212,0.00949
2058.11194,0.00951
2056.05177,0.00998
2053.99160,0.01080
2051.93143,0.01148
2049.87126,0.01195
2047.81108,0.01226
2045.75091,0.01205
2043.69074,0.01159
2041.63057,0.01139
2039.57040,0.01157
2037.51022,0.01206
2035.45005,0.01215
2033.38988,0.01147
2031.32971,0.01107
2029.26954,0.01148
2027.20936,0.01136
2025.14919,0.01052
2023.08902,0.01031
2021.02885,0.01071
2018.96867,0.01097
2016.90850,0.01094
2014.84833,0.01115
2012.78816,0.01175
2010.72799,0.01224
2008.66781,0.01240
2006.60764,0.01194
2004.54747,0.01102
2002.48730,0.01061
2000.42713,0.01077
1998.36695,0.01064
1996.30678,0.01017
1994.24661,0.00997
1992.18644,0.00998
1990.12626,0.00984
1988.06609,0.00965
1986.00592,0.00993
1983.94575,0.01084
1981.88558,0.01154
1979.82540,0.01150
1977.76523,0.01138
1975.70506,0.01167
1973.64489,0.01183
1971.58472,0.01135
1969.52454,0.01070
1967.46437,0.01057
1965.40420,0.01090
1963.34403,0.01090
1961.28386,0.01060
1959.22368,0.01059
1957.16351,0.01044
1955.10334,0.00998
1953.04317,0.01000
1950.98299,0.01059
1948.92282,0.01081
1946.86265,0.01051
1944.80248,0.01043
1942.74231,0.01050
1940.68213,0.01019
1938.62196,0.00991
1936.56179,0.01017
1934.50162,0.01073
1932.44145,0.01109
1930.38127,0.01122
1928.32110,0.01137
1926.26093,0.01155
1924.20076,0.01160
1922.14059,0.01134
1920.08041,0.01103
1918.02024,0.01107
1915.96007,0.01132
1913.89990,0.01158
1911.83972,0.01167
1909.77955,0.01151
1907.71938,0.01133
1905.65921,0.01140
1903.59904,0.01160
1901.53886,0.01171
1899.47869,0.01174
1897.41852,0.01179
1895.35835,0.01184
1893.29818,0.01188
1891.23800,0.01199
1889.17783,0.01206
1887.11766,0.01211
1885.05749,0.01231
1882.99731,0.01263
1880.93714,0.01281
1878.87697,0.01278
1876.81680,0.01263
1874.75663,0.01240
1872.69645,0.01222
1870.63628,0.01225
1868.57611,0.01241
1866.51594,0.01239
1864.45577,0.01229
1862.39559,0.01233
1860.33542,0.01243
1858.27525,0.01243
1856.21508,0.01243
1854.15491,0.01246
1852.09473,0.01237
1850.03456,0.01218
1847.97439,0.01204
1845.91422,0.01211
1843.85404,0.01234
1841.79387,0.01257
1839.73370,0.01274
1837.67353,0.01277
1835.61336,0.01262
1833.55318,0.01255
1831.49301,0.01266
1829.43284,0.01276
1827.37267,0.01280
1825.31250,0.01286
1823.25232,0.01288
1821.19215,0.01286
1819.13198,0.01284
1817.07181,0.01278
1815.01163,0.01264
1812.95146,0.01249
1810.89129,0.01249
1808.83112,0.01269
1806.77095,0.01291
1804.71077,0.01286
1802.65060,0.01255
1800.59043,0.01237
1798.53026,0.01245
1796.47009,0.01261
1794.40991,0.01278
1792.34974,0.01295
1790.28957,0.01298
1788.22940,0.01289
1786.16923,0.01270
1784.10905,0.01252
1782.04888,0.01256
1779.98871,0.01268
1777.92854,0.01272
1775.86836,0.01279
1773.80819,0.01310
1771.74802,0.01336
1769.68785,0.01316
1767.62768,0.01289
1765.56750,0.01300
1763.50733,0.01326
1761.44716,0.01331
1759.38699,0.01310
1757.32682,0.01293
1755.26664,0.01293
1753.20647,0.01303
1751.14630,0.01315
1749.08613,0.01330
1747.02596,0.01339
1744.96578,0.01341
1742.90561,0.01345
1740.84544,0.01353
1738.78527,0.01356
1736.72509,0.01359
1734.66492,0.01366
1732.60475,0.01367
1730.54458,0.01368
1728.48441,0.01357
1726.42423,0.01339
1724.36406,0.01330
1722.30389,0.01344
1720.24372,0.01378
1718.18355,0.01390
1716.12337,0.01336
1714.06320,0.01285
1712.00303,0.01272
1709.94286,0.01294
1707.88268,0.01327
1705.82251,0.01325
1703.76234,0.01301
1701.70217,0.01331
1699.64200,0.01398
1697.58182,0.01430
1695.52165,0.01439
1693.46148,0.01455
1691.40131,0.01472
1689.34114,0.01499
1687.28096,0.01555
1685.22079,0.01648
1683.16062,0.01706
1681.10045,0.01715
1679.04028,0.01742
1676.98010,0.01801
1674.91993,0.01869
1672.85976,0.01933
1670.79959,0.01999
1668.73941,0.02053
1666.67924,0.02074
1664.61907,0.02085
1662.55890,0.02097
1660.49873,0.02086
1658.43855,0.02070
1656.37838,0.02099
1654.31821,0.02184
1652.25804,0.02237
1650.19787,0.02214
1648.13769,0.02177
1646.07752,0.02162
1644.01735,0.02129
1641.95718,0.02098
1639.89701,0.02103
1637.83683,0.02135
1635.77666,0.02144
1633.71649,0.02104
1631.65632,0.02056
1629.59614,0.02033
1627.53597,0.02030
1625.47580,0.02025
1623.41563,0.02013
1621.35546,0.01988
1619.29528,0.01984
1617.23511,0.02009
1615.17494,0.02007
1613.11477,0.01971
1611.05460,0.01947
1608.99442,0.01946
1606.93425,0.01946
1604.87408,0.01939
1602.81391,0.01930
1600.75373,0.01920
1598.69356,0.01910
1596.63339,0.01901
1594.57322,0.01889
1592.51305,0.01866
1590.45287,0.01838
1588.39270,0.01818
1586.33253,0.01805
1584.27236,0.01784
1582.21219,0.01752
1580.15201,0.01729
1578.09184,0.01725
1576.03167,0.01708
1573.97150,0.01663
1571.91133,0.01640
1569.85115,0.01651
1567.79098,0.01643
1565.73081,0.01597
1563.67064,0.01560
1561.61046,0.01587
1559.55029,0.01649
1557.49012,0.01617
1555.42995,0.01523
1553.36978,0.01458
1551.30960,0.01442
1549.24943,0.01445
1547.18926,0.01441
1545.12909,0.01438
1543.06892,0.01458
1541.00874,0.01499
1538.94857,0.01481
1536.88840,0.01408
1534.82823,0.01370
1532.76805,0.01388
1530.70788,0.01402
1528.64771,0.01397
1526.58754,0.01378
1524.52737,0.01355
1522.46719,0.01341
1520.40702,0.01324
1518.34685,0.01309
1516.28668,0.01293
1514.22651,0.01263
1512.16633,0.01232
1510.10616,0.01234
1508.04599,0.01297
1505.98582,0.01365
1503.92565,0.01348
1501.86547,0.01296
1499.80530,0.01290
1497.74513,0.01320
1495.68496,0.01345
1493.62478,0.01358
1491.56461,0.01364
1489.50444,0.01360
1487.44427,0.01363
1485.38410,0.01377
1483.32392,0.01390
1481.26375,0.01396
1479.20358,0.01396
1477.14341,0.01401
1475.08324,0.01425
1473.02306,0.01458
1470.96289,0.01477
1468.90272,0.01478
1466.84255,0.01488
1464.78238,0.01508
1462.72220,0.01522
1460.66203,0.01548
1458.60186,0.01577
1456.54169,0.01565
1454.48151,0.01541
1452.42134,0.01535
1450.36117,0.01557
1448.30100,0.01595
1446.24083,0.01629
1444.18065,0.01646
1442.12048,0.01649
1440.06031,0.01642
1438.00014,0.01630
1435.93997,0.01624
1433.87979,0.01633
1431.81962,0.01652
1429.75945,0.01673
1427.69928,0.01688
1425.63910,0.01702
1423.57893,0.01712
1421.51876,0.01703
1419.45859,0.01687
1417.39842,0.01695
1415.33824,0.01729
1413.27807,0.01766
1411.21790,0.01797
1409.15773,0.01825
1407.09756,0.01845
1405.03738,0.01851
1402.97721,0.01848
1400.91704,0.01839
1398.85687,0.01813
1396.79670,0.01787
1394.73652,0.01796
1392.67635,0.01823
1390.61618,0.01830
1388.55601,0.01831
1386.49583,0.01853
1384.43566,0.01882
1382.37549,0.01892
1380.31532,0.01890
1378.25515,0.01897
1376.19497,0.01912
1374.13480,0.01916
1372.07463,0.01910
1370.01446,0.01912
1367.95429,0.01916
1365.89411,0.01909
1363.83394,0.01885
1361.77377,0.01861
1359.71360,0.01865
1357.65343,0.01884
1355.59325,0.01896
1353.53308,0.01898
1351.47291,0.01895
1349.41274,0.01885
1347.35256,0.01868
1345.29239,0.01850
1343.23222,0.01826
1341.17205,0.01783
1339.11188,0.01734
1337.05170,0.01722
1334.99153,0.01744
1332.93136,0.01764
1330.87119,0.01766
1328.81102,0.01761
1326.75084,0.01763
1324.69067,0.01766
1322.63050,0.01763
1320.57033,0.01754
1318.51015,0.01736
1316.44998,0.01719
1314.38981,0.01716
1312.32964,0.01724
1310.26947,0.01736
1308.20929,0.01747
1306.14912,0.01754
1304.08895,0.01760
1302.02878,0.01761
1299.96861,0.01752
1297.90843,0.01740
1295.84826,0.01739
1293.78809,0.01747
1291.72792,0.01745
1289.66775,0.01731
1287.60757,0.01721
1285.54740,0.01725
1283.48723,0.01735
1281.42706,0.01742
1279.36688,0.01746
1277.30671,0.01741
1275.24654,0.01733
1273.18637,0.01735
1271.12620,0.01737
1269.06602,0.01731
1267.00585,0.01723
1264.94568,0.01721
1262.88551,0.01728
1260.82534,0.01741
1258.76516,0.01751
1256.70499,0.01758
1254.64482,0.01763
1252.58465,0.01768
1250.52447,0.01773
1248.46430,0.01769
1246.40413,0.01753
1244.34396,0.01744
1242.28379,0.01753
1240.22361,0.01760
1238.16344,0.01754
1236.10327,0.01745
1234.04310,0.01739
1231.98293,0.01733
1229.92275,0.01729
1227.86258,0.01723
1225.80241,0.01710
1223.74224,0.01698
1221.68207,0.01684
1219.62189,0.01673
1217.56172,0.01677
1215.50155,0.01682
1213.44138,0.01665
1211.38120,0.01642
1209.32103,0.01641
1207.26086,0.01661
1205.20069,0.01683
1203.14052,0.01696
1201.08034,0.01702
1199.02017,0.01712
1196.96000,0.01750
1194.89983,0.01800
1192.83966,0.01848
1190.77948,0.01896
1188.71931,0.01939
1186.65914,0.01991
1184.59897,0.02067
1182.53880,0.02153
1180.47862,0.02234
1178.41845,0.02309
1176.35828,0.02380
1174.29811,0.02460
1172.23793,0.02546
1170.17776,0.02615
1168.11759,0.02667
1166.05742,0.02724
1163.99725,0.02800
1161.93707,0.02879
1159.87690,0.02935
1157.81673,0.02976
1155.75656,0.03026
1153.69639,0.03081
1151.63621,0.03135
1149.57604,0.03190
1147.51587,0.03234
1145.45570,0.03254
1143.39552,0.03267
1141.33535,0.03285
1139.27518,0.03296
1137.21501,0.03293
1135.15484,0.03288
1133.09466,0.03290
1131.03449,0.03290
1128.97432,0.03300
1126.91415,0.03325
1124.85398,0.03354
1122.79380,0.03385
1120.73363,0.03418
1118.67346,0.03462
1116.61329,0.03516
1114.55312,0.03565
1112.49294,0.03626
1110.43277,0.03700
1108.37260,0.03754
1106.31243,0.03796
1104.25225,0.03855
1102.19208,0.03925
1100.13191,0.03994
1098.07174,0.04062
1096.01157,0.04120
1093.95139,0.04166
1091.89122,0.04217
1089.83105,0.04279
1087.77088,0.04340
1085.71071,0.04403
1083.65053,0.04455
1081.59036,0.04490
1079.53019,0.04522
1077.47002,0.04557
1075.40985,0.04588
1073.34967,0.04611
1071.28950,0.04626
1069.22933,0.04618
1067.16916,0.04593
1065.10898,0.04571
1063.04881,0.04554
1060.98864,0.04524
1058.92847,0.04473
1056.86830,0.04412
1054.80812,0.04349
1052.74795,0.04279
1050.68778,0.04198
1048.62761,0.04113
1046.56744,0.04023
1044.50726,0.03930
1042.44709,0.03842
1040.38692,0.03760
1038.32675,0.03668
1036.26657,0.03570
1034.20640,0.03478
1032.14623,0.03398
1030.08606,0.03331
1028.02589,0.03267
1025.96571,0.03198
1023.90554,0.03139
1021.84537,0.03100
1019.78520,0.03052
1017.72503,0.02985
1015.66485,0.02931
1013.60468,0.02914
1011.54451,0.02917
1009.48434,0.02925
1007.42417,0.02932
1005.36399,0.02938
1003.30382,0.02960
1001.24365,0.03001
999.18348,0.03044
997.12330,0.03078
995.06313,0.03113
993.00296,0.03142
990.94279,0.03168
988.88262,0.03208
986.82244,0.03250
984.76227,0.03269
982.70210,0.03271
980.64193,0.03278
978.58176,0.03296
976.52158,0.03305
974.46141,0.03307
972.40124,0.03304
970.34107,0.03280
968.28089,0.03249
966.22072,0.03234
964.16055,0.03233
962.10038,0.03229
960.04021,0.03215
957.98003,0.03183
955.91986,0.03146
953.85969,0.03134
951.79952,0.03137
949.73935,0.03130
947.67917,0.03110
945.61900,0.03095
943.55883,0.03079
941.49866,0.03042
939.43849,0.02993
937.37831,0.02958
935.31814,0.02926
933.25797,0.02868
931.19780,0.02800
929.13762,0.02747
927.07745,0.02716
925.01728,0.02679
922.95711,0.02595
920.89694,0.02508
918.83676,0.02467
916.77659,0.02445
914.71642,0.02420
912.65625,0.02403
910.59608,0.02392
908.53590,0.02363
906.47573,0.02312
904.41556,0.02268
902.35539,0.02250
900.29522,0.02254
898.23504,0.02275
896.17487,0.02298
894.11470,0.02314
892.05453,0.02329
889.99435,0.02339
887.93418,0.02361
885.87401,0.02414
883.81384,0.02477
881.75367,0.02546
879.69349,0.02627
877.63332,0.02696
875.57315,0.02750
873.51298,0.02809
871.45281,0.02896
869.39263,0.03008
867.33246,0.03095
865.27229,0.03141
863.21212,0.03178
861.15194,0.03230
859.09177,0.03295
857.03160,0.03336
854.97143,0.03327
852.91126,0.03287
850.85108,0.03253
848.79091,0.03240
846.73074,0.03212
844.67057,0.03137
842.61040,0.03046
840.55022,0.02980
838.49005,0.02930
836.42988,0.02882
834.36971,0.02825
832.30954,0.02766
830.24936,0.02728
828.18919,0.02689
826.12902,0.02628
824.06885,0.02584
822.00867,0.02560
819.94850,0.02515
817.88833,0.02476
815.82816,0.02455
813.76799,0.02413
811.70781,0.02379
809.64764,0.02384
807.58747,0.02392
805.52730,0.02371
803.46713,0.02332
801.40695,0.02281
799.34678,0.02236
797.28661,0.02215
795.22644,0.02203
793.16627,0.02188
791.10609,0.02179
789.04592,0.02173
786.98575,0.02156
784.92558,0.02145
782.86540,0.02148
780.80523,0.02148
778.74506,0.02143
776.68489,0.02152
774.62472,0.02152
772.56454,0.02139
770.50437,0.02132
768.44420,0.02115
766.38403,0.02092
764.32386,0.02082
762.26368,0.02082
760.20351,0.02087
758.14334,0.02081
756.08317,0.02071
754.02299,0.02051
751.96282,0.02024
749.90265,0.02017
747.84248,0.02010
745.78231,0.01986
743.72213,0.01994
741.66196,0.02030
739.60179,0.02045
737.54162,0.02035
735.48145,0.02005
733.42127,0.01967
731.36110,0.01940
729.30093,0.01941
727.24076,0.01971
725.18059,0.01978
723.12041,0.01992
721.06024,0.01900
719.00007,0.02087
716.93990,0.02043
714.87972,0.02010
712.81955,0.02022
710.75938,0.02011
708.69921,0.02009
706.63904,0.02030
704.57886,0.02077
702.51869,0.02123
700.45852,0.02150
698.39835,0.02139
696.33818,0.02135
694.27800,0.02207
692.21783,0.02321
690.15766,0.02409
688.09749,0.02471
686.03731,0.02543
683.97714,0.02607
681.91697,0.02629
679.85680,0.02624
677.79663,0.02583
675.73645,0.02445
673.67628,0.02586
671.61611,0.03991
669.55594,0.04208
667.49577,0.00000
665.43559,0.03026
663.37542,0.02855
661.31525,0.02154
659.25508,0.02154
657.19491,0.02274
655.13473,0.02230
653.07456,0.02135
651.01439,0.02074
648.95422,0.01931
646.89404,0.01891
644.83387,0.01714
642.77370,0.01545
640.71353,0.01443
638.65336,0.01318
636.59318,0.01155
634.53301,0.01086
632.47284,0.01119
630.41267,0.01064
628.35250,0.00855
626.29232,0.00699
624.23215,0.00689
622.17198,0.00707
620.11181,0.00610
618.05164,0.00468
615.99146,0.00438
613.93129,0.00426
611.87112,0.00287
609.81095,0.00122
607.75077,0.00035
605.69060,-0.00008
603.63043,0.00008
601.57026,0.00034
599.51009,0.00000
