3996.73391,0.00105
3994.67373,0.00128
3992.61356,0.00112
3990.55339,0.00071
3988.49322,0.00035
3986.43305,0.00013
3984.37287,0.00012
3982.31270,0.00032
3980.25253,0.00050
3978.19236,0.00065
3976.13219,0.00084
3974.07201,0.00084
3972.01184,0.00061
3969.95167,0.00019
3967.89150,-0.00018
3965.83133,-0.00008
3963.77115,0.00062
3961.71098,0.00145
3959.65081,0.00190
3957.59064,0.00203
3955.53046,0.00221
3953.47029,0.00214
3951.41012,0.00131
3949.34995,0.00025
3947.28978,0.00000
3945.22960,0.00043
3943.16943,0.00079
3941.10926,0.00099
3939.04909,0.00115
3936.98892,0.00118
3934.92874,0.00100
3932.86857,0.00078
3930.80840,0.00074
3928.74823,0.00079
3926.68805,0.00087
3924.62788,0.00118
3922.56771,0.00164
3920.50754,0.00184
3918.44737,0.00154
3916.38719,0.00102
3914.32702,0.00079
3912.26685,0.00093
3910.20668,0.00113
3908.14651,0.00102
3906.08633,0.00065
3904.02616,0.00040
3901.96599,0.00058
3899.90582,0.00124
3897.84565,0.00199
3895.78547,0.00217
3893.72530,0.00169
3891.66513,0.00115
3889.60496,0.00085
3887.54478,0.00059
3885.48461,0.00060
3883.42444,0.00095
3881.36427,0.00130
3879.30410,0.00155
3877.24392,0.00173
3875.18375,0.00176
3873.12358,0.00164
3871.06341,0.00178
3869.00324,0.00228
3866.94306,0.00234
3864.88289,0.00193
3862.82272,0.00154
3860.76255,0.00111
3858.70237,0.00052
3856.64220,0.00000
3854.58203,0.00019
3852.52186,0.00154
3850.46169,0.00265
3848.40151,0.00243
3846.34134,0.00154
3844.28117,0.00100
3842.22100,0.00147
3840.16083,0.00273
3838.10065,0.00382
3836.04048,0.00400
3833.98031,0.00352
3831.92014,0.00281
3829.85997,0.00210
3827.79979,0.00161
3825.73962,0.00128
3823.67945,0.00107
3821.61928,0.00131
3819.55910,0.00183
3817.49893,0.00203
3815.43876,0.00213
3813.37859,0.00215
3811.31842,0.00174
3809.25824,0.00116
3807.19807,0.00112
3805.13790,0.00169
3803.07773,0.00226
3801.01756,0.00272
3798.95738,0.00296
3796.89721,0.00272
3794.83704,0.00203
3792.77687,0.00134
3790.71670,0.00121
3788.65652,0.00159
3786.59635,0.00199
3784.53618,0.00222
3782.47601,0.00234
3780.41583,0.00251
3778.35566,0.00289
3776.29549,0.00311
3774.23532,0.00287
3772.17515,0.00268
3770.11497,0.00318
3768.05480,0.00415
3765.99463,0.00462
3763.93446,0.00403
3761.87429,0.00300
3759.81411,0.00238
3757.75394,0.00179
3755.69377,0.00068
3753.63360,0.00000
3751.57342,0.00080
3749.51325,0.00218
3747.45308,0.00236
3745.39291,0.00174
3743.33274,0.00158
3741.27256,0.00149
3739.21239,0.00115
3737.15222,0.00127
3735.09205,0.00179
3733.03188,0.00198
3730.97170,0.00181
3728.91153,0.00179
3726.85136,0.00219
3724.79119,0.00253
3722.73102,0.00240
3720.67084,0.00232
3718.61067,0.00241
3716.55050,0.00237
3714.49033,0.00230
3712.43015,0.00248
3710.36998,0.00286
3708.30981,0.00322
3706.24964,0.00322
3704.18947,0.00288
3702.12929,0.00257
3700.06912,0.00255
3698.00895,0.00235
3695.94878,0.00170
3693.88861,0.00116
3691.82843,0.00117
3689.76826,0.00156
3687.70809,0.00186
3685.64792,0.00175
3683.58775,0.00151
3681.52757,0.00134
3679.46740,0.00080
3677.40723,0.00022
3675.34706,0.00051
3673.28688,0.00111
3671.22671,0.00124
3669.16654,0.00181
3667.10637,0.00276
3665.04620,0.00297
3662.98602,0.00247
3660.92585,0.00196
3658.86568,0.00186
3656.80551,0.00199
3654.74534,0.00193
3652.68516,0.00179
3650.62499,0.00208
3648.56482,0.00267
3646.50465,0.00278
3644.44447,0.00232
3642.38430,0.00212
3640.32413,0.00256
3638.26396,0.00305
3636.20379,0.00301
3634.14361,0.00266
3632.08344,0.00235
3630.02327,0.00220
3627.96310,0.00249
3625.90293,0.00290
3623.84275,0.00277
3621.78258,0.00237
3619.72241,0.00218
3617.66224,0.00233
3615.60207,0.00279
3613.54189,0.00343
3611.48172,0.00400
3609.42155,0.00443
3607.36138,0.00468
3605.30120,0.00444
3603.24103,0.00382
3601.18086,0.00338
3599.12069,0.00342
3597.06052,0.00374
3595.00034,0.00402
3592.94017,0.00381
3590.88000,0.00280
3588.81983,0.00189
3586.75966,0.00221
3584.69948,0.00332
3582.63931,0.00379
3580.57914,0.00344
3578.51897,0.00322
3576.45879,0.00355
3574.39862,0.00387
3572.33845,0.00368
3570.27828,0.00333
3568.21811,0.00308
3566.15793,0.00277
3564.09776,0.00276
3562.03759,0.00319
3559.97742,0.00348
3557.91725,0.00333
3555.85707,0.00295
3553.79690,0.00275
3551.73673,0.00284
3549.67656,0.00288
3547.61639,0.00299
3545.55621,0.00366
3543.49604,0.00441
3541.43587,0.00446
3539.37570,0.00417
3537.31552,0.00405
3535.25535,0.00402
3533.19518,0.00404
3531.13501,0.00422
3529.07484,0.00425
3527.01466,0.00381
3524.95449,0.00323
3522.89432,0.00299
3520.83415,0.00332
3518.77398,0.00395
3516.71380,0.00443
3514.65363,0.00463
3512.59346,0.00474
3510.53329,0.00487
3508.47312,0.00477
3506.41294,0.00425
3504.35277,0.00392
3502.29260,0.00413
3500.23243,0.00423
3498.17225,0.00394
3496.11208,0.00386
3494.05191,0.00422
3491.99174,0.00458
3489.93157,0.00467
3487.87139,0.00470
3485.81122,0.00482
3483.75105,0.00486
3481.69088,0.00470
3479.63071,0.00451
3477.57053,0.00444
3475.51036,0.00443
3473.45019,0.00431
3471.39002,0.00416
3469.32984,0.00432
3467.26967,0.00480
3465.20950,0.00521
3463.14933,0.00531
3461.08916,0.00499
3459.02898,0.00457
3456.96881,0.00455
3454.90864,0.00479
3452.84847,0.00497
3450.78830,0.00506
3448.72812,0.00501
3446.66795,0.00485
3444.60778,0.00476
3442.54761,0.00474
3440.48744,0.00464
3438.42726,0.00468
3436.36709,0.00507
3434.30692,0.00522
3432.24675,0.00509
3430.18657,0.00534
3428.12640,0.00590
3426.06623,0.00623
3424.00606,0.00588
3421.94589,0.00490
3419.88571,0.00440
3417.82554,0.00497
3415.76537,0.00540
3413.70520,0.00501
3411.64503,0.00452
3409.58485,0.00450
3407.52468,0.00474
3405.46451,0.00492
3403.40434,0.00484
3401.34416,0.00458
3399.28399,0.00465
3397.22382,0.00522
3395.16365,0.00567
3393.10348,0.00609
3391.04330,0.00641
3388.98313,0.00624
3386.92296,0.00569
3384.86279,0.00531
3382.80262,0.00541
3380.74244,0.00548
3378.68227,0.00546
3376.62210,0.00568
3374.56193,0.00579
3372.50176,0.00562
3370.44158,0.00546
3368.38141,0.00537
3366.32124,0.00520
3364.26107,0.00501
3362.20089,0.00490
3360.14072,0.00478
3358.08055,0.00472
3356.02038,0.00488
3353.96021,0.00518
3351.90003,0.00522
3349.83986,0.00505
3347.77969,0.00520
3345.71952,0.00550
3343.65935,0.00552
3341.59917,0.00538
3339.53900,0.00517
3337.47883,0.00496
3335.41866,0.00503
3333.35849,0.00537
3331.29831,0.00557
3329.23814,0.00550
3327.17797,0.00544
3325.11780,0.00556
3323.05762,0.00568
3320.99745,0.00551
3318.93728,0.00535
3316.87711,0.00556
3314.81694,0.00563
3312.75676,0.00520
3310.69659,0.00492
3308.63642,0.00516
3306.57625,0.00561
3304.51608,0.00597
3302.45590,0.00588
3300.39573,0.00531
3298.33556,0.00495
3296.27539,0.00503
3294.21521,0.00516
3292.15504,0.00525
3290.09487,0.00539
3288.03470,0.00546
3285.97453,0.00532
3283.91435,0.00537
3281.85418,0.00577
3279.79401,0.00585
3277.73384,0.00555
3275.67367,0.00527
3273.61349,0.00506
3271.55332,0.00496
3269.49315,0.00502
3267.43298,0.00536
3265.37281,0.00585
3263.31263,0.00593
3261.25246,0.00550
3259.19229,0.00522
3257.13212,0.00551
3255.07194,0.00591
3253.01177,0.00591
3250.95160,0.00558
3248.89143,0.00526
3246.83126,0.00539
3244.77108,0.00578
3242.71091,0.00580
3240.65074,0.00565
3238.59057,0.00546
3236.53040,0.00514
3234.47022,0.00505
3232.41005,0.00530
3230.34988,0.00540
3228.28971,0.00524
3226.22954,0.00510
3224.16936,0.00523
3222.10919,0.00546
3220.04902,0.00551
3217.98885,0.00556
3215.92867,0.00560
3213.86850,0.00549
3211.80833,0.00534
3209.74816,0.00524
3207.68799,0.00527
3205.62781,0.00546
3203.56764,0.00567
3201.50747,0.00582
3199.44730,0.00581
3197.38713,0.00555
3195.32695,0.00516
3193.26678,0.00499
3191.20661,0.00523
3189.14644,0.00547
3187.08626,0.00531
3185.02609,0.00507
3182.96592,0.00518
3180.90575,0.00541
3178.84558,0.00530
3176.78540,0.00514
3174.72523,0.00538
3172.66506,0.00559
3170.60489,0.00533
3168.54472,0.00481
3166.48454,0.00466
3164.42437,0.00510
3162.36420,0.00563
3160.30403,0.00572
3158.24386,0.00560
3156.18368,0.00578
3154.12351,0.00589
3152.06334,0.00556
3150.00317,0.00528
3147.94299,0.00539
3145.88282,0.00565
3143.82265,0.00546
3141.76248,0.00485
3139.70231,0.00459
3137.64213,0.00481
3135.58196,0.00496
3133.52179,0.00485
3131.46162,0.00489
3129.40145,0.00505
3127.34127,0.00513
3125.28110,0.00525
3123.22093,0.00521
3121.16076,0.00502
3119.10058,0.00507
3117.04041,0.00543
3114.98024,0.00572
3112.92007,0.00566
3110.85990,0.00555
3108.79972,0.00556
3106.73955,0.00536
3104.67938,0.00510
3102.61921,0.00498
3100.55904,0.00494
3098.49886,0.00513
3096.43869,0.00548
3094.37852,0.00547
3092.31835,0.00495
3090.25818,0.00447
3088.19800,0.00441
3086.13783,0.00466
3084.07766,0.00492
3082.01749,0.00503
3079.95731,0.00529
3077.89714,0.00560
3075.83697,0.00562
3073.77680,0.00540
3071.71663,0.00531
3069.65645,0.00544
3067.59628,0.00561
3065.53611,0.00551
3063.47594,0.00525
3061.41577,0.00535
3059.35559,0.00560
3057.29542,0.00543
3055.23525,0.00500
3053.17508,0.00477
3051.11491,0.00461
3049.05473,0.00438
3046.99456,0.00433
3044.93439,0.00440
3042.87422,0.00447
3040.81404,0.00478
3038.75387,0.00537
3036.69370,0.00581
3034.63353,0.00566
3032.57336,0.00506
3030.51318,0.00467
3028.45301,0.00492
3026.39284,0.00528
3024.33267,0.00517
3022.27250,0.00474
3020.21232,0.00444
3018.15215,0.00447
3016.09198,0.00471
3014.03181,0.00485
3011.97163,0.00483
3009.91146,0.00475
3007.85129,0.00469
3005.79112,0.00469
3003.73095,0.00483
3001.67077,0.00502
2999.61060,0.00489
2997.55043,0.00447
2995.49026,0.00419
2993.43009,0.00424
2991.36991,0.00452
2989.30974,0.00467
2987.24957,0.00450
2985.18940,0.00413
2983.12923,0.00398
2981.06905,0.00423
2979.00888,0.00474
2976.94871,0.00515
2974.88854,0.00522
2972.82836,0.00507
2970.76819,0.00481
2968.70802,0.00456
2966.64785,0.00472
2964.58768,0.00518
2962.52750,0.00538
2960.46733,0.00520
2958.40716,0.00488
2956.34699,0.00475
2954.28682,0.00463
2952.22664,0.00435
2950.16647,0.00418
2948.10630,0.00411
2946.04613,0.00402
2943.98596,0.00413
2941.92578,0.00444
2939.86561,0.00453
2937.80544,0.00428
2935.74527,0.00429
2933.68509,0.00475
2931.62492,0.00509
2929.56475,0.00500
2927.50458,0.00488
2925.44441,0.00516
2923.38423,0.00559
2921.32406,0.00606
2919.26389,0.00652
2917.20372,0.00644
2915.14355,0.00592
2913.08337,0.00575
2911.02320,0.00603
2908.96303,0.00610
2906.90286,0.00567
2904.84268,0.00529
2902.78251,0.00543
2900.72234,0.00565
2898.66217,0.00553
2896.60200,0.00518
2894.54182,0.00504
2892.48165,0.00509
2890.42148,0.00490
2888.36131,0.00480
2886.30114,0.00510
2884.24096,0.00543
2882.18079,0.00546
2880.12062,0.00532
2878.06045,0.00533
2876.00028,0.00556
2873.94010,0.00573
2871.87993,0.00565
2869.81976,0.00543
2867.75959,0.00516
2865.69941,0.00492
2863.63924,0.00486
2861.57907,0.00507
2859.51890,0.00543
2857.45873,0.00565
2855.39855,0.00580
2853.33838,0.00601
2851.27821,0.00609
2849.21804,0.00602
2847.15787,0.00586
2845.09769,0.00557
2843.03752,0.00544
2840.97735,0.00543
2838.91718,0.00522
2836.85700,0.00503
2834.79683,0.00494
2832.73666,0.00475
2830.67649,0.00456
2828.61632,0.00443
2826.55614,0.00433
2824.49597,0.00441
2822.43580,0.00469
2820.37563,0.00492
2818.31546,0.00493
2816.25528,0.00485
2814.19511,0.00473
2812.13494,0.00465
2810.07477,0.00479
2808.01460,0.00496
2805.95442,0.00494
2803.89425,0.00485
2801.83408,0.00482
2799.77391,0.00492
2797.71373,0.00493
2795.65356,0.00479
2793.59339,0.00469
2791.53322,0.00459
2789.47305,0.00461
2787.41287,0.00490
2785.35270,0.00505
2783.29253,0.00492
2781.23236,0.00479
2779.17219,0.00473
2777.11201,0.00468
2775.05184,0.00465
2772.99167,0.00481
2770.93150,0.00517
2768.87133,0.00527
2766.81115,0.00514
2764.75098,0.00518
2762.69081,0.00524
2760.63064,0.00525
2758.57046,0.00527
2756.51029,0.00531
2754.45012,0.00532
2752.38995,0.00516
2750.32978,0.00494
2748.26960,0.00487
2746.20943,0.00478
2744.14926,0.00465
2742.08909,0.00460
2740.02892,0.00455
2737.96874,0.00460
2735.90857,0.00475
2733.84840,0.00489
2731.78823,0.00500
2729.72805,0.00492
2727.66788,0.00480
2725.60771,0.00486
2723.54754,0.00502
2721.48737,0.00501
2719.42719,0.00483
2717.36702,0.00467
2715.30685,0.00462
2713.24668,0.00466
2711.18651,0.00472
2709.12633,0.00482
2707.06616,0.00503
2705.00599,0.00500
2702.94582,0.00468
2700.88565,0.00476
2698.82547,0.00513
2696.76530,0.00507
2694.70513,0.00455
2692.64496,0.00406
2690.58478,0.00403
2688.52461,0.00428
2686.46444,0.00438
2684.40427,0.00430
2682.34410,0.00435
2680.28392,0.00448
2678.22375,0.00435
2676.16358,0.00407
2674.10341,0.00406
2672.04324,0.00440
2669.98306,0.00473
2667.92289,0.00466
2665.86272,0.00436
2663.80255,0.00425
2661.74238,0.00446
2659.68220,0.00475
2657.62203,0.00507
2655.56186,0.00527
2653.50169,0.00508
2651.44151,0.00484
2649.38134,0.00492
2647.32117,0.00517
2645.26100,0.00515
2643.20083,0.00486
2641.14065,0.00485
2639.08048,0.00514
2637.02031,0.00509
2634.96014,0.00470
2632.89997,0.00449
2630.83979,0.00473
2628.77962,0.00505
2626.71945,0.00504
2624.65928,0.00492
2622.59910,0.00503
2620.53893,0.00512
2618.47876,0.00497
2616.41859,0.00479
2614.35842,0.00475
2612.29824,0.00479
2610.23807,0.00484
2608.17790,0.00495
2606.11773,0.00512
2604.05756,0.00523
2601.99738,0.00517
2599.93721,0.00524
2597.87704,0.00569
2595.81687,0.00603
2593.75670,0.00585
2591.69652,0.00548
2589.63635,0.00535
2587.57618,0.00549
2585.51601,0.00568
2583.45583,0.00582
2581.39566,0.00577
2579.33549,0.00537
2577.27532,0.00498
2575.21515,0.00484
2573.15497,0.00487
2571.09480,0.00504
2569.03463,0.00486
2566.97446,0.00433
2564.91429,0.00437
2562.85411,0.00492
2560.79394,0.00533
2558.73377,0.00548
2556.67360,0.00541
2554.61342,0.00538
2552.55325,0.00529
2550.49308,0.00475
2548.43291,0.00446
2546.37274,0.00474
2544.31256,0.00470
2542.25239,0.00431
2540.19222,0.00441
2538.13205,0.00488
2536.07188,0.00511
2534.01170,0.00490
2531.95153,0.00460
2529.89136,0.00484
2527.83119,0.00514
2525.77102,0.00515
2523.71084,0.00522
2521.65067,0.00506
2519.59050,0.00455
2517.53033,0.00437
2515.47015,0.00447
2513.40998,0.00428
2511.34981,0.00392
2509.28964,0.00396
2507.22947,0.00436
2505.16929,0.00451
2503.10912,0.00463
2501.04895,0.00510
2498.98878,0.00537
2496.92861,0.00528
2494.86843,0.00523
2492.80826,0.00529
2490.74809,0.00521
2488.68792,0.00516
2486.62775,0.00544
2484.56757,0.00587
2482.50740,0.00600
2480.44723,0.00566
2478.38706,0.00534
2476.32688,0.00542
2474.26671,0.00540
2472.20654,0.00516
2470.14637,0.00523
2468.08620,0.00565
2466.02602,0.00577
2463.96585,0.00517
2461.90568,0.00458
2459.84551,0.00478
2457.78534,0.00536
2455.72516,0.00550
2453.66499,0.00520
2451.60482,0.00518
2449.54465,0.00540
2447.48447,0.00527
2445.42430,0.00516
2443.36413,0.00576
2441.30396,0.00630
2439.24379,0.00594
2437.18361,0.00558
2435.12344,0.00577
2433.06327,0.00572
2431.00310,0.00530
2428.94293,0.00501
2426.88275,0.00511
2424.82258,0.00535
2422.76241,0.00538
2420.70224,0.00534
2418.64207,0.00550
2416.58189,0.00562
2414.52172,0.00527
2412.46155,0.00486
2410.40138,0.00501
2408.34120,0.00547
2406.28103,0.00556
2404.22086,0.00540
2402.16069,0.00519
2400.10052,0.00489
2398.04034,0.00496
2395.98017,0.00535
2393.92000,0.00559
2391.85983,0.00570
2389.79966,0.00599
2387.73948,0.00626
2385.67931,0.00615
2383.61914,0.00589
2381.55897,0.00580
2379.49880,0.00598
2377.43862,0.00621
2375.37845,0.00639
2373.31828,0.00583
2371.25811,0.00498
2369.19793,0.00528
2367.13776,0.00489
2365.07759,0.00301
2363.01742,0.00342
2360.95725,0.00429
2358.89707,0.00494
2356.83690,0.00780
2354.77673,0.01160
2352.71656,0.01150
2350.65639,0.00743
2348.59621,0.00540
2346.53604,0.00842
2344.47587,0.00913
2342.41570,0.00780
2340.35552,0.00703
2338.29535,0.00729
2336.23518,0.00779
2334.17501,0.00706
2332.11484,0.00588
2330.05466,0.00530
2327.99449,0.00590
2325.93432,0.00674
2323.87415,0.00786
2321.81398,0.00811
2319.75380,0.00807
2317.69363,0.00760
2315.63346,0.00712
2313.57329,0.00640
2311.51312,0.00543
2309.45294,0.00474
2307.39277,0.00458
2305.33260,0.00483
2303.27243,0.00527
2301.21225,0.00578
2299.15208,0.00585
2297.09191,0.00537
2295.03174,0.00512
2292.97157,0.00568
2290.91139,0.00662
2288.85122,0.00714
2286.79105,0.00695
2284.73088,0.00651
2282.67071,0.00639
2280.61053,0.00656
2278.55036,0.00649
2276.49019,0.00615
2274.43002,0.00608
2272.36984,0.00644
2270.30967,0.00657
2268.24950,0.00599
2266.18933,0.00501
2264.12916,0.00431
2262.06898,0.00453
2260.00881,0.00556
2257.94864,0.00625
2255.88847,0.00614
2253.82830,0.00550
2251.76812,0.00470
2249.70795,0.00460
2247.64778,0.00525
2245.58761,0.00505
2243.52744,0.00430
2241.46726,0.00443
2239.40709,0.00521
2237.34692,0.00519
2235.28675,0.00485
2233.22657,0.00574
2231.16640,0.00629
2229.10623,0.00605
2227.04606,0.00677
2224.98589,0.00777
2222.92571,0.00752
2220.86554,0.00665
2218.80537,0.00677
2216.74520,0.00754
2214.68503,0.00764
2212.62485,0.00737
2210.56468,0.00707
2208.50451,0.00569
2206.44434,0.00376
2204.38417,0.00313
2202.32399,0.00359
2200.26382,0.00395
2198.20365,0.00364
2196.14348,0.00319
2194.08330,0.00363
2192.02313,0.00467
2189.96296,0.00551
2187.90279,0.00595
2185.84262,0.00602
2183.78244,0.00568
2181.72227,0.00517
2179.66210,0.00396
2177.60193,0.00154
2175.54176,0.00000
2173.48158,0.00112
2171.42141,0.00353
2169.36124,0.00503
2167.30107,0.00541
2165.24089,0.00556
2163.18072,0.00553
2161.12055,0.00556
2159.06038,0.00569
2157.00021,0.00516
2154.94003,0.00445
2152.87986,0.00425
2150.81969,0.00379
2148.75952,0.00293
2146.69935,0.00244
2144.63917,0.00230
2142.57900,0.00319
2140.51883,0.00509
2138.45866,0.00563
2136.39849,0.00475
2134.33831,0.00464
2132.27814,0.00552
2130.21797,0.00617
2128.15780,0.00611
2126.09762,0.00587
2124.03745,0.00610
2121.97728,0.00674
2119.91711,0.00696
2117.85694,0.00630
2115.79676,0.00548
2113.73659,0.00508
2111.67642,0.00482
2109.61625,0.00473
2107.55608,0.00531
2105.49590,0.00606
2103.43573,0.00650
2101.37556,0.00705
2099.31539,0.00667
2097.25521,0.00510
2095.19504,0.00379
2093.13487,0.00312
2091.07470,0.00336
2089.01453,0.00445
2086.95435,0.00528
2084.89418,0.00532
2082.83401,0.00471
2080.77384,0.00428
2078.71367,0.00497
2076.65349,0.00573
2074.59332,0.00504
2072.53315,0.00419
2070.47298,0.00462
2068.41281,0.00573
2066.35263,0.00628
2064.29246,0.00596
2062.23229,0.00598
2060.17212,0.00605
2058.11194,0.00472
2056.05177,0.00340
2053.99160,0.00382
2051.93143,0.00466
2049.87126,0.00443
2047.81108,0.00340
2045.75091,0.00240
2043.69074,0.00207
2041.63057,0.00223
2039.57040,0.00217
2037.51022,0.00187
2035.45005,0.00204
2033.38988,0.00304
2031.32971,0.00429
2029.26954,0.00532
2027.20936,0.00668
2025.14919,0.00831
2023.08902,0.00867
2021.02885,0.00774
2018.96867,0.00794
2016.90850,0.00897
2014.84833,0.00892
2012.78816,0.00817
2010.72799,0.00708
2008.66781,0.00645
2006.60764,0.00684
2004.54747,0.00694
2002.48730,0.00653
2000.42713,0.00566
1998.36695,0.00421
1996.30678,0.00324
1994.24661,0.00311
1992.18644,0.00395
1990.12626,0.00542
1988.06609,0.00607
1986.00592,0.00633
1983.94575,0.00683
1981.88558,0.00635
1979.82540,0.00464
1977.76523,0.00321
1975.70506,0.00321
1973.64489,0.00375
1971.58472,0.00377
1969.52454,0.00376
1967.46437,0.00415
1965.40420,0.00477
1963.34403,0.00526
1961.28386,0.00503
1959.22368,0.00432
1957.16351,0.00436
1955.10334,0.00502
1953.04317,0.00531
1950.98299,0.00566
1948.92282,0.00621
1946.86265,0.00641
1944.80248,0.00641
1942.74231,0.00643
1940.68213,0.00639
1938.62196,0.00623
1936.56179,0.00613
1934.50162,0.00613
1932.44145,0.00592
1930.38127,0.00551
1928.32110,0.00527
1926.26093,0.00522
1924.20076,0.00492
1922.14059,0.00455
1920.08041,0.00472
1918.02024,0.00520
1915.96007,0.00536
1913.89990,0.00495
1911.83972,0.00417
1909.77955,0.00377
1907.71938,0.00415
1905.65921,0.00490
1903.59904,0.00551
1901.53886,0.00558
1899.47869,0.00510
1897.41852,0.00454
1895.35835,0.00436
1893.29818,0.00451
1891.23800,0.00484
1889.17783,0.00491
1887.11766,0.00437
1885.05749,0.00389
1882.99731,0.00425
1880.93714,0.00519
1878.87697,0.00593
1876.81680,0.00621
1874.75663,0.00612
1872.69645,0.00552
1870.63628,0.00462
1868.57611,0.00431
1866.51594,0.00489
1864.45577,0.00560
1862.39559,0.00591
1860.33542,0.00573
1858.27525,0.00530
1856.21508,0.00502
1854.15491,0.00510
1852.09473,0.00535
1850.03456,0.00540
1847.97439,0.00541
1845.91422,0.00554
1843.85404,0.00536
1841.79387,0.00485
1839.73370,0.00468
1837.67353,0.00501
1835.61336,0.00532
1833.55318,0.00536
1831.49301,0.00522
1829.43284,0.00490
1827.37267,0.00449
1825.31250,0.00437
1823.25232,0.00465
1821.19215,0.00508
1819.13198,0.00540
1817.07181,0.00565
1815.01163,0.00591
1812.95146,0.00599
1810.89129,0.00577
1808.83112,0.00540
1806.77095,0.00501
1804.71077,0.00474
1802.65060,0.00471
1800.59043,0.00501
1798.53026,0.00543
1796.47009,0.00558
1794.40991,0.00543
1792.34974,0.00533
1790.28957,0.00542
1788.22940,0.00553
1786.16923,0.00575
1784.10905,0.00608
1782.04888,0.00618
1779.98871,0.00588
1777.92854,0.00535
1775.86836,0.00487
1773.80819,0.00459
1771.74802,0.00463
1769.68785,0.00506
1767.62768,0.00549
1765.56750,0.00554
1763.50733,0.00531
1761.44716,0.00512
1759.38699,0.00503
1757.32682,0.00501
1755.26664,0.00504
1753.20647,0.00493
1751.14630,0.00469
1749.08613,0.00461
1747.02596,0.00472
1744.96578,0.00478
1742.90561,0.00469
1740.84544,0.00461
1738.78527,0.00455
1736.72509,0.00454
1734.66492,0.00481
1732.60475,0.00517
1730.54458,0.00509
1728.48441,0.00462
1726.42423,0.00414
1724.36406,0.00389
1722.30389,0.00392
1720.24372,0.00419
1718.18355,0.00443
1716.12337,0.00425
1714.06320,0.00399
1712.00303,0.00397
1709.94286,0.00401
1707.88268,0.00400
1705.82251,0.00409
1703.76234,0.00436
1701.70217,0.00474
1699.64200,0.00482
1697.58182,0.00441
1695.52165,0.00412
1693.46148,0.00413
1691.40131,0.00426
1689.34114,0.00450
1687.28096,0.00477
1685.22079,0.00502
1683.16062,0.00515
1681.10045,0.00509
1679.04028,0.00500
1676.98010,0.00504
1674.91993,0.00522
1672.85976,0.00547
1670.79959,0.00584
1668.73941,0.00620
1666.67924,0.00626
1664.61907,0.00615
1662.55890,0.00612
1660.49873,0.00620
1658.43855,0.00624
1656.37838,0.00632
1654.31821,0.00665
1652.25804,0.00697
1650.19787,0.00690
1648.13769,0.00672
1646.07752,0.00660
1644.01735,0.00638
1641.95718,0.00613
1639.89701,0.00619
1637.83683,0.00666
1635.77666,0.00710
1633.71649,0.00702
1631.65632,0.00664
1629.59614,0.00622
1627.53597,0.00577
1625.47580,0.00548
1623.41563,0.00547
1621.35546,0.00556
1619.29528,0.00572
1617.23511,0.00591
1615.17494,0.00584
1613.11477,0.00553
1611.05460,0.00530
1608.99442,0.00526
1606.93425,0.00529
1604.87408,0.00527
1602.81391,0.00516
1600.75373,0.00504
1598.69356,0.00498
1596.63339,0.00496
1594.57322,0.00487
1592.51305,0.00483
1590.45287,0.00490
1588.39270,0.00491
1586.33253,0.00488
1584.27236,0.00502
1582.21219,0.00524
1580.15201,0.00542
1578.09184,0.00565
1576.03167,0.00573
1573.97150,0.00540
1571.91133,0.00499
1569.85115,0.00478
1567.79098,0.00465
1565.73081,0.00446
1563.67064,0.00439
1561.61046,0.00471
1559.55029,0.00512
1557.49012,0.00480
1555.42995,0.00397
1553.36978,0.00341
1551.30960,0.00345
1549.24943,0.00387
1547.18926,0.00423
1545.12909,0.00445
1543.06892,0.00476
1541.00874,0.00506
1538.94857,0.00485
1536.88840,0.00431
1534.82823,0.00402
1532.76805,0.00401
1530.70788,0.00392
1528.64771,0.00369
1526.58754,0.00342
1524.52737,0.00325
1522.46719,0.00320
1520.40702,0.00296
1518.34685,0.00265
1516.28668,0.00269
1514.22651,0.00293
1512.16633,0.00307
1510.10616,0.00322
1508.04599,0.00359
1505.98582,0.00378
1503.92565,0.00334
1501.86547,0.00274
1499.80530,0.00250
1497.74513,0.00258
1495.68496,0.00276
1493.62478,0.00288
1491.56461,0.00306
1489.50444,0.00340
1487.44427,0.00367
1485.38410,0.00368
1483.32392,0.00355
1481.26375,0.00340
1479.20358,0.00330
1477.14341,0.00327
1475.08324,0.00332
1473.02306,0.00361
1470.96289,0.00399
1468.90272,0.00416
1466.84255,0.00423
1464.78238,0.00421
1462.72220,0.00403
1460.66203,0.00384
1458.60186,0.00370
1456.54169,0.00361
1454.48151,0.00372
1452.42134,0.00384
1450.36117,0.00394
1448.30100,0.00410
1446.24083,0.00423
1444.18065,0.00427
1442.12048,0.00430
1440.06031,0.00435
1438.00014,0.00448
1435.93997,0.00471
1433.87979,0.00490
1431.81962,0.00490
1429.75945,0.00480
1427.69928,0.00472
1425.63910,0.00478
1423.57893,0.00500
1421.51876,0.00524
1419.45859,0.00540
1417.39842,0.00552
1415.33824,0.00558
1413.27807,0.00562
1411.21790,0.00571
1409.15773,0.00580
1407.09756,0.00574
1405.03738,0.00555
1402.97721,0.00547
1400.91704,0.00550
1398.85687,0.00538
1396.79670,0.00515
1394.73652,0.00515
1392.67635,0.00535
1390.61618,0.00545
1388.55601,0.00542
1386.49583,0.00539
1384.43566,0.00539
1382.37549,0.00544
1380.31532,0.00552
1378.25515,0.00563
1376.19497,0.00578
1374.13480,0.00598
1372.07463,0.00608
1370.01446,0.00602
1367.95429,0.00595
1365.89411,0.00593
1363.83394,0.00587
1361.77377,0.00574
1359.71360,0.00564
1357.65343,0.00557
1355.59325,0.00556
1353.53308,0.00560
1351.47291,0.00552
1349.41274,0.00538
1347.35256,0.00538
1345.29239,0.00550
1343.23222,0.00549
1341.17205,0.00522
1339.11188,0.00484
1337.05170,0.00463
1334.99153,0.00468
1332.93136,0.00475
1330.87119,0.00462
1328.81102,0.00442
1326.75084,0.00426
1324.69067,0.00413
1322.63050,0.00401
1320.57033,0.00384
1318.51015,0.00350
1316.44998,0.00329
1314.38981,0.00342
1312.32964,0.00361
1310.26947,0.00366
1308.20929,0.00367
1306.14912,0.00376
1304.08895,0.00389
1302.02878,0.00381
1299.96861,0.00357
1297.90843,0.00352
1295.84826,0.00364
1293.78809,0.00360
1291.72792,0.00340
1289.66775,0.00328
1287.60757,0.00337
1285.54740,0.00358
1283.48723,0.00374
1281.42706,0.00374
1279.36688,0.00377
1277.30671,0.00387
1275.24654,0.00387
1273.18637,0.00370
1271.12620,0.00346
1269.06602,0.00333
1267.00585,0.00340
1264.94568,0.00351
1262.88551,0.00353
1260.82534,0.00349
1258.76516,0.00345
1256.70499,0.00335
1254.64482,0.00324
1252.58465,0.00323
1250.52447,0.00339
1248.46430,0.00353
1246.40413,0.00352
1244.34396,0.00356
1242.28379,0.00374
1240.22361,0.00387
1238.16344,0.00388
1236.10327,0.00384
1234.04310,0.00382
1231.98293,0.00373
1229.92275,0.00364
1227.86258,0.00372
1225.80241,0.00384
1223.74224,0.00370
1221.68207,0.00334
1219.62189,0.00323
1217.56172,0.00362
1215.50155,0.00401
1213.44138,0.00406
1211.38120,0.00398
1209.32103,0.00389
1207.26086,0.00386
1205.20069,0.00399
1203.14052,0.00399
1201.08034,0.00369
1199.02017,0.00367
1196.96000,0.00408
1194.89983,0.00446
1192.83966,0.00477
1190.77948,0.00536
1188.71931,0.00609
1186.65914,0.00658
1184.59897,0.00685
1182.53880,0.00713
1180.47862,0.00758
1178.41845,0.00806
1176.35828,0.00842
1174.29811,0.00875
1172.23793,0.00928
1170.17776,0.00985
1168.11759,0.01032
1166.05742,0.01093
1163.99725,0.01150
1161.93707,0.01167
1159.87690,0.01156
1157.81673,0.01166
1155.75656,0.01218
1153.69639,0.01260
1151.63621,0.01264
1149.57604,0.01264
1147.51587,0.01264
1145.45570,0.01232
1143.39552,0.01204
1141.33535,0.01218
1139.27518,0.01243
1137.21501,0.01234
1135.15484,0.01185
1133.09466,0.01130
1131.03449,0.01088
1128.97432,0.01075
1126.91415,0.01107
1124.85398,0.01150
1122.79380,0.01166
1120.73363,0.01170
1118.67346,0.01168
1116.61329,0.01142
1114.55312,0.01116
1112.49294,0.01124
1110.43277,0.01137
1108.37260,0.01141
1106.31243,0.01170
1104.25225,0.01223
1102.19208,0.01269
1100.13191,0.01290
1098.07174,0.01308
1096.01157,0.01344
1093.95139,0.01392
1091.89122,0.01432
1089.83105,0.01444
1087.77088,0.01453
1085.71071,0.01479
1083.65053,0.01505
1081.59036,0.01531
1079.53019,0.01555
1077.47002,0.01581
1075.40985,0.01619
1073.34967,0.01650
1071.28950,0.01659
1069.22933,0.01652
1067.16916,0.01624
1065.10898,0.01604
1063.04881,0.01633
1060.98864,0.01665
1058.92847,0.01647
1056.86830,0.01617
1054.80812,0.01590
1052.74795,0.01551
1050.68778,0.01526
1048.62761,0.01513
1046.56744,0.01471
1044.50726,0.01409
1042.44709,0.01357
1040.38692,0.01312
1038.32675,0.01260
1036.26657,0.01220
1034.20640,0.01219
1032.14623,0.01239
1030.08606,0.01230
1028.02589,0.01187
1025.96571,0.01128
1023.90554,0.01083
1021.84537,0.01080
1019.78520,0.01101
1017.72503,0.01103
1015.66485,0.01056
1013.60468,0.01007
1011.54451,0.00989
1009.48434,0.00975
1007.42417,0.00984
1005.36399,0.01030
1003.30382,0.01069
1001.24365,0.01088
999.18348,0.01089
997.12330,0.01054
995.06313,0.01012
993.00296,0.01002
990.94279,0.01003
988.88262,0.01030
986.82244,0.01111
984.76227,0.01161
982.70210,0.01144
980.64193,0.01146
978.58176,0.01180
976.52158,0.01190
974.46141,0.01192
972.40124,0.01229
970.34107,0.01268
968.28089,0.01266
966.22072,0.01233
964.16055,0.01224
962.10038,0.01270
960.04021,0.01317
957.98003,0.01324
955.91986,0.01319
953.85969,0.01331
951.79952,0.01353
949.73935,0.01323
947.67917,0.01264
945.61900,0.01262
943.55883,0.01294
941.49866,0.01324
939.43849,0.01343
937.37831,0.01328
935.31814,0.01296
933.25797,0.01269
931.19780,0.01232
929.13762,0.01171
927.07745,0.01116
925.01728,0.01092
922.95711,0.01090
920.89694,0.01079
918.83676,0.01051
916.77659,0.01022
914.71642,0.00992
912.65625,0.00978
910.59608,0.00988
908.53590,0.00983
906.47573,0.00933
904.41556,0.00879
902.35539,0.00885
900.29522,0.00902
898.23504,0.00869
896.17487,0.00832
894.11470,0.00846
892.05453,0.00884
889.99435,0.00907
887.93418,0.00937
885.87401,0.00986
883.81384,0.01022
881.75367,0.01030
879.69349,0.01014
877.63332,0.01000
875.57315,0.01026
873.51298,0.01103
871.45281,0.01198
869.39263,0.01267
867.33246,0.01315
865.27229,0.01380
863.21212,0.01459
861.15194,0.01489
859.09177,0.01456
857.03160,0.01448
854.97143,0.01493
852.91126,0.01527
850.85108,0.01525
848.79091,0.01482
846.73074,0.01407
844.67057,0.01344
842.61040,0.01308
840.55022,0.01306
838.49005,0.01316
836.42988,0.01262
834.36971,0.01172
832.30954,0.01141
830.24936,0.01127
828.18919,0.01086
826.12902,0.01088
824.06885,0.01116
822.00867,0.01070
819.94850,0.00988
817.88833,0.00989
815.82816,0.01063
813.76799,0.01053
811.70781,0.00949
809.64764,0.00876
807.58747,0.00861
805.52730,0.00850
803.46713,0.00790
801.40695,0.00746
799.34678,0.00789
797.28661,0.00841
795.22644,0.00837
793.16627,0.00839
791.10609,0.00876
789.04592,0.00867
786.98575,0.00786
784.92558,0.00741
782.86540,0.00777
780.80523,0.00790
778.74506,0.00753
776.68489,0.00736
774.62472,0.00738
772.56454,0.00751
770.50437,0.00775
768.44420,0.00772
766.38403,0.00753
764.32386,0.00714
762.26368,0.00666
760.20351,0.00664
758.14334,0.00646
756.08317,0.00588
754.02299,0.00594
751.96282,0.00671
749.90265,0.00692
747.84248,0.00626
745.78231,0.00537
743.72213,0.00477
741.66196,0.00522
739.60179,0.00658
737.54162,0.00703
735.48145,0.00659
733.42127,0.00710
731.36110,0.00784
729.30093,0.00737
727.24076,0.00685
725.18059,0.00698
723.12041,0.00663
721.06024,0.00642
719.00007,0.00612
716.93990,0.00607
714.87972,0.00603
712.81955,0.00569
710.75938,0.00559
708.69921,0.00568
706.63904,0.00567
704.57886,0.00575
702.51869,0.00610
700.45852,0.00637
698.39835,0.00592
696.33818,0.00500
694.27800,0.00465
692.21783,0.00495
690.15766,0.00551
688.09749,0.00660
686.03731,0.00791
683.97714,0.00830
681.91697,0.00736
679.85680,0.00622
677.79663,0.00594
675.73645,0.00600
673.67628,0.00488
671.61611,0.00195
669.55594,0.00252
667.49577,0.00553
665.43559,0.00248
663.37542,0.00374
661.31525,0.00439
659.25508,0.00416
657.19491,0.00416
655.13473,0.00467
653.07456,0.00527
651.01439,0.00554
648.95422,0.00591
646.89404,0.00628
644.83387,0.00624
642.77370,0.00531
640.71353,0.00425
638.65336,0.00418
636.59318,0.00495
634.53301,0.00553
632.47284,0.00576
630.41267,0.00622
628.35250,0.00706
626.29232,0.00698
624.23215,0.00468
622.17198,0.00384
620.11181,0.00647
618.05164,0.00831
615.99146,0.00781
613.93129,0.00745
611.87112,0.00644
609.81095,0.00357
607.75077,0.00100
605.69060,0.00000
603.63043,-0.00120
601.57026,0.00010
599.51009,0.00000
