3996.73391,-0.00061
3994.67373,-0.00080
3992.61356,-0.00070
3990.55339,-0.00037
3988.49322,-0.00017
3986.43305,-0.00015
3984.37287,-0.00012
3982.31270,-0.00010
3980.25253,-0.00018
3978.19236,-0.00030
3976.13219,-0.00032
3974.07201,-0.00015
3972.01184,0.00009
3969.95167,0.00021
3967.89150,0.00031
3965.83133,0.00050
3963.77115,0.00060
3961.71098,0.00051
3959.65081,0.00035
3957.59064,0.00031
3955.53046,0.00051
3953.47029,0.00086
3951.41012,0.00090
3949.34995,0.00044
3947.28978,0.00000
3945.22960,0.00005
3943.16943,0.00020
3941.10926,0.00020
3939.04909,0.00039
3936.98892,0.00070
3934.92874,0.00078
3932.86857,0.00071
3930.80840,0.00087
3928.74823,0.00116
3926.68805,0.00123
3924.62788,0.00091
3922.56771,0.00037
3920.50754,0.00004
3918.44737,0.00000
3916.38719,0.00031
3914.32702,0.00086
3912.26685,0.00125
3910.20668,0.00139
3908.14651,0.00146
3906.08633,0.00141
3904.02616,0.00101
3901.96599,0.00059
3899.90582,0.00076
3897.84565,0.00112
3895.78547,0.00112
3893.72530,0.00078
3891.66513,0.00037
3889.60496,0.00031
3887.54478,0.00052
3885.48461,0.00061
3883.42444,0.00050
3881.36427,0.00040
3879.30410,0.00040
3877.24392,0.00045
3875.18375,0.00046
3873.12358,0.00040
3871.06341,0.00042
3869.00324,0.00057
3866.94306,0.00057
3864.88289,0.00035
3862.82272,0.00016
3860.76255,0.00016
3858.70237,0.00020
3856.64220,0.00005
3854.58203,0.00014
3852.52186,0.00076
3850.46169,0.00127
3848.40151,0.00112
3846.34134,0.00089
3844.28117,0.00096
3842.22100,0.00108
3840.16083,0.00098
3838.10065,0.00069
3836.04048,0.00060
3833.98031,0.00084
3831.92014,0.00118
3829.85997,0.00145
3827.79979,0.00148
3825.73962,0.00134
3823.67945,0.00135
3821.61928,0.00151
3819.55910,0.00136
3817.49893,0.00109
3815.43876,0.00112
3813.37859,0.00140
3811.31842,0.00162
3809.25824,0.00173
3807.19807,0.00177
3805.13790,0.00177
3803.07773,0.00192
3801.01756,0.00213
3798.95738,0.00213
3796.89721,0.00207
3794.83704,0.00230
3792.77687,0.00271
3790.71670,0.00289
3788.65652,0.00283
3786.59635,0.00275
3784.53618,0.00281
3782.47601,0.00300
3780.41583,0.00320
3778.35566,0.00326
3776.29549,0.00324
3774.23532,0.00319
3772.17515,0.00301
3770.11497,0.00270
3768.05480,0.00243
3765.99463,0.00236
3763.93446,0.00236
3761.87429,0.00220
3759.81411,0.00182
3757.75394,0.00144
3755.69377,0.00137
3753.63360,0.00134
3751.57342,0.00084
3749.51325,0.00021
3747.45308,0.00017
3745.39291,0.00003
3743.33274,0.00000
3741.27256,0.00045
3739.21239,0.00088
3737.15222,0.00129
3735.09205,0.00164
3733.03188,0.00168
3730.97170,0.00150
3728.91153,0.00134
3726.85136,0.00122
3724.79119,0.00130
3722.73102,0.00171
3720.67084,0.00209
3718.61067,0.00206
3716.55050,0.00189
3714.49033,0.00210
3712.43015,0.00268
3710.36998,0.00301
3708.30981,0.00312
3706.24964,0.00331
3704.18947,0.00349
3702.12929,0.00359
3700.06912,0.00354
3698.00895,0.00331
3695.94878,0.00308
3693.88861,0.00309
3691.82843,0.00344
3689.76826,0.00372
3687.70809,0.00370
3685.64792,0.00367
3683.58775,0.00364
3681.52757,0.00353
3679.46740,0.00332
3677.40723,0.00323
3675.34706,0.00344
3673.28688,0.00355
3671.22671,0.00352
3669.16654,0.00369
3667.10637,0.00387
3665.04620,0.00382
3662.98602,0.00372
3660.92585,0.00377
3658.86568,0.00393
3656.80551,0.00407
3654.74534,0.00418
3652.68516,0.00454
3650.62499,0.00510
3648.56482,0.00514
3646.50465,0.00476
3644.44447,0.00447
3642.38430,0.00451
3640.32413,0.00467
3638.26396,0.00471
3636.20379,0.00473
3634.14361,0.00491
3632.08344,0.00519
3630.02327,0.00550
3627.96310,0.00575
3625.90293,0.00592
3623.84275,0.00593
3621.78258,0.00584
3619.72241,0.00586
3617.66224,0.00601
3615.60207,0.00601
3613.54189,0.00589
3611.48172,0.00594
3609.42155,0.00636
3607.36138,0.00690
3605.30120,0.00726
3603.24103,0.00751
3601.18086,0.00782
3599.12069,0.00820
3597.06052,0.00854
3595.00034,0.00876
3592.94017,0.00891
3590.88000,0.00904
3588.81983,0.00897
3586.75966,0.00880
3584.69948,0.00902
3582.63931,0.00960
3580.57914,0.01007
3578.51897,0.01033
3576.45879,0.01059
3574.39862,0.01085
3572.33845,0.01104
3570.27828,0.01116
3568.21811,0.01124
3566.15793,0.01146
3564.09776,0.01181
3562.03759,0.01200
3559.97742,0.01211
3557.91725,0.01224
3555.85707,0.01226
3553.79690,0.01220
3551.73673,0.01214
3549.67656,0.01205
3547.61639,0.01199
3545.55621,0.01216
3543.49604,0.01266
3541.43587,0.01329
3539.37570,0.01385
3537.31552,0.01416
3535.25535,0.01425
3533.19518,0.01433
3531.13501,0.01441
3529.07484,0.01442
3527.01466,0.01441
3524.95449,0.01453
3522.89432,0.01494
3520.83415,0.01559
3518.77398,0.01606
3516.71380,0.01614
3514.65363,0.01618
3512.59346,0.01631
3510.53329,0.01624
3508.47312,0.01603
3506.41294,0.01602
3504.35277,0.01619
3502.29260,0.01631
3500.23243,0.01660
3498.17225,0.01712
3496.11208,0.01753
3494.05191,0.01770
3491.99174,0.01781
3489.93157,0.01799
3487.87139,0.01810
3485.81122,0.01807
3483.75105,0.01810
3481.69088,0.01827
3479.63071,0.01845
3477.57053,0.01871
3475.51036,0.01909
3473.45019,0.01938
3471.39002,0.01953
3469.32984,0.01973
3467.26967,0.01999
3465.20950,0.02002
3463.14933,0.01982
3461.08916,0.01972
3459.02898,0.01994
3456.96881,0.02031
3454.90864,0.02058
3452.84847,0.02079
3450.78830,0.02095
3448.72812,0.02088
3446.66795,0.02074
3444.60778,0.02089
3442.54761,0.02112
3440.48744,0.02116
3438.42726,0.02116
3436.36709,0.02130
3434.30692,0.02153
3432.24675,0.02185
3430.18657,0.02218
3428.12640,0.02238
3426.06623,0.02232
3424.00606,0.02210
3421.94589,0.02212
3419.88571,0.02246
3417.82554,0.02281
3415.76537,0.02299
3413.70520,0.02312
3411.64503,0.02318
3409.58485,0.02305
3407.52468,0.02293
3405.46451,0.02301
3403.40434,0.02308
3401.34416,0.02301
3399.28399,0.02271
3397.22382,0.02313
3395.16365,0.02345
3393.10348,0.02349
3391.04330,0.02357
3388.98313,0.02379
3386.92296,0.02408
3384.86279,0.02430
3382.80262,0.02447
3380.74244,0.02471
3378.68227,0.02493
3376.62210,0.02509
3374.56193,0.02529
3372.50176,0.02536
3370.44158,0.02524
3368.38141,0.02509
3366.32124,0.02498
3364.26107,0.02506
3362.20089,0.02526
3360.14072,0.02537
3358.08055,0.02549
3356.02038,0.02557
3353.96021,0.02555
3351.90003,0.02562
3349.83986,0.02579
3347.77969,0.02579
3345.71952,0.02566
3343.65935,0.02567
3341.59917,0.02570
3339.53900,0.02560
3337.47883,0.02570
3335.41866,0.02608
3333.35849,0.02640
3331.29831,0.02658
3329.23814,0.02673
3327.17797,0.02672
3325.11780,0.02659
3323.05762,0.02658
3320.99745,0.02676
3318.93728,0.02692
3316.87711,0.02689
3314.81694,0.02676
3312.75676,0.02656
3310.69659,0.02640
3308.63642,0.02647
3306.57625,0.02669
3304.51608,0.02694
3302.45590,0.02724
3300.39573,0.02745
3298.33556,0.02740
3296.27539,0.02722
3294.21521,0.02708
3292.15504,0.02703
3290.09487,0.02709
3288.03470,0.02718
3285.97453,0.02730
3283.91435,0.02750
3281.85418,0.02767
3279.79401,0.02765
3277.73384,0.02757
3275.67367,0.02766
3273.61349,0.02787
3271.55332,0.02790
3269.49315,0.02776
3267.43298,0.02774
3265.37281,0.02791
3263.31263,0.02799
3261.25246,0.02796
3259.19229,0.02803
3257.13212,0.02821
3255.07194,0.02831
3253.01177,0.02831
3250.95160,0.02834
3248.89143,0.02853
3246.83126,0.02867
3244.77108,0.02865
3242.71091,0.02866
3240.65074,0.02869
3238.59057,0.02853
3236.53040,0.02829
3234.47022,0.02828
3232.41005,0.02850
3230.34988,0.02870
3228.28971,0.02871
3226.22954,0.02854
3224.16936,0.02849
3222.10919,0.02860
3220.04902,0.02861
3217.98885,0.02862
3215.92867,0.02873
3213.86850,0.02877
3211.80833,0.02879
3209.74816,0.02882
3207.68799,0.02881
3205.62781,0.02876
3203.56764,0.02878
3201.50747,0.02890
3199.44730,0.02902
3197.38713,0.02907
3195.32695,0.02904
3193.26678,0.02896
3191.20661,0.02890
3189.14644,0.02891
3187.08626,0.02892
3185.02609,0.02883
3182.96592,0.02871
3180.90575,0.02861
3178.84558,0.02856
3176.78540,0.02880
3174.72523,0.02918
3172.66506,0.02930
3170.60489,0.02918
3168.54472,0.02909
3166.48454,0.02914
3164.42437,0.02925
3162.36420,0.02919
3160.30403,0.02903
3158.24386,0.02902
3156.18368,0.02908
3154.12351,0.02892
3152.06334,0.02863
3150.00317,0.02853
3147.94299,0.02864
3145.88282,0.02881
3143.82265,0.02895
3141.76248,0.02904
3139.70231,0.02902
3137.64213,0.02889
3135.58196,0.02866
3133.52179,0.02844
3131.46162,0.02844
3129.40145,0.02855
3127.34127,0.02843
3125.28110,0.02813
3123.22093,0.02795
3121.16076,0.02801
3119.10058,0.02813
3117.04041,0.02809
3114.98024,0.02797
3112.92007,0.02798
3110.85990,0.02804
3108.79972,0.02805
3106.73955,0.02809
3104.67938,0.02806
3102.61921,0.02782
3100.55904,0.02762
3098.49886,0.02771
3096.43869,0.02780
3094.37852,0.02768
3092.31835,0.02759
3090.25818,0.02756
3088.19800,0.02753
3086.13783,0.02756
3084.07766,0.02753
3082.01749,0.02739
3079.95731,0.02733
3077.89714,0.02731
3075.83697,0.02726
3073.77680,0.02729
3071.71663,0.02738
3069.65645,0.02733
3067.59628,0.02710
3065.53611,0.02693
3063.47594,0.02699
3061.41577,0.02707
3059.35559,0.02692
3057.29542,0.02664
3055.23525,0.02644
3053.17508,0.02631
3051.11491,0.02623
3049.05473,0.02629
3046.99456,0.02641
3044.93439,0.02639
3042.87422,0.02630
3040.81404,0.02628
3038.75387,0.02626
3036.69370,0.02608
3034.63353,0.02583
3032.57336,0.02570
3030.51318,0.02574
3028.45301,0.02577
3026.39284,0.02569
3024.33267,0.02553
3022.27250,0.02539
3020.21232,0.02531
3018.15215,0.02520
3016.09198,0.02496
3014.03181,0.02473
3011.97163,0.02463
3009.91146,0.02463
3007.85129,0.02466
3005.79112,0.02464
3003.73095,0.02459
3001.67077,0.02457
2999.61060,0.02457
2997.55043,0.02445
2995.49026,0.02434
2993.43009,0.02427
2991.36991,0.02425
2989.30974,0.02422
2987.24957,0.02414
2985.18940,0.02406
2983.12923,0.02401
2981.06905,0.02404
2979.00888,0.02412
2976.94871,0.02415
2974.88854,0.02407
2972.82836,0.02395
2970.76819,0.02396
2968.70802,0.02391
2966.64785,0.02368
2964.58768,0.02355
2962.52750,0.02367
2960.46733,0.02381
2958.40716,0.02395
2956.34699,0.02412
2954.28682,0.02409
2952.22664,0.02386
2950.16647,0.02368
2948.10630,0.02362
2946.04613,0.02358
2943.98596,0.02347
2941.92578,0.02334
2939.86561,0.02323
2937.80544,0.02322
2935.74527,0.02332
2933.68509,0.02347
2931.62492,0.02355
2929.56475,0.02348
2927.50458,0.02335
2925.44441,0.02326
2923.38423,0.02335
2921.32406,0.02359
2919.26389,0.02373
2917.20372,0.02373
2915.14355,0.02367
2913.08337,0.02356
2911.02320,0.02333
2908.96303,0.02300
2906.90286,0.02278
2904.84268,0.02272
2902.78251,0.02267
2900.72234,0.02256
2898.66217,0.02242
2896.60200,0.02235
2894.54182,0.02233
2892.48165,0.02234
2890.42148,0.02238
2888.36131,0.02242
2886.30114,0.02238
2884.24096,0.02241
2882.18079,0.02256
2880.12062,0.02252
2878.06045,0.02224
2876.00028,0.02205
2873.94010,0.02206
2871.87993,0.02206
2869.81976,0.02195
2867.75959,0.02186
2865.69941,0.02189
2863.63924,0.02191
2861.57907,0.02186
2859.51890,0.02182
2857.45873,0.02176
2855.39855,0.02178
2853.33838,0.02183
2851.27821,0.02178
2849.21804,0.02170
2847.15787,0.02164
2845.09769,0.02159
2843.03752,0.02155
2840.97735,0.02142
2838.91718,0.02121
2836.85700,0.02107
2834.79683,0.02104
2832.73666,0.02100
2830.67649,0.02086
2828.61632,0.02067
2826.55614,0.02062
2824.49597,0.02073
2822.43580,0.02072
2820.37563,0.02055
2818.31546,0.02047
2816.25528,0.02056
2814.19511,0.02068
2812.13494,0.02066
2810.07477,0.02052
2808.01460,0.02032
2805.95442,0.02012
2803.89425,0.01997
2801.83408,0.01987
2799.77391,0.01985
2797.71373,0.01989
2795.65356,0.01986
2793.59339,0.01978
2791.53322,0.01976
2789.47305,0.01986
2787.41287,0.01991
2785.35270,0.01983
2783.29253,0.01978
2781.23236,0.01978
2779.17219,0.01969
2777.11201,0.01962
2775.05184,0.01953
2772.99167,0.01930
2770.93150,0.01909
2768.87133,0.01905
2766.81115,0.01907
2764.75098,0.01902
2762.69081,0.01893
2760.63064,0.01888
2758.57046,0.01884
2756.51029,0.01873
2754.45012,0.01861
2752.38995,0.01868
2750.32978,0.01876
2748.26960,0.01865
2746.20943,0.01852
2744.14926,0.01845
2742.08909,0.01841
2740.02892,0.01843
2737.96874,0.01846
2735.90857,0.01839
2733.84840,0.01828
2731.78823,0.01820
2729.72805,0.01815
2727.66788,0.01809
2725.60771,0.01800
2723.54754,0.01795
2721.48737,0.01792
2719.42719,0.01787
2717.36702,0.01780
2715.30685,0.01774
2713.24668,0.01764
2711.18651,0.01756
2709.12633,0.01757
2707.06616,0.01749
2705.00599,0.01738
2702.94582,0.01737
2700.88565,0.01731
2698.82547,0.01715
2696.76530,0.01703
2694.70513,0.01702
2692.64496,0.01705
2690.58478,0.01705
2688.52461,0.01704
2686.46444,0.01701
2684.40427,0.01698
2682.34410,0.01697
2680.28392,0.01697
2678.22375,0.01693
2676.16358,0.01683
2674.10341,0.01670
2672.04324,0.01661
2669.98306,0.01652
2667.92289,0.01643
2665.86272,0.01641
2663.80255,0.01647
2661.74238,0.01648
2659.68220,0.01643
2657.62203,0.01638
2655.56186,0.01631
2653.50169,0.01619
2651.44151,0.01607
2649.38134,0.01592
2647.32117,0.01575
2645.26100,0.01569
2643.20083,0.01580
2641.14065,0.01582
2639.08048,0.01564
2637.02031,0.01563
2634.96014,0.01582
2632.89997,0.01588
2630.83979,0.01579
2628.77962,0.01564
2626.71945,0.01554
2624.65928,0.01561
2622.59910,0.01560
2620.53893,0.01540
2618.47876,0.01528
2616.41859,0.01530
2614.35842,0.01538
2612.29824,0.01545
2610.23807,0.01537
2608.17790,0.01519
2606.11773,0.01504
2604.05756,0.01492
2601.99738,0.01492
2599.93721,0.01503
2597.87704,0.01506
2595.81687,0.01507
2593.75670,0.01504
2591.69652,0.01495
2589.63635,0.01493
2587.57618,0.01495
2585.51601,0.01499
2583.45583,0.01510
2581.39566,0.01515
2579.33549,0.01499
2577.27532,0.01475
2575.21515,0.01467
2573.15497,0.01471
2571.09480,0.01466
2569.03463,0.01466
2566.97446,0.01483
2564.91429,0.01496
2562.85411,0.01498
2560.79394,0.01512
2558.73377,0.01529
2556.67360,0.01523
2554.61342,0.01509
2552.55325,0.01512
2550.49308,0.01517
2548.43291,0.01510
2546.37274,0.01500
2544.31256,0.01502
2542.25239,0.01517
2540.19222,0.01522
2538.13205,0.01515
2536.07188,0.01512
2534.01170,0.01515
2531.95153,0.01521
2529.89136,0.01540
2527.83119,0.01567
2525.77102,0.01576
2523.71084,0.01564
2521.65067,0.01531
2519.59050,0.01501
2517.53033,0.01503
2515.47015,0.01515
2513.40998,0.01524
2511.34981,0.01545
2509.28964,0.01566
2507.22947,0.01566
2505.16929,0.01555
2503.10912,0.01540
2501.04895,0.01534
2498.98878,0.01526
2496.92861,0.01515
2494.86843,0.01525
2492.80826,0.01559
2490.74809,0.01586
2488.68792,0.01586
2486.62775,0.01578
2484.56757,0.01581
2482.50740,0.01594
2480.44723,0.01607
2478.38706,0.01620
2476.32688,0.01634
2474.26671,0.01634
2472.20654,0.01621
2470.14637,0.01614
2468.08620,0.01616
2466.02602,0.01616
2463.96585,0.01618
2461.90568,0.01634
2459.84551,0.01646
2457.78534,0.01631
2455.72516,0.01613
2453.66499,0.01615
2451.60482,0.01618
2449.54465,0.01620
2447.48447,0.01636
2445.42430,0.01658
2443.36413,0.01673
2441.30396,0.01687
2439.24379,0.01693
2437.18361,0.01672
2435.12344,0.01646
2433.06327,0.01631
2431.00310,0.01613
2428.94293,0.01617
2426.88275,0.01644
2424.82258,0.01654
2422.76241,0.01643
2420.70224,0.01634
2418.64207,0.01633
2416.58189,0.01635
2414.52172,0.01635
2412.46155,0.01628
2410.40138,0.01623
2408.34120,0.01629
2406.28103,0.01634
2404.22086,0.01638
2402.16069,0.01651
2400.10052,0.01659
2398.04034,0.01682
2395.98017,0.01691
2393.92000,0.01675
2391.85983,0.01636
2389.79966,0.01599
2387.73948,0.01575
2385.67931,0.01553
2383.61914,0.01528
2381.55897,0.01516
2379.49880,0.01527
2377.43862,0.01559
2375.37845,0.01590
2373.31828,0.01616
2371.25811,0.01654
2369.19793,0.01731
2367.13776,0.01819
2365.07759,0.01838
2363.01742,0.01761
2360.95725,0.01707
2358.89707,0.01653
2356.83690,0.01604
2354.77673,0.01562
2352.71656,0.01557
2350.65639,0.01612
2348.59621,0.01640
2346.53604,0.01551
2344.47587,0.01545
2342.41570,0.01600
2340.35552,0.01673
2338.29535,0.01699
2336.23518,0.01661
2334.17501,0.01633
2332.11484,0.01606
2330.05466,0.01550
2327.99449,0.01482
2325.93432,0.01474
2323.87415,0.01476
2321.81398,0.01490
2319.75380,0.01469
2317.69363,0.01438
2315.63346,0.01395
2313.57329,0.01378
2311.51312,0.01403
2309.45294,0.01430
2307.39277,0.01437
2305.33260,0.01445
2303.27243,0.01473
2301.21225,0.01479
2299.15208,0.01443
2297.09191,0.01408
2295.03174,0.01420
2292.97157,0.01462
2290.91139,0.01494
2288.85122,0.01508
2286.79105,0.01505
2284.73088,0.01489
2282.67071,0.01491
2280.61053,0.01521
2278.55036,0.01549
2276.49019,0.01553
2274.43002,0.01535
2272.36984,0.01507
2270.30967,0.01490
2268.24950,0.01500
2266.18933,0.01514
2264.12916,0.01494
2262.06898,0.01456
2260.00881,0.01439
2257.94864,0.01437
2255.88847,0.01432
2253.82830,0.01405
2251.76812,0.01353
2249.70795,0.01329
2247.64778,0.01360
2245.58761,0.01398
2243.52744,0.01379
2241.46726,0.01333
2239.40709,0.01314
2237.34692,0.01326
2235.28675,0.01357
2233.22657,0.01429
2231.16640,0.01518
2229.10623,0.01530
2227.04606,0.01460
2224.98589,0.01386
2222.92571,0.01366
2220.86554,0.01388
2218.80537,0.01406
2216.74520,0.01408
2214.68503,0.01396
2212.62485,0.01395
2210.56468,0.01425
2208.50451,0.01440
2206.44434,0.01408
2204.38417,0.01379
2202.32399,0.01394
2200.26382,0.01375
2198.20365,0.01333
2196.14348,0.01357
2194.08330,0.01371
2192.02313,0.01326
2189.96296,0.01301
2187.90279,0.01307
2185.84262,0.01308
2183.78244,0.01346
2181.72227,0.01417
2179.66210,0.01442
2177.60193,0.01430
2175.54176,0.01406
2173.48158,0.01349
2171.42141,0.01274
2169.36124,0.01223
2167.30107,0.01212
2165.24089,0.01240
2163.18072,0.01276
2161.12055,0.01272
2159.06038,0.01223
2157.00021,0.01186
2154.94003,0.01189
2152.87986,0.01233
2150.81969,0.01280
2148.75952,0.01237
2146.69935,0.01147
2144.63917,0.01156
2142.57900,0.01248
2140.51883,0.01294
2138.45866,0.01285
2136.39849,0.01288
2134.33831,0.01286
2132.27814,0.01256
2130.21797,0.01227
2128.15780,0.01232
2126.09762,0.01254
2124.03745,0.01249
2121.97728,0.01254
2119.91711,0.01286
2117.85694,0.01283
2115.79676,0.01260
2113.73659,0.01261
2111.67642,0.01259
2109.61625,0.01247
2107.55608,0.01234
2105.49590,0.01209
2103.43573,0.01184
2101.37556,0.01183
2099.31539,0.01236
2097.25521,0.01266
2095.19504,0.01256
2093.13487,0.01209
2091.07470,0.01152
2089.01453,0.01148
2086.95435,0.01193
2084.89418,0.01220
2082.83401,0.01229
2080.77384,0.01279
2078.71367,0.01337
2076.65349,0.01318
2074.59332,0.01253
2072.53315,0.01226
2070.47298,0.01234
2068.41281,0.01247
2066.35263,0.01257
2064.29246,0.01238
2062.23229,0.01199
2060.17212,0.01171
2058.11194,0.01157
2056.05177,0.01181
2053.99160,0.01252
2051.93143,0.01309
2049.87126,0.01320
2047.81108,0.01307
2045.75091,0.01318
2043.69074,0.01333
2041.63057,0.01321
2039.57040,0.01293
2037.51022,0.01253
2035.45005,0.01240
2033.38988,0.01248
2031.32971,0.01194
2029.26954,0.01122
2027.20936,0.01122
2025.14919,0.01169
2023.08902,0.01226
2021.02885,0.01272
2018.96867,0.01253
2016.90850,0.01177
2014.84833,0.01147
2012.78816,0.01180
2010.72799,0.01211
2008.66781,0.01238
2006.60764,0.01241
2004.54747,0.01166
2002.48730,0.01083
2000.42713,0.01059
1998.36695,0.01075
1996.30678,0.01124
1994.24661,0.01196
1992.18644,0.01229
1990.12626,0.01192
1988.06609,0.01152
1986.00592,0.01145
1983.94575,0.01159
1981.88558,0.01231
1979.82540,0.01372
1977.76523,0.01450
1975.70506,0.01385
1973.64489,0.01309
1971.58472,0.01309
1969.52454,0.01312
1967.46437,0.01263
1965.40420,0.01191
1963.34403,0.01158
1961.28386,0.01170
1959.22368,0.01174
1957.16351,0.01146
1955.10334,0.01129
1953.04317,0.01160
1950.98299,0.01215
1948.92282,0.01249
1946.86265,0.01245
1944.80248,0.01243
1942.74231,0.01275
1940.68213,0.01305
1938.62196,0.01307
1936.56179,0.01279
1934.50162,0.01247
1932.44145,0.01221
1930.38127,0.01193
1928.32110,0.01168
1926.26093,0.01141
1924.20076,0.01114
1922.14059,0.01113
1920.08041,0.01134
1918.02024,0.01148
1915.96007,0.01160
1913.89990,0.01197
1911.83972,0.01239
1909.77955,0.01255
1907.71938,0.01243
1905.65921,0.01232
1903.59904,0.01235
1901.53886,0.01232
1899.47869,0.01212
1897.41852,0.01191
1895.35835,0.01173
1893.29818,0.01155
1891.23800,0.01161
1889.17783,0.01189
1887.11766,0.01214
1885.05749,0.01216
1882.99731,0.01192
1880.93714,0.01177
1878.87697,0.01191
1876.81680,0.01221
1874.75663,0.01247
1872.69645,0.01262
1870.63628,0.01271
1868.57611,0.01273
1866.51594,0.01255
1864.45577,0.01230
1862.39559,0.01202
1860.33542,0.01179
1858.27525,0.01181
1856.21508,0.01204
1854.15491,0.01217
1852.09473,0.01216
1850.03456,0.01222
1847.97439,0.01235
1845.91422,0.01223
1843.85404,0.01189
1841.79387,0.01178
1839.73370,0.01194
1837.67353,0.01205
1835.61336,0.01195
1833.55318,0.01187
1831.49301,0.01206
1829.43284,0.01226
1827.37267,0.01224
1825.31250,0.01224
1823.25232,0.01249
1821.19215,0.01286
1819.13198,0.01294
1817.07181,0.01272
1815.01163,0.01256
1812.95146,0.01249
1810.89129,0.01228
1808.83112,0.01204
1806.77095,0.01203
1804.71077,0.01211
1802.65060,0.01211
1800.59043,0.01213
1798.53026,0.01217
1796.47009,0.01221
1794.40991,0.01238
1792.34974,0.01254
1790.28957,0.01237
1788.22940,0.01195
1786.16923,0.01159
1784.10905,0.01157
1782.04888,0.01185
1779.98871,0.01201
1777.92854,0.01204
1775.86836,0.01220
1773.80819,0.01247
1771.74802,0.01240
1769.68785,0.01195
1767.62768,0.01171
1765.56750,0.01183
1763.50733,0.01203
1761.44716,0.01206
1759.38699,0.01204
1757.32682,0.01211
1755.26664,0.01214
1753.20647,0.01215
1751.14630,0.01226
1749.08613,0.01242
1747.02596,0.01244
1744.96578,0.01243
1742.90561,0.01257
1740.84544,0.01274
1738.78527,0.01279
1736.72509,0.01284
1734.66492,0.01293
1732.60475,0.01295
1730.54458,0.01294
1728.48441,0.01284
1726.42423,0.01278
1724.36406,0.01281
1722.30389,0.01297
1720.24372,0.01338
1718.18355,0.01356
1716.12337,0.01293
1714.06320,0.01241
1712.00303,0.01241
1709.94286,0.01267
1707.88268,0.01295
1705.82251,0.01305
1703.76234,0.01301
1701.70217,0.01302
1699.64200,0.01302
1697.58182,0.01306
1695.52165,0.01323
1693.46148,0.01353
1691.40131,0.01386
1689.34114,0.01419
1687.28096,0.01460
1685.22079,0.01515
1683.16062,0.01533
1681.10045,0.01524
1679.04028,0.01539
1676.98010,0.01588
1674.91993,0.01652
1672.85976,0.01708
1670.79959,0.01746
1668.73941,0.01752
1666.67924,0.01747
1664.61907,0.01761
1662.55890,0.01768
1660.49873,0.01747
1658.43855,0.01735
1656.37838,0.01769
1654.31821,0.01812
1652.25804,0.01790
1650.19787,0.01776
1648.13769,0.01792
1646.07752,0.01789
1644.01735,0.01764
1641.95718,0.01764
1639.89701,0.01800
1637.83683,0.01842
1635.77666,0.01834
1633.71649,0.01791
1631.65632,0.01773
1629.59614,0.01778
1627.53597,0.01782
1625.47580,0.01782
1623.41563,0.01773
1621.35546,0.01757
1619.29528,0.01773
1617.23511,0.01805
1615.17494,0.01784
1613.11477,0.01736
1611.05460,0.01714
1608.99442,0.01718
1606.93425,0.01725
1604.87408,0.01733
1602.81391,0.01737
1600.75373,0.01730
1598.69356,0.01723
1596.63339,0.01724
1594.57322,0.01714
1592.51305,0.01687
1590.45287,0.01658
1588.39270,0.01640
1586.33253,0.01629
1584.27236,0.01612
1582.21219,0.01587
1580.15201,0.01582
1578.09184,0.01598
1576.03167,0.01568
1573.97150,0.01490
1571.91133,0.01453
1569.85115,0.01447
1567.79098,0.01418
1565.73081,0.01385
1563.67064,0.01388
1561.61046,0.01440
1559.55029,0.01453
1557.49012,0.01323
1555.42995,0.01217
1553.36978,0.01190
1551.30960,0.01194
1549.24943,0.01191
1547.18926,0.01185
1545.12909,0.01201
1543.06892,0.01236
1541.00874,0.01249
1538.94857,0.01185
1536.88840,0.01118
1534.82823,0.01105
1532.76805,0.01109
1530.70788,0.01092
1528.64771,0.01073
1526.58754,0.01051
1524.52737,0.01032
1522.46719,0.01033
1520.40702,0.01019
1518.34685,0.00995
1516.28668,0.00963
1514.22651,0.00917
1512.16633,0.00901
1510.10616,0.00944
1508.04599,0.01000
1505.98582,0.00985
1503.92565,0.00931
1501.86547,0.00905
1499.80530,0.00923
1497.74513,0.00957
1495.68496,0.00977
1493.62478,0.00998
1491.56461,0.01029
1489.50444,0.01029
1487.44427,0.00997
1485.38410,0.00978
1483.32392,0.00980
1481.26375,0.00988
1479.20358,0.01001
1477.14341,0.01024
1475.08324,0.01049
1473.02306,0.01046
1470.96289,0.01011
1468.90272,0.00987
1466.84255,0.00997
1464.78238,0.01015
1462.72220,0.01018
1460.66203,0.01041
1458.60186,0.01063
1456.54169,0.01026
1454.48151,0.00992
1452.42134,0.00999
1450.36117,0.01035
1448.30100,0.01069
1446.24083,0.01076
1444.18065,0.01072
1442.12048,0.01075
1440.06031,0.01087
1438.00014,0.01091
1435.93997,0.01077
1433.87979,0.01076
1431.81962,0.01101
1429.75945,0.01130
1427.69928,0.01142
1425.63910,0.01152
1423.57893,0.01161
1421.51876,0.01157
1419.45859,0.01139
1417.39842,0.01131
1415.33824,0.01156
1413.27807,0.01193
1411.21790,0.01218
1409.15773,0.01229
1407.09756,0.01240
1405.03738,0.01246
1402.97721,0.01248
1400.91704,0.01246
1398.85687,0.01224
1396.79670,0.01191
1394.73652,0.01178
1392.67635,0.01185
1390.61618,0.01197
1388.55601,0.01207
1386.49583,0.01213
1384.43566,0.01216
1382.37549,0.01216
1380.31532,0.01210
1378.25515,0.01216
1376.19497,0.01234
1374.13480,0.01230
1372.07463,0.01204
1370.01446,0.01196
1367.95429,0.01210
1365.89411,0.01225
1363.83394,0.01226
1361.77377,0.01213
1359.71360,0.01205
1357.65343,0.01206
1355.59325,0.01211
1353.53308,0.01216
1351.47291,0.01214
1349.41274,0.01199
1347.35256,0.01175
1345.29239,0.01154
1343.23222,0.01136
1341.17205,0.01111
1339.11188,0.01083
1337.05170,0.01081
1334.99153,0.01103
1332.93136,0.01117
1330.87119,0.01116
1328.81102,0.01114
1326.75084,0.01110
1324.69067,0.01097
1322.63050,0.01083
1320.57033,0.01078
1318.51015,0.01071
1316.44998,0.01062
1314.38981,0.01055
1312.32964,0.01049
1310.26947,0.01050
1308.20929,0.01055
1306.14912,0.01063
1304.08895,0.01076
1302.02878,0.01081
1299.96861,0.01071
1297.90843,0.01061
1295.84826,0.01069
1293.78809,0.01082
1291.72792,0.01076
1289.66775,0.01061
1287.60757,0.01054
1285.54740,0.01053
1283.48723,0.01057
1281.42706,0.01063
1279.36688,0.01071
1277.30671,0.01078
1275.24654,0.01086
1273.18637,0.01091
1271.12620,0.01089
1269.06602,0.01080
1267.00585,0.01068
1264.94568,0.01059
1262.88551,0.01062
1260.82534,0.01064
1258.76516,0.01062
1256.70499,0.01056
1254.64482,0.01049
1252.58465,0.01043
1250.52447,0.01032
1248.46430,0.01022
1246.40413,0.01018
1244.34396,0.01012
1242.28379,0.01003
1240.22361,0.00992
1238.16344,0.00983
1236.10327,0.00974
1234.04310,0.00962
1231.98293,0.00950
1229.92275,0.00945
1227.86258,0.00939
1225.80241,0.00929
1223.74224,0.00918
1221.68207,0.00898
1219.62189,0.00883
1217.56172,0.00878
1215.50155,0.00870
1213.44138,0.00856
1211.38120,0.00843
1209.32103,0.00833
1207.26086,0.00832
1205.20069,0.00837
1203.14052,0.00845
1201.08034,0.00851
1199.02017,0.00856
1196.96000,0.00876
1194.89983,0.00897
1192.83966,0.00907
1190.77948,0.00917
1188.71931,0.00937
1186.65914,0.00962
1184.59897,0.00986
1182.53880,0.01014
1180.47862,0.01059
1178.41845,0.01114
1176.35828,0.01149
1174.29811,0.01171
1172.23793,0.01209
1170.17776,0.01256
1168.11759,0.01293
1166.05742,0.01331
1163.99725,0.01382
1161.93707,0.01436
1159.87690,0.01486
1157.81673,0.01536
1155.75656,0.01591
1153.69639,0.01648
1151.63621,0.01712
1149.57604,0.01781
1147.51587,0.01844
1145.45570,0.01898
1143.39552,0.01956
1141.33535,0.02024
1139.27518,0.02089
1137.21501,0.02147
1135.15484,0.02209
1133.09466,0.02280
1131.03449,0.02349
1128.97432,0.02414
1126.91415,0.02480
1124.85398,0.02556
1122.79380,0.02641
1120.73363,0.02725
1118.67346,0.02797
1116.61329,0.02868
1114.55312,0.02952
1112.49294,0.03043
1110.43277,0.03121
1108.37260,0.03192
1106.31243,0.03273
1104.25225,0.03356
1102.19208,0.03425
1100.13191,0.03500
1098.07174,0.03585
1096.01157,0.03646
1093.95139,0.03694
1091.89122,0.03763
1089.83105,0.03852
1087.77088,0.03939
1085.71071,0.04006
1083.65053,0.04060
1081.59036,0.04119
1079.53019,0.04187
1077.47002,0.04260
1075.40985,0.04331
1073.34967,0.04396
1071.28950,0.04453
1069.22933,0.04496
1067.16916,0.04513
1065.10898,0.04504
1063.04881,0.04481
1060.98864,0.04457
1058.92847,0.04438
1056.86830,0.04409
1054.80812,0.04354
1052.74795,0.04267
1050.68778,0.04158
1048.62761,0.04032
1046.56744,0.03899
1044.50726,0.03774
1042.44709,0.03645
1040.38692,0.03505
1038.32675,0.03364
1036.26657,0.03212
1034.20640,0.03046
1032.14623,0.02896
1030.08606,0.02783
1028.02589,0.02690
1025.96571,0.02602
1023.90554,0.02516
1021.84537,0.02424
1019.78520,0.02338
1017.72503,0.02280
1015.66485,0.02246
1013.60468,0.02234
1011.54451,0.02247
1009.48434,0.02282
1007.42417,0.02322
1005.36399,0.02362
1003.30382,0.02424
1001.24365,0.02523
999.18348,0.02629
997.12330,0.02717
995.06313,0.02790
993.00296,0.02861
990.94279,0.02948
988.88262,0.03038
986.82244,0.03113
984.76227,0.03178
982.70210,0.03237
980.64193,0.03281
978.58176,0.03296
976.52158,0.03292
974.46141,0.03300
972.40124,0.03312
970.34107,0.03297
968.28089,0.03247
966.22072,0.03180
964.16055,0.03108
962.10038,0.03032
960.04021,0.02959
957.98003,0.02892
955.91986,0.02822
953.85969,0.02749
951.79952,0.02674
949.73935,0.02595
947.67917,0.02524
945.61900,0.02462
943.55883,0.02403
941.49866,0.02340
939.43849,0.02261
937.37831,0.02183
935.31814,0.02116
933.25797,0.02046
931.19780,0.01977
929.13762,0.01920
927.07745,0.01875
925.01728,0.01834
922.95711,0.01789
920.89694,0.01735
918.83676,0.01683
916.77659,0.01644
914.71642,0.01611
912.65625,0.01575
910.59608,0.01530
908.53590,0.01479
906.47573,0.01447
904.41556,0.01447
902.35539,0.01455
900.29522,0.01453
898.23504,0.01443
896.17487,0.01447
894.11470,0.01472
892.05453,0.01518
889.99435,0.01574
887.93418,0.01616
885.87401,0.01651
883.81384,0.01708
881.75367,0.01771
879.69349,0.01816
877.63332,0.01857
875.57315,0.01907
873.51298,0.01963
871.45281,0.02038
869.39263,0.02129
867.33246,0.02202
865.27229,0.02247
863.21212,0.02288
861.15194,0.02332
859.09177,0.02372
857.03160,0.02405
854.97143,0.02408
852.91126,0.02399
850.85108,0.02404
848.79091,0.02386
846.73074,0.02342
844.67057,0.02302
842.61040,0.02257
840.55022,0.02205
838.49005,0.02148
836.42988,0.02085
834.36971,0.02019
832.30954,0.01964
830.24936,0.01922
828.18919,0.01878
826.12902,0.01805
824.06885,0.01725
822.00867,0.01686
819.94850,0.01670
817.88833,0.01633
815.82816,0.01578
813.76799,0.01524
811.70781,0.01473
809.64764,0.01428
807.58747,0.01406
805.52730,0.01410
803.46713,0.01419
801.40695,0.01407
799.34678,0.01355
797.28661,0.01285
795.22644,0.01238
793.16627,0.01211
791.10609,0.01184
789.04592,0.01147
786.98575,0.01116
784.92558,0.01103
782.86540,0.01099
780.80523,0.01102
778.74506,0.01107
776.68489,0.01090
774.62472,0.01044
772.56454,0.01013
770.50437,0.01014
768.44420,0.00995
766.38403,0.00956
764.32386,0.00949
762.26368,0.00959
760.20351,0.00951
758.14334,0.00939
756.08317,0.00926
754.02299,0.00893
751.96282,0.00876
749.90265,0.00878
747.84248,0.00837
745.78231,0.00787
743.72213,0.00780
741.66196,0.00760
739.60179,0.00699
737.54162,0.00669
735.48145,0.00700
733.42127,0.00743
731.36110,0.00737
729.30093,0.00684
727.24076,0.00646
725.18059,0.00646
723.12041,0.00636
721.06024,0.00610
719.00007,0.00609
716.93990,0.00619
714.87972,0.00632
712.81955,0.00640
710.75938,0.00630
708.69921,0.00593
706.63904,0.00563
704.57886,0.00587
702.51869,0.00643
700.45852,0.00671
698.39835,0.00637
696.33818,0.00548
694.27800,0.00479
692.21783,0.00497
690.15766,0.00550
688.09749,0.00575
686.03731,0.00604
683.97714,0.00651
681.91697,0.00649
679.85680,0.00576
677.79663,0.00505
675.73645,0.00490
673.67628,0.00534
671.61611,0.00642
669.55594,0.00617
667.49577,0.00431
665.43559,0.00596
663.37542,0.00520
661.31525,0.00466
659.25508,0.00487
657.19491,0.00487
655.13473,0.00457
653.07456,0.00450
651.01439,0.00452
648.95422,0.00430
646.89404,0.00421
644.83387,0.00414
642.77370,0.00397
640.71353,0.00389
638.65336,0.00386
636.59318,0.00370
634.53301,0.00369
632.47284,0.00380
630.41267,0.00358
628.35250,0.00316
626.29232,0.00288
624.23215,0.00233
622.17198,0.00202
620.11181,0.00198
618.05164,0.00135
615.99146,0.00078
613.93129,0.00086
611.87112,0.00083
609.81095,0.00051
607.75077,0.00006
605.69060,0.00000
603.63043,-0.00003
601.57026,0.00024
599.51009,0.00000
