3996.73391,0.00000
3994.67373,0.00003
3992.61356,0.00017
3990.55339,0.00022
3988.49322,0.00012
3986.43305,0.00016
3984.37287,0.00048
3982.31270,0.00075
3980.25253,0.00075
3978.19236,0.00068
3976.13219,0.00070
3974.07201,0.00077
3972.01184,0.00076
3969.95167,0.00064
3967.89150,0.00053
3965.83133,0.00057
3963.77115,0.00067
3961.71098,0.00065
3959.65081,0.00062
3957.59064,0.00072
3955.53046,0.00072
3953.47029,0.00057
3951.41012,0.00052
3949.34995,0.00067
3947.28978,0.00085
3945.22960,0.00103
3943.16943,0.00119
3941.10926,0.00114
3939.04909,0.00083
3936.98892,0.00058
3934.92874,0.00075
3932.86857,0.00110
3930.80840,0.00113
3928.74823,0.00094
3926.68805,0.00083
3924.62788,0.00079
3922.56771,0.00078
3920.50754,0.00091
3918.44737,0.00107
3916.38719,0.00092
3914.32702,0.00056
3912.26685,0.00029
3910.20668,0.00019
3908.14651,0.00037
3906.08633,0.00083
3904.02616,0.00129
3901.96599,0.00149
3899.90582,0.00149
3897.84565,0.00151
3895.78547,0.00155
3893.72530,0.00131
3891.66513,0.00079
3889.60496,0.00057
3887.54478,0.00090
3885.48461,0.00127
3883.42444,0.00130
3881.36427,0.00117
3879.30410,0.00111
3877.24392,0.00112
3875.18375,0.00103
3873.12358,0.00089
3871.06341,0.00075
3869.00324,0.00056
3866.94306,0.00062
3864.88289,0.00076
3862.82272,0.00057
3860.76255,0.00035
3858.70237,0.00070
3856.64220,0.00144
3854.58203,0.00150
3852.52186,0.00049
3850.46169,0.00000
3848.40151,0.00031
3846.34134,0.00053
3844.28117,0.00047
3842.22100,0.00060
3840.16083,0.00106
3838.10065,0.00145
3836.04048,0.00144
3833.98031,0.00119
3831.92014,0.00088
3829.85997,0.00056
3827.79979,0.00040
3825.73962,0.00052
3823.67945,0.00069
3821.61928,0.00066
3819.55910,0.00064
3817.49893,0.00076
3815.43876,0.00073
3813.37859,0.00057
3811.31842,0.00059
3809.25824,0.00078
3807.19807,0.00081
3805.13790,0.00058
3803.07773,0.00034
3801.01756,0.00010
3798.95738,0.00000
3796.89721,0.00015
3794.83704,0.00039
3792.77687,0.00060
3790.71670,0.00071
3788.65652,0.00076
3786.59635,0.00076
3784.53618,0.00073
3782.47601,0.00078
3780.41583,0.00084
3778.35566,0.00074
3776.29549,0.00062
3774.23532,0.00072
3772.17515,0.00097
3770.11497,0.00105
3768.05480,0.00080
3765.99463,0.00042
3763.93446,0.00012
3761.87429,0.00000
3759.81411,0.00012
3757.75394,0.00060
3755.69377,0.00119
3753.63360,0.00154
3751.57342,0.00149
3749.51325,0.00114
3747.45308,0.00090
3745.39291,0.00095
3743.33274,0.00100
3741.27256,0.00109
3739.21239,0.00138
3737.15222,0.00159
3735.09205,0.00137
3733.03188,0.00096
3730.97170,0.00105
3728.91153,0.00150
3726.85136,0.00180
3724.79119,0.00177
3722.73102,0.00150
3720.67084,0.00123
3718.61067,0.00131
3716.55050,0.00178
3714.49033,0.00190
3712.43015,0.00110
3710.36998,0.00017
3708.30981,0.00003
3706.24964,0.00041
3704.18947,0.00070
3702.12929,0.00064
3700.06912,0.00064
3698.00895,0.00100
3695.94878,0.00133
3693.88861,0.00129
3691.82843,0.00103
3689.76826,0.00072
3687.70809,0.00055
3685.64792,0.00054
3683.58775,0.00072
3681.52757,0.00105
3679.46740,0.00131
3677.40723,0.00127
3675.34706,0.00122
3673.28688,0.00150
3671.22671,0.00156
3669.16654,0.00115
3667.10637,0.00102
3665.04620,0.00126
3662.98602,0.00139
3660.92585,0.00147
3658.86568,0.00163
3656.80551,0.00171
3654.74534,0.00173
3652.68516,0.00182
3650.62499,0.00176
3648.56482,0.00151
3646.50465,0.00153
3644.44447,0.00199
3642.38430,0.00252
3640.32413,0.00285
3638.26396,0.00296
3636.20379,0.00291
3634.14361,0.00283
3632.08344,0.00289
3630.02327,0.00296
3627.96310,0.00285
3625.90293,0.00293
3623.84275,0.00341
3621.78258,0.00384
3619.72241,0.00370
3617.66224,0.00334
3615.60207,0.00349
3613.54189,0.00400
3611.48172,0.00423
3609.42155,0.00409
3607.36138,0.00381
3605.30120,0.00359
3603.24103,0.00361
3601.18086,0.00400
3599.12069,0.00480
3597.06052,0.00559
3595.00034,0.00595
3592.94017,0.00602
3590.88000,0.00618
3588.81983,0.00608
3586.75966,0.00558
3584.69948,0.00529
3582.63931,0.00541
3580.57914,0.00557
3578.51897,0.00570
3576.45879,0.00591
3574.39862,0.00613
3572.33845,0.00633
3570.27828,0.00658
3568.21811,0.00672
3566.15793,0.00670
3564.09776,0.00671
3562.03759,0.00690
3559.97742,0.00720
3557.91725,0.00758
3555.85707,0.00800
3553.79690,0.00832
3551.73673,0.00852
3549.67656,0.00869
3547.61639,0.00888
3545.55621,0.00893
3543.49604,0.00877
3541.43587,0.00866
3539.37570,0.00878
3537.31552,0.00899
3535.25535,0.00909
3533.19518,0.00903
3531.13501,0.00892
3529.07484,0.00905
3527.01466,0.00954
3524.95449,0.00997
3522.89432,0.00997
3520.83415,0.00984
3518.77398,0.00982
3516.71380,0.00973
3514.65363,0.00957
3512.59346,0.00949
3510.53329,0.00952
3508.47312,0.00972
3506.41294,0.01006
3504.35277,0.01041
3502.29260,0.01067
3500.23243,0.01080
3498.17225,0.01088
3496.11208,0.01082
3494.05191,0.01073
3491.99174,0.01088
3489.93157,0.01127
3487.87139,0.01166
3485.81122,0.01180
3483.75105,0.01173
3481.69088,0.01172
3479.63071,0.01183
3477.57053,0.01198
3475.51036,0.01207
3473.45019,0.01211
3471.39002,0.01225
3469.32984,0.01244
3467.26967,0.01257
3465.20950,0.01275
3463.14933,0.01293
3461.08916,0.01294
3459.02898,0.01298
3456.96881,0.01319
3454.90864,0.01339
3452.84847,0.01351
3450.78830,0.01357
3448.72812,0.01355
3446.66795,0.01351
3444.60778,0.01345
3442.54761,0.01345
3440.48744,0.01363
3438.42726,0.01389
3436.36709,0.01406
3434.30692,0.01414
3432.24675,0.01413
3430.18657,0.01417
3428.12640,0.01427
3426.06623,0.01419
3424.00606,0.01404
3421.94589,0.01416
3419.88571,0.01437
3417.82554,0.01444
3415.76537,0.01459
3413.70520,0.01483
3411.64503,0.01490
3409.58485,0.01473
3407.52468,0.01459
3405.46451,0.01477
3403.40434,0.01491
3401.34416,0.01479
3399.28399,0.01498
3397.22382,0.01537
3395.16365,0.01558
3393.10348,0.01559
3391.04330,0.01565
3388.98313,0.01576
3386.92296,0.01585
3384.86279,0.01587
3382.80262,0.01570
3380.74244,0.01554
3378.68227,0.01569
3376.62210,0.01602
3374.56193,0.01624
3372.50176,0.01633
3370.44158,0.01638
3368.38141,0.01644
3366.32124,0.01649
3364.26107,0.01644
3362.20089,0.01634
3360.14072,0.01628
3358.08055,0.01629
3356.02038,0.01627
3353.96021,0.01620
3351.90003,0.01620
3349.83986,0.01634
3347.77969,0.01655
3345.71952,0.01667
3343.65935,0.01668
3341.59917,0.01675
3339.53900,0.01691
3337.47883,0.01700
3335.41866,0.01689
3333.35849,0.01670
3331.29831,0.01666
3329.23814,0.01685
3327.17797,0.01709
3325.11780,0.01714
3323.05762,0.01697
3320.99745,0.01691
3318.93728,0.01698
3316.87711,0.01697
3314.81694,0.01702
3312.75676,0.01733
3310.69659,0.01773
3308.63642,0.01778
3306.57625,0.01751
3304.51608,0.01736
3302.45590,0.01739
3300.39573,0.01744
3298.33556,0.01753
3296.27539,0.01760
3294.21521,0.01758
3292.15504,0.01753
3290.09487,0.01738
3288.03470,0.01719
3285.97453,0.01720
3283.91435,0.01735
3281.85418,0.01750
3279.79401,0.01757
3277.73384,0.01738
3275.67367,0.01713
3273.61349,0.01715
3271.55332,0.01738
3269.49315,0.01758
3267.43298,0.01764
3265.37281,0.01746
3263.31263,0.01721
3261.25246,0.01718
3259.19229,0.01731
3257.13212,0.01733
3255.07194,0.01726
3253.01177,0.01713
3250.95160,0.01697
3248.89143,0.01696
3246.83126,0.01718
3244.77108,0.01722
3242.71091,0.01699
3240.65074,0.01685
3238.59057,0.01672
3236.53040,0.01644
3234.47022,0.01639
3232.41005,0.01664
3230.34988,0.01665
3228.28971,0.01647
3226.22954,0.01645
3224.16936,0.01652
3222.10919,0.01646
3220.04902,0.01638
3217.98885,0.01633
3215.92867,0.01620
3213.86850,0.01606
3211.80833,0.01604
3209.74816,0.01606
3207.68799,0.01598
3205.62781,0.01581
3203.56764,0.01572
3201.50747,0.01580
3199.44730,0.01583
3197.38713,0.01570
3195.32695,0.01565
3193.26678,0.01565
3191.20661,0.01543
3189.14644,0.01525
3187.08626,0.01539
3185.02609,0.01559
3182.96592,0.01558
3180.90575,0.01549
3178.84558,0.01544
3176.78540,0.01540
3174.72523,0.01536
3172.66506,0.01530
3170.60489,0.01508
3168.54472,0.01474
3166.48454,0.01450
3164.42437,0.01442
3162.36420,0.01451
3160.30403,0.01473
3158.24386,0.01488
3156.18368,0.01493
3154.12351,0.01500
3152.06334,0.01491
3150.00317,0.01453
3147.94299,0.01416
3145.88282,0.01402
3143.82265,0.01409
3141.76248,0.01425
3139.70231,0.01422
3137.64213,0.01403
3135.58196,0.01394
3133.52179,0.01397
3131.46162,0.01399
3129.40145,0.01395
3127.34127,0.01388
3125.28110,0.01384
3123.22093,0.01380
3121.16076,0.01373
3119.10058,0.01367
3117.04041,0.01355
3114.98024,0.01349
3112.92007,0.01354
3110.85990,0.01348
3108.79972,0.01322
3106.73955,0.01304
3104.67938,0.01307
3102.61921,0.01307
3100.55904,0.01298
3098.49886,0.01300
3096.43869,0.01295
3094.37852,0.01273
3092.31835,0.01260
3090.25818,0.01253
3088.19800,0.01246
3086.13783,0.01249
3084.07766,0.01267
3082.01749,0.01285
3079.95731,0.01279
3077.89714,0.01246
3075.83697,0.01219
3073.77680,0.01210
3071.71663,0.01206
3069.65645,0.01200
3067.59628,0.01198
3065.53611,0.01201
3063.47594,0.01196
3061.41577,0.01185
3059.35559,0.01175
3057.29542,0.01163
3055.23525,0.01155
3053.17508,0.01160
3051.11491,0.01164
3049.05473,0.01155
3046.99456,0.01149
3044.93439,0.01155
3042.87422,0.01157
3040.81404,0.01141
3038.75387,0.01128
3036.69370,0.01122
3034.63353,0.01110
3032.57336,0.01114
3030.51318,0.01118
3028.45301,0.01103
3026.39284,0.01089
3024.33267,0.01082
3022.27250,0.01077
3020.21232,0.01082
3018.15215,0.01090
3016.09198,0.01080
3014.03181,0.01055
3011.97163,0.01043
3009.91146,0.01049
3007.85129,0.01051
3005.79112,0.01044
3003.73095,0.01042
3001.67077,0.01050
2999.61060,0.01050
2997.55043,0.01042
2995.49026,0.01038
2993.43009,0.01042
2991.36991,0.01038
2989.30974,0.01028
2987.24957,0.01025
2985.18940,0.01033
2983.12923,0.01045
2981.06905,0.01047
2979.00888,0.01041
2976.94871,0.01049
2974.88854,0.01059
2972.82836,0.01047
2970.76819,0.01033
2968.70802,0.01027
2966.64785,0.01009
2964.58768,0.00997
2962.52750,0.01010
2960.46733,0.01028
2958.40716,0.01030
2956.34699,0.01019
2954.28682,0.01015
2952.22664,0.01023
2950.16647,0.01024
2948.10630,0.01027
2946.04613,0.01040
2943.98596,0.01040
2941.92578,0.01024
2939.86561,0.01020
2937.80544,0.01027
2935.74527,0.01020
2933.68509,0.01000
2931.62492,0.00989
2929.56475,0.00984
2927.50458,0.00978
2925.44441,0.00969
2923.38423,0.00943
2921.32406,0.00892
2919.26389,0.00841
2917.20372,0.00817
2915.14355,0.00830
2913.08337,0.00871
2911.02320,0.00901
2908.96303,0.00901
2906.90286,0.00905
2904.84268,0.00911
2902.78251,0.00904
2900.72234,0.00902
2898.66217,0.00916
2896.60200,0.00927
2894.54182,0.00928
2892.48165,0.00926
2890.42148,0.00918
2888.36131,0.00903
2886.30114,0.00902
2884.24096,0.00917
2882.18079,0.00925
2880.12062,0.00925
2878.06045,0.00932
2876.00028,0.00935
2873.94010,0.00913
2871.87993,0.00882
2869.81976,0.00871
2867.75959,0.00870
2865.69941,0.00869
2863.63924,0.00865
2861.57907,0.00846
2859.51890,0.00825
2857.45873,0.00811
2855.39855,0.00781
2853.33838,0.00736
2851.27821,0.00702
2849.21804,0.00694
2847.15787,0.00708
2845.09769,0.00725
2843.03752,0.00733
2840.97735,0.00728
2838.91718,0.00725
2836.85700,0.00732
2834.79683,0.00738
2832.73666,0.00746
2830.67649,0.00753
2828.61632,0.00747
2826.55614,0.00737
2824.49597,0.00731
2822.43580,0.00734
2820.37563,0.00729
2818.31546,0.00716
2816.25528,0.00710
2814.19511,0.00707
2812.13494,0.00701
2810.07477,0.00696
2808.01460,0.00688
2805.95442,0.00679
2803.89425,0.00672
2801.83408,0.00660
2799.77391,0.00648
2797.71373,0.00651
2795.65356,0.00661
2793.59339,0.00664
2791.53322,0.00659
2789.47305,0.00647
2787.41287,0.00637
2785.35270,0.00637
2783.29253,0.00636
2781.23236,0.00629
2779.17219,0.00613
2777.11201,0.00603
2775.05184,0.00612
2772.99167,0.00613
2770.93150,0.00601
2768.87133,0.00600
2766.81115,0.00604
2764.75098,0.00604
2762.69081,0.00604
2760.63064,0.00596
2758.57046,0.00575
2756.51029,0.00563
2754.45012,0.00561
2752.38995,0.00556
2750.32978,0.00549
2748.26960,0.00544
2746.20943,0.00543
2744.14926,0.00545
2742.08909,0.00544
2740.02892,0.00546
2737.96874,0.00547
2735.90857,0.00539
2733.84840,0.00524
2731.78823,0.00514
2729.72805,0.00516
2727.66788,0.00523
2725.60771,0.00533
2723.54754,0.00542
2721.48737,0.00537
2719.42719,0.00514
2717.36702,0.00500
2715.30685,0.00504
2713.24668,0.00508
2711.18651,0.00494
2709.12633,0.00481
2707.06616,0.00485
2705.00599,0.00494
2702.94582,0.00494
2700.88565,0.00488
2698.82547,0.00478
2696.76530,0.00471
2694.70513,0.00472
2692.64496,0.00474
2690.58478,0.00471
2688.52461,0.00464
2686.46444,0.00458
2684.40427,0.00457
2682.34410,0.00463
2680.28392,0.00465
2678.22375,0.00455
2676.16358,0.00433
2674.10341,0.00408
2672.04324,0.00391
2669.98306,0.00391
2667.92289,0.00404
2665.86272,0.00419
2663.80255,0.00423
2661.74238,0.00423
2659.68220,0.00432
2657.62203,0.00441
2655.56186,0.00446
2653.50169,0.00457
2651.44151,0.00459
2649.38134,0.00443
2647.32117,0.00440
2645.26100,0.00456
2643.20083,0.00458
2641.14065,0.00448
2639.08048,0.00449
2637.02031,0.00442
2634.96014,0.00418
2632.89997,0.00397
2630.83979,0.00397
2628.77962,0.00408
2626.71945,0.00399
2624.65928,0.00382
2622.59910,0.00384
2620.53893,0.00389
2618.47876,0.00385
2616.41859,0.00394
2614.35842,0.00410
2612.29824,0.00405
2610.23807,0.00398
2608.17790,0.00401
2606.11773,0.00376
2604.05756,0.00339
2601.99738,0.00339
2599.93721,0.00362
2597.87704,0.00387
2595.81687,0.00413
2593.75670,0.00411
2591.69652,0.00395
2589.63635,0.00393
2587.57618,0.00383
2585.51601,0.00360
2583.45583,0.00350
2581.39566,0.00350
2579.33549,0.00344
2577.27532,0.00352
2575.21515,0.00376
2573.15497,0.00390
2571.09480,0.00385
2569.03463,0.00370
2566.97446,0.00362
2564.91429,0.00349
2562.85411,0.00336
2560.79394,0.00342
2558.73377,0.00346
2556.67360,0.00344
2554.61342,0.00340
2552.55325,0.00345
2550.49308,0.00381
2548.43291,0.00411
2546.37274,0.00396
2544.31256,0.00359
2542.25239,0.00335
2540.19222,0.00335
2538.13205,0.00358
2536.07188,0.00386
2534.01170,0.00401
2531.95153,0.00402
2529.89136,0.00376
2527.83119,0.00350
2525.77102,0.00354
2523.71084,0.00361
2521.65067,0.00364
2519.59050,0.00359
2517.53033,0.00346
2515.47015,0.00348
2513.40998,0.00344
2511.34981,0.00332
2509.28964,0.00333
2507.22947,0.00347
2505.16929,0.00381
2503.10912,0.00415
2501.04895,0.00411
2498.98878,0.00387
2496.92861,0.00379
2494.86843,0.00383
2492.80826,0.00381
2490.74809,0.00377
2488.68792,0.00386
2486.62775,0.00394
2484.56757,0.00392
2482.50740,0.00394
2480.44723,0.00392
2478.38706,0.00378
2476.32688,0.00369
2474.26671,0.00371
2472.20654,0.00381
2470.14637,0.00398
2468.08620,0.00417
2466.02602,0.00437
2463.96585,0.00448
2461.90568,0.00445
2459.84551,0.00437
2457.78534,0.00435
2455.72516,0.00445
2453.66499,0.00443
2451.60482,0.00425
2449.54465,0.00410
2447.48447,0.00407
2445.42430,0.00400
2443.36413,0.00383
2441.30396,0.00382
2439.24379,0.00408
2437.18361,0.00447
2435.12344,0.00464
2433.06327,0.00441
2431.00310,0.00405
2428.94293,0.00378
2426.88275,0.00371
2424.82258,0.00378
2422.76241,0.00383
2420.70224,0.00388
2418.64207,0.00397
2416.58189,0.00394
2414.52172,0.00375
2412.46155,0.00365
2410.40138,0.00378
2408.34120,0.00379
2406.28103,0.00367
2404.22086,0.00369
2402.16069,0.00375
2400.10052,0.00370
2398.04034,0.00297
2395.98017,0.00286
2393.92000,0.00321
2391.85983,0.00367
2389.79966,0.00412
2387.73948,0.00458
2385.67931,0.00504
2383.61914,0.00531
2381.55897,0.00534
2379.49880,0.00524
2377.43862,0.00508
2375.37845,0.00474
2373.31828,0.00441
2371.25811,0.00444
2369.19793,0.00476
2367.13776,0.00521
2365.07759,0.00565
2363.01742,0.00547
2360.95725,0.00523
2358.89707,0.00464
2356.83690,0.00417
2354.77673,0.00426
2352.71656,0.00529
2350.65639,0.00720
2348.59621,0.00804
2346.53604,0.00636
2344.47587,0.00535
2342.41570,0.00517
2340.35552,0.00514
2338.29535,0.00536
2336.23518,0.00552
2334.17501,0.00543
2332.11484,0.00518
2330.05466,0.00553
2327.99449,0.00663
2325.93432,0.00788
2323.87415,0.00787
2321.81398,0.00694
2319.75380,0.00582
2317.69363,0.00547
2315.63346,0.00541
2313.57329,0.00530
2311.51312,0.00536
2309.45294,0.00560
2307.39277,0.00582
2305.33260,0.00594
2303.27243,0.00597
2301.21225,0.00575
2299.15208,0.00531
2297.09191,0.00489
2295.03174,0.00477
2292.97157,0.00492
2290.91139,0.00501
2288.85122,0.00494
2286.79105,0.00480
2284.73088,0.00456
2282.67071,0.00405
2280.61053,0.00332
2278.55036,0.00283
2276.49019,0.00291
2274.43002,0.00331
2272.36984,0.00353
2270.30967,0.00349
2268.24950,0.00340
2266.18933,0.00339
2264.12916,0.00347
2262.06898,0.00384
2260.00881,0.00413
2257.94864,0.00371
2255.88847,0.00308
2253.82830,0.00326
2251.76812,0.00395
2249.70795,0.00402
2247.64778,0.00396
2245.58761,0.00385
2243.52744,0.00364
2241.46726,0.00339
2239.40709,0.00312
2237.34692,0.00314
2235.28675,0.00360
2233.22657,0.00379
2231.16640,0.00373
2229.10623,0.00394
2227.04606,0.00406
2224.98589,0.00349
2222.92571,0.00258
2220.86554,0.00210
2218.80537,0.00224
2216.74520,0.00280
2214.68503,0.00329
2212.62485,0.00316
2210.56468,0.00268
2208.50451,0.00249
2206.44434,0.00255
2204.38417,0.00270
2202.32399,0.00306
2200.26382,0.00321
2198.20365,0.00288
2196.14348,0.00266
2194.08330,0.00299
2192.02313,0.00350
2189.96296,0.00379
2187.90279,0.00397
2185.84262,0.00361
2183.78244,0.00237
2181.72227,0.00140
2179.66210,0.00136
2177.60193,0.00165
2175.54176,0.00165
2173.48158,0.00172
2171.42141,0.00254
2169.36124,0.00355
2167.30107,0.00435
2165.24089,0.00454
2163.18072,0.00368
2161.12055,0.00252
2159.06038,0.00152
2157.00021,0.00036
2154.94003,0.00000
2152.87986,0.00061
2150.81969,0.00119
2148.75952,0.00142
2146.69935,0.00138
2144.63917,0.00114
2142.57900,0.00089
2140.51883,0.00094
2138.45866,0.00107
2136.39849,0.00103
2134.33831,0.00088
2132.27814,0.00087
2130.21797,0.00151
2128.15780,0.00246
2126.09762,0.00283
2124.03745,0.00253
2121.97728,0.00215
2119.91711,0.00208
2117.85694,0.00197
2115.79676,0.00167
2113.73659,0.00175
2111.67642,0.00210
2109.61625,0.00228
2107.55608,0.00233
2105.49590,0.00219
2103.43573,0.00200
2101.37556,0.00187
2099.31539,0.00143
2097.25521,0.00121
2095.19504,0.00154
2093.13487,0.00197
2091.07470,0.00210
2089.01453,0.00196
2086.95435,0.00196
2084.89418,0.00245
2082.83401,0.00289
2080.77384,0.00258
2078.71367,0.00181
2076.65349,0.00136
2074.59332,0.00154
2072.53315,0.00203
2070.47298,0.00217
2068.41281,0.00203
2066.35263,0.00211
2064.29246,0.00203
2062.23229,0.00124
2060.17212,0.00043
2058.11194,0.00056
2056.05177,0.00142
2053.99160,0.00236
2051.93143,0.00282
2049.87126,0.00238
2047.81108,0.00152
2045.75091,0.00134
2043.69074,0.00192
2041.63057,0.00237
2039.57040,0.00232
2037.51022,0.00198
2035.45005,0.00147
2033.38988,0.00077
2031.32971,0.00067
2029.26954,0.00152
2027.20936,0.00194
2025.14919,0.00165
2023.08902,0.00150
2021.02885,0.00114
2018.96867,0.00067
2016.90850,0.00093
2014.84833,0.00158
2012.78816,0.00162
2010.72799,0.00147
2008.66781,0.00199
2006.60764,0.00241
2004.54747,0.00195
2002.48730,0.00118
2000.42713,0.00072
1998.36695,0.00089
1996.30678,0.00126
1994.24661,0.00121
1992.18644,0.00121
1990.12626,0.00184
1988.06609,0.00254
1986.00592,0.00239
1983.94575,0.00159
1981.88558,0.00113
1979.82540,0.00134
1977.76523,0.00129
1975.70506,0.00057
1973.64489,0.00044
1971.58472,0.00117
1969.52454,0.00188
1967.46437,0.00192
1965.40420,0.00120
1963.34403,0.00044
1961.28386,0.00006
1959.22368,0.00000
1957.16351,0.00028
1955.10334,0.00065
1953.04317,0.00103
1950.98299,0.00143
1948.92282,0.00139
1946.86265,0.00103
1944.80248,0.00097
1942.74231,0.00129
1940.68213,0.00154
1938.62196,0.00143
1936.56179,0.00106
1934.50162,0.00058
1932.44145,0.00018
1930.38127,0.00000
1928.32110,0.00011
1926.26093,0.00026
1924.20076,0.00031
1922.14059,0.00050
1920.08041,0.00083
1918.02024,0.00092
1915.96007,0.00089
1913.89990,0.00101
1911.83972,0.00100
1909.77955,0.00074
1907.71938,0.00065
1905.65921,0.00076
1903.59904,0.00069
1901.53886,0.00033
1899.47869,0.00009
1897.41852,0.00041
1895.35835,0.00100
1893.29818,0.00118
1891.23800,0.00103
1889.17783,0.00116
1887.11766,0.00150
1885.05749,0.00159
1882.99731,0.00138
1880.93714,0.00118
1878.87697,0.00110
1876.81680,0.00105
1874.75663,0.00098
1872.69645,0.00099
1870.63628,0.00110
1868.57611,0.00118
1866.51594,0.00108
1864.45577,0.00093
1862.39559,0.00086
1860.33542,0.00093
1858.27525,0.00107
1856.21508,0.00106
1854.15491,0.00089
1852.09473,0.00076
1850.03456,0.00078
1847.97439,0.00092
1845.91422,0.00100
1843.85404,0.00092
1841.79387,0.00088
1839.73370,0.00092
1837.67353,0.00085
1835.61336,0.00076
1833.55318,0.00066
1831.49301,0.00038
1829.43284,0.00030
1827.37267,0.00077
1825.31250,0.00119
1823.25232,0.00121
1821.19215,0.00109
1819.13198,0.00103
1817.07181,0.00105
1815.01163,0.00108
1812.95146,0.00106
1810.89129,0.00108
1808.83112,0.00115
1806.77095,0.00117
1804.71077,0.00119
1802.65060,0.00127
1800.59043,0.00132
1798.53026,0.00123
1796.47009,0.00109
1794.40991,0.00096
1792.34974,0.00092
1790.28957,0.00104
1788.22940,0.00125
1786.16923,0.00134
1784.10905,0.00114
1782.04888,0.00078
1779.98871,0.00057
1777.92854,0.00061
1775.86836,0.00070
1773.80819,0.00077
1771.74802,0.00099
1769.68785,0.00138
1767.62768,0.00169
1765.56750,0.00182
1763.50733,0.00182
1761.44716,0.00182
1759.38699,0.00192
1757.32682,0.00203
1755.26664,0.00211
1753.20647,0.00222
1751.14630,0.00232
1749.08613,0.00233
1747.02596,0.00234
1744.96578,0.00243
1742.90561,0.00252
1740.84544,0.00258
1738.78527,0.00263
1736.72509,0.00266
1734.66492,0.00261
1732.60475,0.00251
1730.54458,0.00250
1728.48441,0.00257
1726.42423,0.00256
1724.36406,0.00250
1722.30389,0.00246
1720.24372,0.00235
1718.18355,0.00225
1716.12337,0.00241
1714.06320,0.00263
1712.00303,0.00273
1709.94286,0.00272
1707.88268,0.00264
1705.82251,0.00252
1703.76234,0.00234
1701.70217,0.00216
1699.64200,0.00228
1697.58182,0.00281
1695.52165,0.00347
1693.46148,0.00409
1691.40131,0.00463
1689.34114,0.00496
1687.28096,0.00498
1685.22079,0.00496
1683.16062,0.00551
1681.10045,0.00636
1679.04028,0.00686
1676.98010,0.00705
1674.91993,0.00732
1672.85976,0.00765
1670.79959,0.00783
1668.73941,0.00809
1666.67924,0.00845
1664.61907,0.00873
1662.55890,0.00906
1660.49873,0.00952
1658.43855,0.00982
1656.37838,0.00969
1654.31821,0.00935
1652.25804,0.00933
1650.19787,0.00938
1648.13769,0.00927
1646.07752,0.00920
1644.01735,0.00921
1641.95718,0.00909
1639.89701,0.00877
1637.83683,0.00832
1635.77666,0.00803
1633.71649,0.00806
1631.65632,0.00811
1629.59614,0.00799
1627.53597,0.00771
1625.47580,0.00738
1623.41563,0.00710
1621.35546,0.00693
1619.29528,0.00669
1617.23511,0.00641
1615.17494,0.00629
1613.11477,0.00621
1611.05460,0.00605
1608.99442,0.00592
1606.93425,0.00589
1604.87408,0.00584
1602.81391,0.00571
1600.75373,0.00556
1598.69356,0.00538
1596.63339,0.00517
1594.57322,0.00501
1592.51305,0.00492
1590.45287,0.00477
1588.39270,0.00450
1586.33253,0.00422
1584.27236,0.00400
1582.21219,0.00382
1580.15201,0.00359
1578.09184,0.00329
1576.03167,0.00304
1573.97150,0.00293
1571.91133,0.00283
1569.85115,0.00276
1567.79098,0.00284
1565.73081,0.00302
1563.67064,0.00314
1561.61046,0.00306
1559.55029,0.00302
1557.49012,0.00338
1555.42995,0.00359
1553.36978,0.00349
1551.30960,0.00332
1549.24943,0.00315
1547.18926,0.00297
1545.12909,0.00273
1543.06892,0.00232
1541.00874,0.00192
1538.94857,0.00202
1536.88840,0.00236
1534.82823,0.00254
1532.76805,0.00259
1530.70788,0.00260
1528.64771,0.00253
1526.58754,0.00242
1524.52737,0.00227
1522.46719,0.00206
1520.40702,0.00204
1518.34685,0.00219
1516.28668,0.00231
1514.22651,0.00239
1512.16633,0.00247
1510.10616,0.00245
1508.04599,0.00218
1505.98582,0.00171
1503.92565,0.00139
1501.86547,0.00123
1499.80530,0.00108
1497.74513,0.00100
1495.68496,0.00100
1493.62478,0.00098
1491.56461,0.00095
1489.50444,0.00096
1487.44427,0.00088
1485.38410,0.00072
1483.32392,0.00060
1481.26375,0.00059
1479.20358,0.00071
1477.14341,0.00082
1475.08324,0.00079
1473.02306,0.00072
1470.96289,0.00087
1468.90272,0.00110
1466.84255,0.00120
1464.78238,0.00129
1462.72220,0.00146
1460.66203,0.00149
1458.60186,0.00142
1456.54169,0.00154
1454.48151,0.00172
1452.42134,0.00180
1450.36117,0.00185
1448.30100,0.00187
1446.24083,0.00183
1444.18065,0.00176
1442.12048,0.00172
1440.06031,0.00171
1438.00014,0.00170
1435.93997,0.00172
1433.87979,0.00173
1431.81962,0.00170
1429.75945,0.00175
1427.69928,0.00190
1425.63910,0.00206
1423.57893,0.00219
1421.51876,0.00240
1419.45859,0.00276
1417.39842,0.00304
1415.33824,0.00297
1413.27807,0.00277
1411.21790,0.00271
1409.15773,0.00272
1407.09756,0.00275
1405.03738,0.00282
1402.97721,0.00285
1400.91704,0.00277
1398.85687,0.00273
1396.79670,0.00282
1394.73652,0.00292
1392.67635,0.00286
1390.61618,0.00278
1388.55601,0.00281
1386.49583,0.00285
1384.43566,0.00274
1382.37549,0.00263
1380.31532,0.00262
1378.25515,0.00265
1376.19497,0.00265
1374.13480,0.00270
1372.07463,0.00279
1370.01446,0.00275
1367.95429,0.00256
1365.89411,0.00239
1363.83394,0.00241
1361.77377,0.00252
1359.71360,0.00245
1357.65343,0.00225
1355.59325,0.00210
1353.53308,0.00206
1351.47291,0.00204
1349.41274,0.00191
1347.35256,0.00170
1345.29239,0.00153
1343.23222,0.00149
1341.17205,0.00164
1339.11188,0.00181
1337.05170,0.00171
1334.99153,0.00139
1332.93136,0.00115
1330.87119,0.00106
1328.81102,0.00105
1326.75084,0.00103
1324.69067,0.00099
1322.63050,0.00098
1320.57033,0.00102
1318.51015,0.00106
1316.44998,0.00106
1314.38981,0.00102
1312.32964,0.00099
1310.26947,0.00094
1308.20929,0.00086
1306.14912,0.00080
1304.08895,0.00084
1302.02878,0.00094
1299.96861,0.00104
1297.90843,0.00116
1295.84826,0.00123
1293.78809,0.00126
1291.72792,0.00126
1289.66775,0.00128
1287.60757,0.00131
1285.54740,0.00128
1283.48723,0.00118
1281.42706,0.00112
1279.36688,0.00119
1277.30671,0.00126
1275.24654,0.00126
1273.18637,0.00130
1271.12620,0.00143
1269.06602,0.00147
1267.00585,0.00140
1264.94568,0.00144
1262.88551,0.00165
1260.82534,0.00184
1258.76516,0.00191
1256.70499,0.00198
1254.64482,0.00214
1252.58465,0.00232
1250.52447,0.00246
1248.46430,0.00259
1246.40413,0.00278
1244.34396,0.00295
1242.28379,0.00299
1240.22361,0.00301
1238.16344,0.00309
1236.10327,0.00316
1234.04310,0.00321
1231.98293,0.00325
1229.92275,0.00318
1227.86258,0.00299
1225.80241,0.00276
1223.74224,0.00249
1221.68207,0.00221
1219.62189,0.00193
1217.56172,0.00167
1215.50155,0.00142
1213.44138,0.00108
1211.38120,0.00074
1209.32103,0.00056
1207.26086,0.00043
1205.20069,0.00022
1203.14052,0.00004
1201.08034,0.00000
1199.02017,0.00007
1196.96000,0.00007
1194.89983,0.00006
1192.83966,0.00022
1190.77948,0.00057
1188.71931,0.00095
1186.65914,0.00125
1184.59897,0.00163
1182.53880,0.00215
1180.47862,0.00271
1178.41845,0.00329
1176.35828,0.00393
1174.29811,0.00454
1172.23793,0.00516
1170.17776,0.00578
1168.11759,0.00630
1166.05742,0.00680
1163.99725,0.00744
1161.93707,0.00807
1159.87690,0.00865
1157.81673,0.00926
1155.75656,0.00976
1153.69639,0.01026
1151.63621,0.01085
1149.57604,0.01136
1147.51587,0.01176
1145.45570,0.01217
1143.39552,0.01253
1141.33535,0.01274
1139.27518,0.01299
1137.21501,0.01334
1135.15484,0.01357
1133.09466,0.01354
1131.03449,0.01350
1128.97432,0.01358
1126.91415,0.01364
1124.85398,0.01370
1122.79380,0.01397
1120.73363,0.01441
1118.67346,0.01478
1116.61329,0.01504
1114.55312,0.01527
1112.49294,0.01555
1110.43277,0.01608
1108.37260,0.01682
1106.31243,0.01752
1104.25225,0.01817
1102.19208,0.01893
1100.13191,0.01970
1098.07174,0.02029
1096.01157,0.02072
1093.95139,0.02126
1091.89122,0.02191
1089.83105,0.02248
1087.77088,0.02300
1085.71071,0.02361
1083.65053,0.02427
1081.59036,0.02482
1079.53019,0.02520
1077.47002,0.02559
1075.40985,0.02606
1073.34967,0.02642
1071.28950,0.02664
1069.22933,0.02685
1067.16916,0.02701
1065.10898,0.02692
1063.04881,0.02663
1060.98864,0.02630
1058.92847,0.02578
1056.86830,0.02503
1054.80812,0.02419
1052.74795,0.02335
1050.68778,0.02252
1048.62761,0.02163
1046.56744,0.02060
1044.50726,0.01971
1042.44709,0.01902
1040.38692,0.01821
1038.32675,0.01721
1036.26657,0.01635
1034.20640,0.01573
1032.14623,0.01503
1030.08606,0.01412
1028.02589,0.01322
1025.96571,0.01241
1023.90554,0.01161
1021.84537,0.01089
1019.78520,0.01037
1017.72503,0.00997
1015.66485,0.00968
1013.60468,0.00971
1011.54451,0.00996
1009.48434,0.01014
1007.42417,0.01028
1005.36399,0.01060
1003.30382,0.01114
1001.24365,0.01177
999.18348,0.01245
997.12330,0.01326
995.06313,0.01404
993.00296,0.01469
990.94279,0.01525
988.88262,0.01550
986.82244,0.01528
984.76227,0.01480
982.70210,0.01424
980.64193,0.01364
978.58176,0.01311
976.52158,0.01257
974.46141,0.01192
972.40124,0.01130
970.34107,0.01083
968.28089,0.01037
966.22072,0.00982
964.16055,0.00933
962.10038,0.00899
960.04021,0.00873
957.98003,0.00850
955.91986,0.00822
953.85969,0.00785
951.79952,0.00737
949.73935,0.00701
947.67917,0.00692
945.61900,0.00678
943.55883,0.00651
941.49866,0.00618
939.43849,0.00575
937.37831,0.00534
935.31814,0.00505
933.25797,0.00486
931.19780,0.00471
929.13762,0.00438
927.07745,0.00390
925.01728,0.00356
922.95711,0.00340
920.89694,0.00323
918.83676,0.00301
916.77659,0.00280
914.71642,0.00267
912.65625,0.00269
910.59608,0.00262
908.53590,0.00228
906.47573,0.00191
904.41556,0.00186
902.35539,0.00203
900.29522,0.00212
898.23504,0.00210
896.17487,0.00205
894.11470,0.00215
892.05453,0.00243
889.99435,0.00276
887.93418,0.00312
885.87401,0.00353
883.81384,0.00383
881.75367,0.00393
879.69349,0.00401
877.63332,0.00429
875.57315,0.00482
873.51298,0.00545
871.45281,0.00610
869.39263,0.00675
867.33246,0.00711
865.27229,0.00729
863.21212,0.00785
861.15194,0.00866
859.09177,0.00920
857.03160,0.00952
854.97143,0.00984
852.91126,0.00999
850.85108,0.00994
848.79091,0.01000
846.73074,0.01027
844.67057,0.01066
842.61040,0.01085
840.55022,0.01048
838.49005,0.00964
836.42988,0.00870
834.36971,0.00790
832.30954,0.00720
830.24936,0.00648
828.18919,0.00573
826.12902,0.00514
824.06885,0.00480
822.00867,0.00451
819.94850,0.00409
817.88833,0.00362
815.82816,0.00332
813.76799,0.00315
811.70781,0.00289
809.64764,0.00264
807.58747,0.00259
805.52730,0.00266
803.46713,0.00272
801.40695,0.00269
799.34678,0.00259
797.28661,0.00242
795.22644,0.00229
793.16627,0.00216
791.10609,0.00182
789.04592,0.00147
786.98575,0.00142
784.92558,0.00168
782.86540,0.00194
780.80523,0.00184
778.74506,0.00164
776.68489,0.00153
774.62472,0.00154
772.56454,0.00191
770.50437,0.00212
768.44420,0.00157
766.38403,0.00091
764.32386,0.00074
762.26368,0.00075
760.20351,0.00076
758.14334,0.00070
756.08317,0.00052
754.02299,0.00056
751.96282,0.00109
749.90265,0.00155
747.84248,0.00141
745.78231,0.00104
743.72213,0.00106
741.66196,0.00144
739.60179,0.00169
737.54162,0.00168
735.48145,0.00164
733.42127,0.00157
731.36110,0.00129
729.30093,0.00105
727.24076,0.00113
725.18059,0.00150
723.12041,0.00198
721.06024,0.00154
719.00007,0.00159
716.93990,0.00173
714.87972,0.00138
712.81955,0.00121
710.75938,0.00161
708.69921,0.00212
706.63904,0.00242
704.57886,0.00275
702.51869,0.00308
700.45852,0.00334
698.39835,0.00349
696.33818,0.00325
694.27800,0.00286
692.21783,0.00291
690.15766,0.00304
688.09749,0.00282
686.03731,0.00282
683.97714,0.00340
681.91697,0.00386
679.85680,0.00361
677.79663,0.00324
675.73645,0.00341
673.67628,0.00385
671.61611,0.00337
669.55594,0.00105
667.49577,0.00000
665.43559,0.00345
663.37542,0.00413
661.31525,0.00327
659.25508,0.00198
657.19491,0.00135
655.13473,0.00185
653.07456,0.00270
651.01439,0.00353
648.95422,0.00429
646.89404,0.00438
644.83387,0.00318
642.77370,0.00171
640.71353,0.00123
638.65336,0.00145
636.59318,0.00155
634.53301,0.00168
632.47284,0.00184
630.41267,0.00140
628.35250,0.00068
626.29232,0.00056
624.23215,0.00072
622.17198,0.00051
620.11181,0.00061
618.05164,0.00177
615.99146,0.00279
613.93129,0.00291
611.87112,0.00310
609.81095,0.00352
607.75077,0.00330
605.69060,0.00191
603.63043,0.00055
601.57026,0.00000
599.51009,0.00000
