3996.73391,0.00034
3994.67373,0.00038
3992.61356,0.00054
3990.55339,0.00048
3988.49322,0.00017
3986.43305,0.00006
3984.37287,0.00037
3982.31270,0.00072
3980.25253,0.00079
3978.19236,0.00077
3976.13219,0.00074
3974.07201,0.00063
3972.01184,0.00050
3969.95167,0.00041
3967.89150,0.00028
3965.83133,0.00013
3963.77115,0.00002
3961.71098,0.00000
3959.65081,0.00013
3957.59064,0.00034
3955.53046,0.00039
3953.47029,0.00028
3951.41012,0.00044
3949.34995,0.00099
3947.28978,0.00135
3945.22960,0.00130
3943.16943,0.00128
3941.10926,0.00133
3939.04909,0.00111
3936.98892,0.00082
3934.92874,0.00089
3932.86857,0.00126
3930.80840,0.00127
3928.74823,0.00083
3926.68805,0.00056
3924.62788,0.00071
3922.56771,0.00088
3920.50754,0.00087
3918.44737,0.00087
3916.38719,0.00084
3914.32702,0.00068
3912.26685,0.00046
3910.20668,0.00025
3908.14651,0.00031
3906.08633,0.00078
3904.02616,0.00134
3901.96599,0.00163
3899.90582,0.00167
3897.84565,0.00158
3895.78547,0.00136
3893.72530,0.00108
3891.66513,0.00083
3889.60496,0.00075
3887.54478,0.00091
3885.48461,0.00118
3883.42444,0.00120
3881.36427,0.00103
3879.30410,0.00099
3877.24392,0.00090
3875.18375,0.00062
3873.12358,0.00042
3871.06341,0.00055
3869.00324,0.00098
3866.94306,0.00132
3864.88289,0.00132
3862.82272,0.00107
3860.76255,0.00082
3858.70237,0.00088
3856.64220,0.00128
3854.58203,0.00145
3852.52186,0.00112
3850.46169,0.00086
3848.40151,0.00083
3846.34134,0.00067
3844.28117,0.00044
3842.22100,0.00049
3840.16083,0.00067
3838.10065,0.00068
3836.04048,0.00054
3833.98031,0.00057
3831.92014,0.00075
3829.85997,0.00081
3827.79979,0.00079
3825.73962,0.00078
3823.67945,0.00060
3821.61928,0.00030
3819.55910,0.00030
3817.49893,0.00072
3815.43876,0.00128
3813.37859,0.00143
3811.31842,0.00123
3809.25824,0.00108
3807.19807,0.00091
3805.13790,0.00049
3803.07773,0.00006
3801.01756,0.00000
3798.95738,0.00016
3796.89721,0.00041
3794.83704,0.00070
3792.77687,0.00071
3790.71670,0.00044
3788.65652,0.00024
3786.59635,0.00027
3784.53618,0.00035
3782.47601,0.00026
3780.41583,0.00024
3778.35566,0.00052
3776.29549,0.00075
3774.23532,0.00064
3772.17515,0.00044
3770.11497,0.00048
3768.05480,0.00060
3765.99463,0.00053
3763.93446,0.00035
3761.87429,0.00013
3759.81411,0.00004
3757.75394,0.00020
3755.69377,0.00043
3753.63360,0.00072
3751.57342,0.00123
3749.51325,0.00161
3747.45308,0.00152
3745.39291,0.00166
3743.33274,0.00200
3741.27256,0.00180
3739.21239,0.00136
3737.15222,0.00137
3735.09205,0.00189
3733.03188,0.00223
3730.97170,0.00213
3728.91153,0.00196
3726.85136,0.00189
3724.79119,0.00192
3722.73102,0.00196
3720.67084,0.00182
3718.61067,0.00179
3716.55050,0.00187
3714.49033,0.00163
3712.43015,0.00106
3710.36998,0.00075
3708.30981,0.00088
3706.24964,0.00092
3704.18947,0.00077
3702.12929,0.00060
3700.06912,0.00067
3698.00895,0.00110
3695.94878,0.00145
3693.88861,0.00125
3691.82843,0.00072
3689.76826,0.00077
3687.70809,0.00140
3685.64792,0.00171
3683.58775,0.00155
3681.52757,0.00124
3679.46740,0.00084
3677.40723,0.00068
3675.34706,0.00112
3673.28688,0.00156
3671.22671,0.00144
3669.16654,0.00130
3667.10637,0.00148
3665.04620,0.00168
3662.98602,0.00171
3660.92585,0.00164
3658.86568,0.00157
3656.80551,0.00153
3654.74534,0.00143
3652.68516,0.00124
3650.62499,0.00129
3648.56482,0.00181
3646.50465,0.00227
3644.44447,0.00269
3642.38430,0.00317
3640.32413,0.00344
3638.26396,0.00343
3636.20379,0.00333
3634.14361,0.00316
3632.08344,0.00299
3630.02327,0.00321
3627.96310,0.00385
3625.90293,0.00429
3623.84275,0.00442
3621.78258,0.00457
3619.72241,0.00481
3617.66224,0.00507
3615.60207,0.00535
3613.54189,0.00555
3611.48172,0.00550
3609.42155,0.00532
3607.36138,0.00533
3605.30120,0.00543
3603.24103,0.00544
3601.18086,0.00563
3599.12069,0.00600
3597.06052,0.00634
3595.00034,0.00662
3592.94017,0.00694
3590.88000,0.00719
3588.81983,0.00739
3586.75966,0.00745
3584.69948,0.00729
3582.63931,0.00719
3580.57914,0.00720
3578.51897,0.00732
3576.45879,0.00759
3574.39862,0.00788
3572.33845,0.00796
3570.27828,0.00778
3568.21811,0.00767
3566.15793,0.00798
3564.09776,0.00828
3562.03759,0.00843
3559.97742,0.00869
3557.91725,0.00909
3555.85707,0.00959
3553.79690,0.01009
3551.73673,0.01034
3549.67656,0.01042
3547.61639,0.01067
3545.55621,0.01085
3543.49604,0.01059
3541.43587,0.01023
3539.37570,0.01021
3537.31552,0.01057
3535.25535,0.01107
3533.19518,0.01145
3531.13501,0.01162
3529.07484,0.01185
3527.01466,0.01231
3524.95449,0.01258
3522.89432,0.01239
3520.83415,0.01216
3518.77398,0.01226
3516.71380,0.01238
3514.65363,0.01217
3512.59346,0.01187
3510.53329,0.01194
3508.47312,0.01240
3506.41294,0.01293
3504.35277,0.01343
3502.29260,0.01386
3500.23243,0.01401
3498.17225,0.01389
3496.11208,0.01373
3494.05191,0.01379
3491.99174,0.01408
3489.93157,0.01437
3487.87139,0.01457
3485.81122,0.01473
3483.75105,0.01491
3481.69088,0.01521
3479.63071,0.01540
3477.57053,0.01525
3475.51036,0.01513
3473.45019,0.01528
3471.39002,0.01547
3469.32984,0.01558
3467.26967,0.01574
3465.20950,0.01607
3463.14933,0.01636
3461.08916,0.01633
3459.02898,0.01619
3456.96881,0.01632
3454.90864,0.01656
3452.84847,0.01669
3450.78830,0.01674
3448.72812,0.01682
3446.66795,0.01710
3444.60778,0.01750
3442.54761,0.01763
3440.48744,0.01749
3438.42726,0.01733
3436.36709,0.01732
3434.30692,0.01748
3432.24675,0.01775
3430.18657,0.01795
3428.12640,0.01800
3426.06623,0.01793
3424.00606,0.01786
3421.94589,0.01802
3419.88571,0.01828
3417.82554,0.01849
3415.76537,0.01883
3413.70520,0.01914
3411.64503,0.01924
3409.58485,0.01912
3407.52468,0.01885
3405.46451,0.01882
3403.40434,0.01900
3401.34416,0.01909
3399.28399,0.01946
3397.22382,0.01979
3395.16365,0.01992
3393.10348,0.01997
3391.04330,0.02015
3388.98313,0.02033
3386.92296,0.02041
3384.86279,0.02043
3382.80262,0.02035
3380.74244,0.02029
3378.68227,0.02032
3376.62210,0.02043
3374.56193,0.02061
3372.50176,0.02074
3370.44158,0.02068
3368.38141,0.02061
3366.32124,0.02078
3364.26107,0.02105
3362.20089,0.02110
3360.14072,0.02091
3358.08055,0.02086
3356.02038,0.02096
3353.96021,0.02087
3351.90003,0.02073
3349.83986,0.02092
3347.77969,0.02123
3345.71952,0.02129
3343.65935,0.02118
3341.59917,0.02118
3339.53900,0.02128
3337.47883,0.02136
3335.41866,0.02138
3333.35849,0.02149
3331.29831,0.02164
3329.23814,0.02157
3327.17797,0.02136
3325.11780,0.02132
3323.05762,0.02149
3320.99745,0.02174
3318.93728,0.02192
3316.87711,0.02198
3314.81694,0.02195
3312.75676,0.02198
3310.69659,0.02219
3308.63642,0.02234
3306.57625,0.02219
3304.51608,0.02194
3302.45590,0.02181
3300.39573,0.02181
3298.33556,0.02184
3296.27539,0.02186
3294.21521,0.02202
3292.15504,0.02218
3290.09487,0.02202
3288.03470,0.02168
3285.97453,0.02151
3283.91435,0.02165
3281.85418,0.02208
3279.79401,0.02248
3277.73384,0.02248
3275.67367,0.02230
3273.61349,0.02229
3271.55332,0.02230
3269.49315,0.02227
3267.43298,0.02224
3265.37281,0.02220
3263.31263,0.02211
3261.25246,0.02206
3259.19229,0.02206
3257.13212,0.02221
3255.07194,0.02244
3253.01177,0.02244
3250.95160,0.02222
3248.89143,0.02223
3246.83126,0.02254
3244.77108,0.02279
3242.71091,0.02280
3240.65074,0.02267
3238.59057,0.02247
3236.53040,0.02218
3234.47022,0.02194
3232.41005,0.02199
3230.34988,0.02223
3228.28971,0.02253
3226.22954,0.02271
3224.16936,0.02254
3222.10919,0.02226
3220.04902,0.02222
3217.98885,0.02221
3215.92867,0.02211
3213.86850,0.02210
3211.80833,0.02214
3209.74816,0.02211
3207.68799,0.02210
3205.62781,0.02206
3203.56764,0.02201
3201.50747,0.02212
3199.44730,0.02220
3197.38713,0.02211
3195.32695,0.02205
3193.26678,0.02201
3191.20661,0.02180
3189.14644,0.02167
3187.08626,0.02187
3185.02609,0.02212
3182.96592,0.02214
3180.90575,0.02204
3178.84558,0.02205
3176.78540,0.02208
3174.72523,0.02199
3172.66506,0.02182
3170.60489,0.02165
3168.54472,0.02153
3166.48454,0.02137
3164.42437,0.02113
3162.36420,0.02103
3160.30403,0.02123
3158.24386,0.02149
3156.18368,0.02162
3154.12351,0.02171
3152.06334,0.02161
3150.00317,0.02120
3147.94299,0.02087
3145.88282,0.02088
3143.82265,0.02094
3141.76248,0.02084
3139.70231,0.02073
3137.64213,0.02068
3135.58196,0.02059
3133.52179,0.02044
3131.46162,0.02033
3129.40145,0.02031
3127.34127,0.02023
3125.28110,0.02013
3123.22093,0.02016
3121.16076,0.02033
3119.10058,0.02048
3117.04041,0.02039
3114.98024,0.02016
3112.92007,0.02012
3110.85990,0.02022
3108.79972,0.02013
3106.73955,0.01991
3104.67938,0.01985
3102.61921,0.01988
3100.55904,0.01982
3098.49886,0.01974
3096.43869,0.01956
3094.37852,0.01923
3092.31835,0.01897
3090.25818,0.01893
3088.19800,0.01912
3086.13783,0.01939
3084.07766,0.01944
3082.01749,0.01928
3079.95731,0.01912
3077.89714,0.01901
3075.83697,0.01890
3073.77680,0.01882
3071.71663,0.01878
3069.65645,0.01865
3067.59628,0.01851
3065.53611,0.01846
3063.47594,0.01830
3061.41577,0.01813
3059.35559,0.01816
3057.29542,0.01814
3055.23525,0.01798
3053.17508,0.01792
3051.11491,0.01788
3049.05473,0.01783
3046.99456,0.01784
3044.93439,0.01783
3042.87422,0.01770
3040.81404,0.01750
3038.75387,0.01737
3036.69370,0.01731
3034.63353,0.01726
3032.57336,0.01728
3030.51318,0.01733
3028.45301,0.01731
3026.39284,0.01724
3024.33267,0.01705
3022.27250,0.01683
3020.21232,0.01678
3018.15215,0.01678
3016.09198,0.01660
3014.03181,0.01637
3011.97163,0.01635
3009.91146,0.01651
3007.85129,0.01659
3005.79112,0.01645
3003.73095,0.01627
3001.67077,0.01625
2999.61060,0.01624
2997.55043,0.01617
2995.49026,0.01610
2993.43009,0.01601
2991.36991,0.01592
2989.30974,0.01586
2987.24957,0.01581
2985.18940,0.01582
2983.12923,0.01589
2981.06905,0.01587
2979.00888,0.01573
2976.94871,0.01578
2974.88854,0.01599
2972.82836,0.01600
2970.76819,0.01585
2968.70802,0.01565
2966.64785,0.01548
2964.58768,0.01543
2962.52750,0.01547
2960.46733,0.01551
2958.40716,0.01558
2956.34699,0.01565
2954.28682,0.01559
2952.22664,0.01544
2950.16647,0.01526
2948.10630,0.01515
2946.04613,0.01520
2943.98596,0.01527
2941.92578,0.01530
2939.86561,0.01543
2937.80544,0.01554
2935.74527,0.01544
2933.68509,0.01529
2931.62492,0.01528
2929.56475,0.01537
2927.50458,0.01548
2925.44441,0.01562
2923.38423,0.01560
2921.32406,0.01525
2919.26389,0.01484
2917.20372,0.01463
2915.14355,0.01463
2913.08337,0.01475
2911.02320,0.01484
2908.96303,0.01472
2906.90286,0.01454
2904.84268,0.01442
2902.78251,0.01432
2900.72234,0.01423
2898.66217,0.01427
2896.60200,0.01430
2894.54182,0.01425
2892.48165,0.01426
2890.42148,0.01430
2888.36131,0.01425
2886.30114,0.01421
2884.24096,0.01428
2882.18079,0.01429
2880.12062,0.01414
2878.06045,0.01404
2876.00028,0.01408
2873.94010,0.01411
2871.87993,0.01407
2869.81976,0.01404
2867.75959,0.01399
2865.69941,0.01387
2863.63924,0.01373
2861.57907,0.01361
2859.51890,0.01354
2857.45873,0.01350
2855.39855,0.01337
2853.33838,0.01308
2851.27821,0.01276
2849.21804,0.01256
2847.15787,0.01250
2845.09769,0.01258
2843.03752,0.01263
2840.97735,0.01248
2838.91718,0.01236
2836.85700,0.01244
2834.79683,0.01250
2832.73666,0.01242
2830.67649,0.01229
2828.61632,0.01216
2826.55614,0.01209
2824.49597,0.01209
2822.43580,0.01216
2820.37563,0.01223
2818.31546,0.01218
2816.25528,0.01198
2814.19511,0.01173
2812.13494,0.01159
2810.07477,0.01152
2808.01460,0.01135
2805.95442,0.01114
2803.89425,0.01097
2801.83408,0.01083
2799.77391,0.01072
2797.71373,0.01072
2795.65356,0.01076
2793.59339,0.01072
2791.53322,0.01061
2789.47305,0.01054
2787.41287,0.01051
2785.35270,0.01045
2783.29253,0.01043
2781.23236,0.01044
2779.17219,0.01030
2777.11201,0.01014
2775.05184,0.01018
2772.99167,0.01017
2770.93150,0.01002
2768.87133,0.00993
2766.81115,0.00991
2764.75098,0.00989
2762.69081,0.00979
2760.63064,0.00956
2758.57046,0.00937
2756.51029,0.00942
2754.45012,0.00948
2752.38995,0.00930
2750.32978,0.00913
2748.26960,0.00916
2746.20943,0.00926
2744.14926,0.00921
2742.08909,0.00903
2740.02892,0.00894
2737.96874,0.00892
2735.90857,0.00876
2733.84840,0.00862
2731.78823,0.00873
2729.72805,0.00894
2727.66788,0.00900
2725.60771,0.00885
2723.54754,0.00870
2721.48737,0.00863
2719.42719,0.00858
2717.36702,0.00854
2715.30685,0.00853
2713.24668,0.00851
2711.18651,0.00837
2709.12633,0.00818
2707.06616,0.00806
2705.00599,0.00796
2702.94582,0.00785
2700.88565,0.00778
2698.82547,0.00779
2696.76530,0.00784
2694.70513,0.00781
2692.64496,0.00771
2690.58478,0.00765
2688.52461,0.00768
2686.46444,0.00776
2684.40427,0.00779
2682.34410,0.00771
2680.28392,0.00756
2678.22375,0.00742
2676.16358,0.00729
2674.10341,0.00715
2672.04324,0.00705
2669.98306,0.00699
2667.92289,0.00698
2665.86272,0.00704
2663.80255,0.00706
2661.74238,0.00700
2659.68220,0.00693
2657.62203,0.00693
2655.56186,0.00705
2653.50169,0.00715
2651.44151,0.00707
2649.38134,0.00693
2647.32117,0.00690
2645.26100,0.00697
2643.20083,0.00703
2641.14065,0.00702
2639.08048,0.00693
2637.02031,0.00685
2634.96014,0.00689
2632.89997,0.00693
2630.83979,0.00686
2628.77962,0.00673
2626.71945,0.00654
2624.65928,0.00638
2622.59910,0.00635
2620.53893,0.00634
2618.47876,0.00633
2616.41859,0.00638
2614.35842,0.00640
2612.29824,0.00634
2610.23807,0.00643
2608.17790,0.00658
2606.11773,0.00645
2604.05756,0.00613
2601.99738,0.00593
2599.93721,0.00590
2597.87704,0.00597
2595.81687,0.00610
2593.75670,0.00613
2591.69652,0.00614
2589.63635,0.00617
2587.57618,0.00619
2585.51601,0.00630
2583.45583,0.00639
2581.39566,0.00619
2579.33549,0.00599
2577.27532,0.00613
2575.21515,0.00624
2573.15497,0.00617
2571.09480,0.00614
2569.03463,0.00613
2566.97446,0.00616
2564.91429,0.00620
2562.85411,0.00600
2560.79394,0.00571
2558.73377,0.00565
2556.67360,0.00580
2554.61342,0.00592
2552.55325,0.00597
2550.49308,0.00601
2548.43291,0.00599
2546.37274,0.00585
2544.31256,0.00569
2542.25239,0.00561
2540.19222,0.00572
2538.13205,0.00610
2536.07188,0.00658
2534.01170,0.00700
2531.95153,0.00701
2529.89136,0.00634
2527.83119,0.00575
2525.77102,0.00596
2523.71084,0.00635
2521.65067,0.00630
2519.59050,0.00607
2517.53033,0.00605
2515.47015,0.00619
2513.40998,0.00621
2511.34981,0.00613
2509.28964,0.00601
2507.22947,0.00596
2505.16929,0.00612
2503.10912,0.00643
2501.04895,0.00670
2498.98878,0.00679
2496.92861,0.00663
2494.86843,0.00646
2492.80826,0.00649
2490.74809,0.00647
2488.68792,0.00645
2486.62775,0.00658
2484.56757,0.00678
2482.50740,0.00704
2480.44723,0.00711
2478.38706,0.00677
2476.32688,0.00642
2474.26671,0.00650
2472.20654,0.00690
2470.14637,0.00710
2468.08620,0.00703
2466.02602,0.00703
2463.96585,0.00705
2461.90568,0.00713
2459.84551,0.00734
2457.78534,0.00745
2455.72516,0.00742
2453.66499,0.00740
2451.60482,0.00733
2449.54465,0.00714
2447.48447,0.00704
2445.42430,0.00715
2443.36413,0.00724
2441.30396,0.00715
2439.24379,0.00698
2437.18361,0.00702
2435.12344,0.00731
2433.06327,0.00739
2431.00310,0.00716
2428.94293,0.00711
2426.88275,0.00733
2424.82258,0.00745
2422.76241,0.00739
2420.70224,0.00736
2418.64207,0.00737
2416.58189,0.00724
2414.52172,0.00693
2412.46155,0.00677
2410.40138,0.00694
2408.34120,0.00712
2406.28103,0.00720
2404.22086,0.00723
2402.16069,0.00716
2400.10052,0.00712
2398.04034,0.00630
2395.98017,0.00630
2393.92000,0.00671
2391.85983,0.00717
2389.79966,0.00771
2387.73948,0.00822
2385.67931,0.00848
2383.61914,0.00855
2381.55897,0.00864
2379.49880,0.00881
2377.43862,0.00889
2375.37845,0.00910
2373.31828,0.00896
2371.25811,0.00888
2369.19793,0.00944
2367.13776,0.01006
2365.07759,0.01042
2363.01742,0.01134
2360.95725,0.01021
2358.89707,0.01008
2356.83690,0.01056
2354.77673,0.01187
2352.71656,0.01237
2350.65639,0.01018
2348.59621,0.00855
2346.53604,0.01200
2344.47587,0.01183
2342.41570,0.01038
2340.35552,0.00978
2338.29535,0.00988
2336.23518,0.01017
2334.17501,0.01030
2332.11484,0.01060
2330.05466,0.01103
2327.99449,0.01210
2325.93432,0.01163
2323.87415,0.01135
2321.81398,0.01045
2319.75380,0.01028
2317.69363,0.00952
2315.63346,0.00933
2313.57329,0.00936
2311.51312,0.00912
2309.45294,0.00910
2307.39277,0.00925
2305.33260,0.00944
2303.27243,0.00948
2301.21225,0.00952
2299.15208,0.00919
2297.09191,0.00872
2295.03174,0.00855
2292.97157,0.00852
2290.91139,0.00839
2288.85122,0.00815
2286.79105,0.00775
2284.73088,0.00710
2282.67071,0.00632
2280.61053,0.00555
2278.55036,0.00500
2276.49019,0.00493
2274.43002,0.00530
2272.36984,0.00558
2270.30967,0.00544
2268.24950,0.00534
2266.18933,0.00541
2264.12916,0.00534
2262.06898,0.00530
2260.00881,0.00557
2257.94864,0.00569
2255.88847,0.00549
2253.82830,0.00549
2251.76812,0.00583
2249.70795,0.00579
2247.64778,0.00580
2245.58761,0.00563
2243.52744,0.00536
2241.46726,0.00508
2239.40709,0.00489
2237.34692,0.00496
2235.28675,0.00546
2233.22657,0.00586
2231.16640,0.00554
2229.10623,0.00500
2227.04606,0.00493
2224.98589,0.00477
2222.92571,0.00428
2220.86554,0.00419
2218.80537,0.00435
2216.74520,0.00409
2214.68503,0.00361
2212.62485,0.00349
2210.56468,0.00349
2208.50451,0.00328
2206.44434,0.00296
2204.38417,0.00283
2202.32399,0.00327
2200.26382,0.00399
2198.20365,0.00403
2196.14348,0.00340
2194.08330,0.00327
2192.02313,0.00363
2189.96296,0.00384
2187.90279,0.00412
2185.84262,0.00408
2183.78244,0.00341
2181.72227,0.00281
2179.66210,0.00241
2177.60193,0.00227
2175.54176,0.00243
2173.48158,0.00275
2171.42141,0.00339
2169.36124,0.00407
2167.30107,0.00452
2165.24089,0.00417
2163.18072,0.00271
2161.12055,0.00110
2159.06038,0.00045
2157.00021,0.00078
2154.94003,0.00112
2152.87986,0.00095
2150.81969,0.00111
2148.75952,0.00174
2146.69935,0.00177
2144.63917,0.00126
2142.57900,0.00078
2140.51883,0.00077
2138.45866,0.00123
2136.39849,0.00162
2134.33831,0.00200
2132.27814,0.00238
2130.21797,0.00262
2128.15780,0.00286
2126.09762,0.00296
2124.03745,0.00288
2121.97728,0.00284
2119.91711,0.00269
2117.85694,0.00226
2115.79676,0.00185
2113.73659,0.00188
2111.67642,0.00224
2109.61625,0.00262
2107.55608,0.00292
2105.49590,0.00287
2103.43573,0.00254
2101.37556,0.00238
2099.31539,0.00222
2097.25521,0.00200
2095.19504,0.00191
2093.13487,0.00234
2091.07470,0.00280
2089.01453,0.00286
2086.95435,0.00292
2084.89418,0.00321
2082.83401,0.00309
2080.77384,0.00230
2078.71367,0.00154
2076.65349,0.00151
2074.59332,0.00201
2072.53315,0.00239
2070.47298,0.00232
2068.41281,0.00209
2066.35263,0.00225
2064.29246,0.00254
2062.23229,0.00213
2060.17212,0.00128
2058.11194,0.00091
2056.05177,0.00123
2053.99160,0.00191
2051.93143,0.00228
2049.87126,0.00214
2047.81108,0.00198
2045.75091,0.00191
2043.69074,0.00201
2041.63057,0.00210
2039.57040,0.00198
2037.51022,0.00171
2035.45005,0.00132
2033.38988,0.00081
2031.32971,0.00034
2029.26954,0.00059
2027.20936,0.00130
2025.14919,0.00145
2023.08902,0.00114
2021.02885,0.00084
2018.96867,0.00082
2016.90850,0.00176
2014.84833,0.00303
2012.78816,0.00293
2010.72799,0.00233
2008.66781,0.00246
2006.60764,0.00225
2004.54747,0.00180
2002.48730,0.00190
2000.42713,0.00166
1998.36695,0.00080
1996.30678,0.00046
1994.24661,0.00122
1992.18644,0.00257
1990.12626,0.00341
1988.06609,0.00332
1986.00592,0.00277
1983.94575,0.00226
1981.88558,0.00183
1979.82540,0.00110
1977.76523,0.00026
1975.70506,0.00000
1973.64489,0.00076
1971.58472,0.00183
1969.52454,0.00216
1967.46437,0.00216
1965.40420,0.00227
1963.34403,0.00205
1961.28386,0.00136
1959.22368,0.00078
1957.16351,0.00093
1955.10334,0.00161
1953.04317,0.00212
1950.98299,0.00204
1948.92282,0.00159
1946.86265,0.00153
1944.80248,0.00202
1942.74231,0.00243
1940.68213,0.00264
1938.62196,0.00277
1936.56179,0.00269
1934.50162,0.00232
1932.44145,0.00181
1930.38127,0.00145
1928.32110,0.00143
1926.26093,0.00158
1924.20076,0.00174
1922.14059,0.00210
1920.08041,0.00260
1918.02024,0.00279
1915.96007,0.00269
1913.89990,0.00270
1911.83972,0.00274
1909.77955,0.00255
1907.71938,0.00233
1905.65921,0.00230
1903.59904,0.00240
1901.53886,0.00236
1899.47869,0.00212
1897.41852,0.00215
1895.35835,0.00265
1893.29818,0.00305
1891.23800,0.00300
1889.17783,0.00288
1887.11766,0.00301
1885.05749,0.00319
1882.99731,0.00329
1880.93714,0.00348
1878.87697,0.00362
1876.81680,0.00343
1874.75663,0.00314
1872.69645,0.00298
1870.63628,0.00291
1868.57611,0.00311
1866.51594,0.00344
1864.45577,0.00352
1862.39559,0.00348
1860.33542,0.00362
1858.27525,0.00379
1856.21508,0.00371
1854.15491,0.00346
1852.09473,0.00326
1850.03456,0.00326
1847.97439,0.00347
1845.91422,0.00374
1843.85404,0.00400
1841.79387,0.00425
1839.73370,0.00424
1837.67353,0.00398
1835.61336,0.00383
1833.55318,0.00374
1831.49301,0.00340
1829.43284,0.00319
1827.37267,0.00357
1825.31250,0.00414
1823.25232,0.00447
1821.19215,0.00454
1819.13198,0.00446
1817.07181,0.00434
1815.01163,0.00422
1812.95146,0.00419
1810.89129,0.00439
1808.83112,0.00471
1806.77095,0.00488
1804.71077,0.00489
1802.65060,0.00491
1800.59043,0.00493
1798.53026,0.00485
1796.47009,0.00473
1794.40991,0.00474
1792.34974,0.00498
1790.28957,0.00526
1788.22940,0.00534
1786.16923,0.00530
1784.10905,0.00514
1782.04888,0.00492
1779.98871,0.00487
1777.92854,0.00493
1775.86836,0.00476
1773.80819,0.00434
1771.74802,0.00429
1769.68785,0.00490
1767.62768,0.00549
1765.56750,0.00562
1763.50733,0.00562
1761.44716,0.00582
1759.38699,0.00608
1757.32682,0.00623
1755.26664,0.00623
1753.20647,0.00616
1751.14630,0.00612
1749.08613,0.00610
1747.02596,0.00615
1744.96578,0.00629
1742.90561,0.00640
1740.84544,0.00643
1738.78527,0.00647
1736.72509,0.00653
1734.66492,0.00660
1732.60475,0.00667
1730.54458,0.00666
1728.48441,0.00663
1726.42423,0.00653
1724.36406,0.00644
1722.30389,0.00638
1720.24372,0.00619
1718.18355,0.00610
1716.12337,0.00647
1714.06320,0.00681
1712.00303,0.00686
1709.94286,0.00675
1707.88268,0.00662
1705.82251,0.00663
1703.76234,0.00673
1701.70217,0.00667
1699.64200,0.00677
1697.58182,0.00731
1695.52165,0.00807
1693.46148,0.00867
1691.40131,0.00899
1689.34114,0.00906
1687.28096,0.00891
1685.22079,0.00896
1683.16062,0.00983
1681.10045,0.01075
1679.04028,0.01103
1676.98010,0.01100
1674.91993,0.01111
1672.85976,0.01129
1670.79959,0.01151
1668.73941,0.01198
1666.67924,0.01235
1664.61907,0.01240
1662.55890,0.01259
1660.49873,0.01311
1658.43855,0.01339
1656.37838,0.01310
1654.31821,0.01283
1652.25804,0.01331
1650.19787,0.01358
1648.13769,0.01339
1646.07752,0.01344
1644.01735,0.01375
1641.95718,0.01369
1639.89701,0.01309
1637.83683,0.01235
1635.77666,0.01213
1633.71649,0.01241
1631.65632,0.01253
1629.59614,0.01232
1627.53597,0.01195
1625.47580,0.01155
1623.41563,0.01128
1621.35546,0.01114
1619.29528,0.01082
1617.23511,0.01042
1615.17494,0.01045
1613.11477,0.01059
1611.05460,0.01042
1608.99442,0.01013
1606.93425,0.01001
1604.87408,0.01002
1602.81391,0.01005
1600.75373,0.01005
1598.69356,0.00989
1596.63339,0.00959
1594.57322,0.00937
1592.51305,0.00931
1590.45287,0.00925
1588.39270,0.00906
1586.33253,0.00879
1584.27236,0.00851
1582.21219,0.00822
1580.15201,0.00785
1578.09184,0.00742
1576.03167,0.00734
1573.97150,0.00765
1571.91133,0.00770
1569.85115,0.00743
1567.79098,0.00730
1565.73081,0.00738
1563.67064,0.00729
1561.61046,0.00675
1559.55029,0.00637
1557.49012,0.00715
1555.42995,0.00791
1553.36978,0.00800
1551.30960,0.00781
1549.24943,0.00758
1547.18926,0.00724
1545.12909,0.00671
1543.06892,0.00597
1541.00874,0.00551
1538.94857,0.00595
1536.88840,0.00645
1534.82823,0.00644
1532.76805,0.00624
1530.70788,0.00609
1528.64771,0.00590
1526.58754,0.00581
1524.52737,0.00578
1522.46719,0.00568
1520.40702,0.00563
1518.34685,0.00562
1516.28668,0.00567
1514.22651,0.00575
1512.16633,0.00572
1510.10616,0.00546
1508.04599,0.00498
1505.98582,0.00461
1503.92565,0.00448
1501.86547,0.00431
1499.80530,0.00393
1497.74513,0.00364
1495.68496,0.00360
1493.62478,0.00356
1491.56461,0.00341
1489.50444,0.00329
1487.44427,0.00326
1485.38410,0.00324
1483.32392,0.00318
1481.26375,0.00316
1479.20358,0.00317
1477.14341,0.00312
1475.08324,0.00307
1473.02306,0.00319
1470.96289,0.00345
1468.90272,0.00355
1466.84255,0.00350
1464.78238,0.00358
1462.72220,0.00377
1460.66203,0.00371
1458.60186,0.00359
1456.54169,0.00388
1454.48151,0.00419
1452.42134,0.00426
1450.36117,0.00419
1448.30100,0.00408
1446.24083,0.00401
1444.18065,0.00401
1442.12048,0.00404
1440.06031,0.00404
1438.00014,0.00404
1435.93997,0.00417
1433.87979,0.00425
1431.81962,0.00423
1429.75945,0.00432
1427.69928,0.00455
1425.63910,0.00476
1423.57893,0.00494
1421.51876,0.00525
1419.45859,0.00584
1417.39842,0.00641
1415.33824,0.00656
1413.27807,0.00650
1411.21790,0.00652
1409.15773,0.00660
1407.09756,0.00666
1405.03738,0.00677
1402.97721,0.00687
1400.91704,0.00685
1398.85687,0.00685
1396.79670,0.00695
1394.73652,0.00703
1392.67635,0.00697
1390.61618,0.00686
1388.55601,0.00685
1386.49583,0.00690
1384.43566,0.00684
1382.37549,0.00675
1380.31532,0.00670
1378.25515,0.00659
1376.19497,0.00647
1374.13480,0.00661
1372.07463,0.00689
1370.01446,0.00694
1367.95429,0.00681
1365.89411,0.00672
1363.83394,0.00680
1361.77377,0.00688
1359.71360,0.00671
1357.65343,0.00647
1355.59325,0.00633
1353.53308,0.00623
1351.47291,0.00604
1349.41274,0.00578
1347.35256,0.00550
1345.29239,0.00532
1343.23222,0.00528
1341.17205,0.00526
1339.11188,0.00514
1337.05170,0.00480
1334.99153,0.00433
1332.93136,0.00393
1330.87119,0.00368
1328.81102,0.00356
1326.75084,0.00347
1324.69067,0.00332
1322.63050,0.00311
1320.57033,0.00299
1318.51015,0.00299
1316.44998,0.00301
1314.38981,0.00289
1312.32964,0.00268
1310.26947,0.00249
1308.20929,0.00230
1306.14912,0.00210
1304.08895,0.00203
1302.02878,0.00206
1299.96861,0.00215
1297.90843,0.00223
1295.84826,0.00216
1293.78809,0.00196
1291.72792,0.00181
1289.66775,0.00182
1287.60757,0.00189
1285.54740,0.00182
1283.48723,0.00162
1281.42706,0.00153
1279.36688,0.00160
1277.30671,0.00165
1275.24654,0.00162
1273.18637,0.00160
1271.12620,0.00162
1269.06602,0.00160
1267.00585,0.00152
1264.94568,0.00147
1262.88551,0.00146
1260.82534,0.00145
1258.76516,0.00150
1256.70499,0.00163
1254.64482,0.00168
1252.58465,0.00161
1250.52447,0.00161
1248.46430,0.00166
1246.40413,0.00159
1244.34396,0.00145
1242.28379,0.00130
1240.22361,0.00111
1238.16344,0.00089
1236.10327,0.00080
1234.04310,0.00087
1231.98293,0.00094
1229.92275,0.00089
1227.86258,0.00071
1225.80241,0.00051
1223.74224,0.00035
1221.68207,0.00017
1219.62189,0.00000
1217.56172,-0.00001
1215.50155,0.00010
1213.44138,0.00008
1211.38120,0.00000
1209.32103,0.00003
1207.26086,0.00006
1205.20069,0.00004
1203.14052,0.00013
1201.08034,0.00040
1199.02017,0.00073
1196.96000,0.00104
1194.89983,0.00140
1192.83966,0.00187
1190.77948,0.00251
1188.71931,0.00334
1186.65914,0.00426
1184.59897,0.00524
1182.53880,0.00627
1180.47862,0.00719
1178.41845,0.00812
1176.35828,0.00922
1174.29811,0.01030
1172.23793,0.01115
1170.17776,0.01184
1168.11759,0.01249
1166.05742,0.01328
1163.99725,0.01417
1161.93707,0.01495
1159.87690,0.01568
1157.81673,0.01643
1155.75656,0.01719
1153.69639,0.01794
1151.63621,0.01866
1149.57604,0.01932
1147.51587,0.01998
1145.45570,0.02060
1143.39552,0.02108
1141.33535,0.02140
1139.27518,0.02175
1137.21501,0.02216
1135.15484,0.02237
1133.09466,0.02235
1131.03449,0.02239
1128.97432,0.02261
1126.91415,0.02292
1124.85398,0.02333
1122.79380,0.02391
1120.73363,0.02466
1118.67346,0.02545
1116.61329,0.02618
1114.55312,0.02685
1112.49294,0.02755
1110.43277,0.02837
1108.37260,0.02929
1106.31243,0.03019
1104.25225,0.03109
1102.19208,0.03214
1100.13191,0.03324
1098.07174,0.03422
1096.01157,0.03512
1093.95139,0.03605
1091.89122,0.03699
1089.83105,0.03790
1087.77088,0.03888
1085.71071,0.04004
1083.65053,0.04122
1081.59036,0.04218
1079.53019,0.04292
1077.47002,0.04365
1075.40985,0.04445
1073.34967,0.04516
1071.28950,0.04569
1069.22933,0.04606
1067.16916,0.04624
1065.10898,0.04619
1063.04881,0.04599
1060.98864,0.04574
1058.92847,0.04534
1056.86830,0.04470
1054.80812,0.04398
1052.74795,0.04315
1050.68778,0.04208
1048.62761,0.04073
1046.56744,0.03924
1044.50726,0.03782
1042.44709,0.03651
1040.38692,0.03511
1038.32675,0.03362
1036.26657,0.03231
1034.20640,0.03118
1032.14623,0.02979
1030.08606,0.02807
1028.02589,0.02649
1025.96571,0.02511
1023.90554,0.02376
1021.84537,0.02254
1019.78520,0.02157
1017.72503,0.02080
1015.66485,0.02018
1013.60468,0.01984
1011.54451,0.01984
1009.48434,0.01998
1007.42417,0.02025
1005.36399,0.02072
1003.30382,0.02137
1001.24365,0.02214
999.18348,0.02308
997.12330,0.02405
995.06313,0.02473
993.00296,0.02518
990.94279,0.02566
988.88262,0.02614
986.82244,0.02655
984.76227,0.02695
982.70210,0.02728
980.64193,0.02738
978.58176,0.02754
976.52158,0.02783
974.46141,0.02781
972.40124,0.02745
970.34107,0.02719
968.28089,0.02707
966.22072,0.02683
964.16055,0.02651
962.10038,0.02612
960.04021,0.02568
957.98003,0.02528
955.91986,0.02487
953.85969,0.02456
951.79952,0.02427
949.73935,0.02399
947.67917,0.02378
945.61900,0.02345
943.55883,0.02292
941.49866,0.02228
939.43849,0.02170
937.37831,0.02117
935.31814,0.02052
933.25797,0.01981
931.19780,0.01919
929.13762,0.01862
927.07745,0.01802
925.01728,0.01741
922.95711,0.01669
920.89694,0.01585
918.83676,0.01504
916.77659,0.01427
914.71642,0.01358
912.65625,0.01306
910.59608,0.01247
908.53590,0.01172
906.47573,0.01103
904.41556,0.01051
902.35539,0.01011
900.29522,0.00987
898.23504,0.00981
896.17487,0.00979
894.11470,0.00992
892.05453,0.01023
889.99435,0.01056
887.93418,0.01100
885.87401,0.01170
883.81384,0.01245
881.75367,0.01311
879.69349,0.01378
877.63332,0.01465
875.57315,0.01588
873.51298,0.01730
871.45281,0.01867
869.39263,0.02007
867.33246,0.02156
865.27229,0.02299
863.21212,0.02428
861.15194,0.02542
859.09177,0.02637
857.03160,0.02704
854.97143,0.02721
852.91126,0.02685
850.85108,0.02645
848.79091,0.02616
846.73074,0.02575
844.67057,0.02522
842.61040,0.02444
840.55022,0.02330
838.49005,0.02208
836.42988,0.02100
834.36971,0.02014
832.30954,0.01947
830.24936,0.01875
828.18919,0.01788
826.12902,0.01713
824.06885,0.01650
822.00867,0.01579
819.94850,0.01526
817.88833,0.01504
815.82816,0.01471
813.76799,0.01399
811.70781,0.01308
809.64764,0.01239
807.58747,0.01211
805.52730,0.01204
803.46713,0.01182
801.40695,0.01154
799.34678,0.01132
797.28661,0.01097
795.22644,0.01062
793.16627,0.01039
791.10609,0.01006
789.04592,0.00974
786.98575,0.00960
784.92558,0.00942
782.86540,0.00926
780.80523,0.00925
778.74506,0.00908
776.68489,0.00866
774.62472,0.00830
772.56454,0.00815
770.50437,0.00801
768.44420,0.00777
766.38403,0.00757
764.32386,0.00721
762.26368,0.00668
760.20351,0.00649
758.14334,0.00635
756.08317,0.00594
754.02299,0.00591
751.96282,0.00650
749.90265,0.00688
747.84248,0.00661
745.78231,0.00615
743.72213,0.00578
741.66196,0.00578
739.60179,0.00598
737.54162,0.00592
735.48145,0.00570
733.42127,0.00538
731.36110,0.00475
729.30093,0.00420
727.24076,0.00435
725.18059,0.00496
723.12041,0.00556
721.06024,0.00559
719.00007,0.00495
716.93990,0.00471
714.87972,0.00452
712.81955,0.00431
710.75938,0.00425
708.69921,0.00450
706.63904,0.00505
704.57886,0.00549
702.51869,0.00541
700.45852,0.00502
698.39835,0.00477
696.33818,0.00458
694.27800,0.00412
692.21783,0.00367
690.15766,0.00348
688.09749,0.00337
686.03731,0.00356
683.97714,0.00420
681.91697,0.00463
679.85680,0.00413
677.79663,0.00350
675.73645,0.00401
673.67628,0.00404
671.61611,0.00018
669.55594,0.00045
667.49577,0.00838
665.43559,0.00000
663.37542,0.00199
661.31525,0.00430
659.25508,0.00430
657.19491,0.00382
655.13473,0.00325
653.07456,0.00277
651.01439,0.00300
648.95422,0.00405
646.89404,0.00432
644.83387,0.00344
642.77370,0.00211
640.71353,0.00181
638.65336,0.00257
636.59318,0.00275
634.53301,0.00218
632.47284,0.00207
630.41267,0.00242
628.35250,0.00279
626.29232,0.00288
624.23215,0.00220
622.17198,0.00065
620.11181,0.00000
618.05164,0.00065
615.99146,0.00108
613.93129,0.00201
611.87112,0.00333
609.81095,0.00330
607.75077,0.00250
605.69060,0.00167
603.63043,0.00059
601.57026,-0.00025
599.51009,0.00000
