3996.73391,0.00000
3994.67373,0.00033
3992.61356,0.00063
3990.55339,0.00067
3988.49322,0.00040
3986.43305,0.00022
3984.37287,0.00037
3982.31270,0.00054
3980.25253,0.00051
3978.19236,0.00040
3976.13219,0.00038
3974.07201,0.00047
3972.01184,0.00058
3969.95167,0.00058
3967.89150,0.00049
3965.83133,0.00048
3963.77115,0.00059
3961.71098,0.00067
3959.65081,0.00070
3957.59064,0.00066
3955.53046,0.00053
3953.47029,0.00043
3951.41012,0.00062
3949.34995,0.00104
3947.28978,0.00129
3945.22960,0.00134
3943.16943,0.00140
3941.10926,0.00138
3939.04909,0.00114
3936.98892,0.00090
3934.92874,0.00087
3932.86857,0.00098
3930.80840,0.00101
3928.74823,0.00112
3926.68805,0.00129
3924.62788,0.00128
3922.56771,0.00112
3920.50754,0.00112
3918.44737,0.00118
3916.38719,0.00100
3914.32702,0.00072
3912.26685,0.00061
3910.20668,0.00064
3908.14651,0.00083
3906.08633,0.00113
3904.02616,0.00127
3901.96599,0.00120
3899.90582,0.00116
3897.84565,0.00136
3895.78547,0.00172
3893.72530,0.00177
3891.66513,0.00127
3889.60496,0.00093
3887.54478,0.00130
3885.48461,0.00171
3883.42444,0.00164
3881.36427,0.00137
3879.30410,0.00121
3877.24392,0.00123
3875.18375,0.00122
3873.12358,0.00117
3871.06341,0.00118
3869.00324,0.00119
3866.94306,0.00129
3864.88289,0.00113
3862.82272,0.00063
3860.76255,0.00048
3858.70237,0.00096
3856.64220,0.00173
3854.58203,0.00180
3852.52186,0.00069
3850.46169,0.00004
3848.40151,0.00052
3846.34134,0.00109
3844.28117,0.00123
3842.22100,0.00127
3840.16083,0.00147
3838.10065,0.00168
3836.04048,0.00169
3833.98031,0.00151
3831.92014,0.00126
3829.85997,0.00108
3827.79979,0.00106
3825.73962,0.00116
3823.67945,0.00122
3821.61928,0.00102
3819.55910,0.00082
3817.49893,0.00098
3815.43876,0.00118
3813.37859,0.00130
3811.31842,0.00153
3809.25824,0.00171
3807.19807,0.00154
3805.13790,0.00105
3803.07773,0.00044
3801.01756,0.00000
3798.95738,0.00019
3796.89721,0.00078
3794.83704,0.00119
3792.77687,0.00127
3790.71670,0.00127
3788.65652,0.00138
3786.59635,0.00139
3784.53618,0.00121
3782.47601,0.00107
3780.41583,0.00092
3778.35566,0.00076
3776.29549,0.00088
3774.23532,0.00119
3772.17515,0.00134
3770.11497,0.00130
3768.05480,0.00126
3765.99463,0.00108
3763.93446,0.00069
3761.87429,0.00040
3759.81411,0.00043
3757.75394,0.00078
3755.69377,0.00128
3753.63360,0.00160
3751.57342,0.00154
3749.51325,0.00136
3747.45308,0.00158
3745.39291,0.00188
3743.33274,0.00147
3741.27256,0.00111
3739.21239,0.00171
3737.15222,0.00262
3735.09205,0.00272
3733.03188,0.00193
3730.97170,0.00158
3728.91153,0.00200
3726.85136,0.00242
3724.79119,0.00247
3722.73102,0.00231
3720.67084,0.00215
3718.61067,0.00218
3716.55050,0.00255
3714.49033,0.00268
3712.43015,0.00188
3710.36998,0.00098
3708.30981,0.00088
3706.24964,0.00114
3704.18947,0.00116
3702.12929,0.00096
3700.06912,0.00110
3698.00895,0.00162
3695.94878,0.00200
3693.88861,0.00197
3691.82843,0.00165
3689.76826,0.00131
3687.70809,0.00126
3685.64792,0.00134
3683.58775,0.00150
3681.52757,0.00166
3679.46740,0.00171
3677.40723,0.00162
3675.34706,0.00155
3673.28688,0.00180
3671.22671,0.00201
3669.16654,0.00176
3667.10637,0.00160
3665.04620,0.00177
3662.98602,0.00196
3660.92585,0.00213
3658.86568,0.00228
3656.80551,0.00229
3654.74534,0.00223
3652.68516,0.00226
3650.62499,0.00221
3648.56482,0.00218
3646.50465,0.00242
3644.44447,0.00292
3642.38430,0.00347
3640.32413,0.00384
3638.26396,0.00410
3636.20379,0.00434
3634.14361,0.00455
3632.08344,0.00484
3630.02327,0.00495
3627.96310,0.00458
3625.90293,0.00441
3623.84275,0.00494
3621.78258,0.00548
3619.72241,0.00539
3617.66224,0.00505
3615.60207,0.00517
3613.54189,0.00579
3611.48172,0.00634
3609.42155,0.00642
3607.36138,0.00617
3605.30120,0.00599
3603.24103,0.00608
3601.18086,0.00645
3599.12069,0.00708
3597.06052,0.00772
3595.00034,0.00811
3592.94017,0.00834
3590.88000,0.00860
3588.81983,0.00867
3586.75966,0.00848
3584.69948,0.00839
3582.63931,0.00856
3580.57914,0.00881
3578.51897,0.00908
3576.45879,0.00939
3574.39862,0.00968
3572.33845,0.00987
3570.27828,0.00995
3568.21811,0.00991
3566.15793,0.00981
3564.09776,0.00978
3562.03759,0.00994
3559.97742,0.01029
3557.91725,0.01080
3555.85707,0.01138
3553.79690,0.01179
3551.73673,0.01187
3549.67656,0.01199
3547.61639,0.01245
3545.55621,0.01276
3543.49604,0.01250
3541.43587,0.01219
3539.37570,0.01227
3537.31552,0.01261
3535.25535,0.01297
3533.19518,0.01321
3531.13501,0.01333
3529.07484,0.01364
3527.01466,0.01418
3524.95449,0.01447
3522.89432,0.01428
3520.83415,0.01414
3518.77398,0.01431
3516.71380,0.01444
3514.65363,0.01436
3512.59346,0.01433
3510.53329,0.01462
3508.47312,0.01498
3506.41294,0.01512
3504.35277,0.01530
3502.29260,0.01583
3500.23243,0.01640
3498.17225,0.01666
3496.11208,0.01659
3494.05191,0.01640
3491.99174,0.01648
3489.93157,0.01686
3487.87139,0.01721
3485.81122,0.01741
3483.75105,0.01755
3481.69088,0.01775
3479.63071,0.01786
3477.57053,0.01771
3475.51036,0.01753
3473.45019,0.01753
3471.39002,0.01776
3469.32984,0.01811
3467.26967,0.01845
3465.20950,0.01873
3463.14933,0.01896
3461.08916,0.01900
3459.02898,0.01897
3456.96881,0.01913
3454.90864,0.01945
3452.84847,0.01974
3450.78830,0.01985
3448.72812,0.01982
3446.66795,0.01986
3444.60778,0.02005
3442.54761,0.02027
3440.48744,0.02051
3438.42726,0.02069
3436.36709,0.02073
3434.30692,0.02075
3432.24675,0.02080
3430.18657,0.02090
3428.12640,0.02100
3426.06623,0.02097
3424.00606,0.02092
3421.94589,0.02115
3419.88571,0.02149
3417.82554,0.02166
3415.76537,0.02181
3413.70520,0.02196
3411.64503,0.02207
3409.58485,0.02219
3407.52468,0.02221
3405.46451,0.02232
3403.40434,0.02271
3401.34416,0.02305
3399.28399,0.02341
3397.22382,0.02354
3395.16365,0.02360
3393.10348,0.02358
3391.04330,0.02355
3388.98313,0.02359
3386.92296,0.02376
3384.86279,0.02392
3382.80262,0.02379
3380.74244,0.02356
3378.68227,0.02358
3376.62210,0.02375
3374.56193,0.02392
3372.50176,0.02405
3370.44158,0.02419
3368.38141,0.02445
3366.32124,0.02467
3364.26107,0.02458
3362.20089,0.02435
3360.14072,0.02424
3358.08055,0.02442
3356.02038,0.02473
3353.96021,0.02479
3351.90003,0.02467
3349.83986,0.02470
3347.77969,0.02486
3345.71952,0.02492
3343.65935,0.02485
3341.59917,0.02485
3339.53900,0.02495
3337.47883,0.02504
3335.41866,0.02502
3333.35849,0.02506
3331.29831,0.02526
3329.23814,0.02540
3327.17797,0.02538
3325.11780,0.02532
3323.05762,0.02530
3320.99745,0.02536
3318.93728,0.02544
3316.87711,0.02556
3314.81694,0.02580
3312.75676,0.02613
3310.69659,0.02634
3308.63642,0.02619
3306.57625,0.02583
3304.51608,0.02573
3302.45590,0.02587
3300.39573,0.02599
3298.33556,0.02606
3296.27539,0.02611
3294.21521,0.02620
3292.15504,0.02642
3290.09487,0.02655
3288.03470,0.02635
3285.97453,0.02612
3283.91435,0.02621
3281.85418,0.02654
3279.79401,0.02679
3277.73384,0.02675
3275.67367,0.02649
3273.61349,0.02626
3271.55332,0.02640
3269.49315,0.02674
3267.43298,0.02683
3265.37281,0.02669
3263.31263,0.02663
3261.25246,0.02665
3259.19229,0.02670
3257.13212,0.02690
3255.07194,0.02707
3253.01177,0.02689
3250.95160,0.02663
3248.89143,0.02676
3246.83126,0.02705
3244.77108,0.02701
3242.71091,0.02681
3240.65074,0.02687
3238.59057,0.02701
3236.53040,0.02688
3234.47022,0.02666
3232.41005,0.02671
3230.34988,0.02688
3228.28971,0.02698
3226.22954,0.02690
3224.16936,0.02671
3222.10919,0.02664
3220.04902,0.02667
3217.98885,0.02670
3215.92867,0.02670
3213.86850,0.02666
3211.80833,0.02668
3209.74816,0.02676
3207.68799,0.02674
3205.62781,0.02664
3203.56764,0.02659
3201.50747,0.02672
3199.44730,0.02691
3197.38713,0.02697
3195.32695,0.02697
3193.26678,0.02694
3191.20661,0.02676
3189.14644,0.02665
3187.08626,0.02678
3185.02609,0.02694
3182.96592,0.02693
3180.90575,0.02682
3178.84558,0.02671
3176.78540,0.02658
3174.72523,0.02648
3172.66506,0.02640
3170.60489,0.02630
3168.54472,0.02621
3166.48454,0.02620
3164.42437,0.02620
3162.36420,0.02613
3160.30403,0.02604
3158.24386,0.02604
3156.18368,0.02616
3154.12351,0.02622
3152.06334,0.02609
3150.00317,0.02591
3147.94299,0.02591
3145.88282,0.02597
3143.82265,0.02586
3141.76248,0.02574
3139.70231,0.02574
3137.64213,0.02566
3135.58196,0.02546
3133.52179,0.02525
3131.46162,0.02515
3129.40145,0.02515
3127.34127,0.02508
3125.28110,0.02509
3123.22093,0.02522
3121.16076,0.02531
3119.10058,0.02526
3117.04041,0.02504
3114.98024,0.02487
3112.92007,0.02486
3110.85990,0.02476
3108.79972,0.02444
3106.73955,0.02418
3104.67938,0.02417
3102.61921,0.02431
3100.55904,0.02439
3098.49886,0.02431
3096.43869,0.02419
3094.37852,0.02415
3092.31835,0.02408
3090.25818,0.02391
3088.19800,0.02379
3086.13783,0.02381
3084.07766,0.02383
3082.01749,0.02385
3079.95731,0.02380
3077.89714,0.02361
3075.83697,0.02340
3073.77680,0.02326
3071.71663,0.02321
3069.65645,0.02314
3067.59628,0.02304
3065.53611,0.02292
3063.47594,0.02276
3061.41577,0.02263
3059.35559,0.02254
3057.29542,0.02244
3055.23525,0.02239
3053.17508,0.02240
3051.11491,0.02234
3049.05473,0.02217
3046.99456,0.02201
3044.93439,0.02188
3042.87422,0.02168
3040.81404,0.02144
3038.75387,0.02129
3036.69370,0.02122
3034.63353,0.02125
3032.57336,0.02140
3030.51318,0.02145
3028.45301,0.02127
3026.39284,0.02102
3024.33267,0.02079
3022.27250,0.02062
3020.21232,0.02050
3018.15215,0.02040
3016.09198,0.02032
3014.03181,0.02022
3011.97163,0.02010
3009.91146,0.02000
3007.85129,0.01989
3005.79112,0.01983
3003.73095,0.01988
3001.67077,0.01994
2999.61060,0.01977
2997.55043,0.01955
2995.49026,0.01952
2993.43009,0.01952
2991.36991,0.01938
2989.30974,0.01923
2987.24957,0.01912
2985.18940,0.01913
2983.12923,0.01911
2981.06905,0.01896
2979.00888,0.01895
2976.94871,0.01916
2974.88854,0.01923
2972.82836,0.01909
2970.76819,0.01902
2968.70802,0.01896
2966.64785,0.01877
2964.58768,0.01863
2962.52750,0.01869
2960.46733,0.01876
2958.40716,0.01872
2956.34699,0.01864
2954.28682,0.01856
2952.22664,0.01845
2950.16647,0.01830
2948.10630,0.01819
2946.04613,0.01827
2943.98596,0.01838
2941.92578,0.01830
2939.86561,0.01821
2937.80544,0.01814
2935.74527,0.01795
2933.68509,0.01776
2931.62492,0.01779
2929.56475,0.01797
2927.50458,0.01810
2925.44441,0.01813
2923.38423,0.01800
2921.32406,0.01763
2919.26389,0.01718
2917.20372,0.01686
2915.14355,0.01675
2913.08337,0.01683
2911.02320,0.01689
2908.96303,0.01676
2906.90286,0.01658
2904.84268,0.01640
2902.78251,0.01626
2900.72234,0.01624
2898.66217,0.01632
2896.60200,0.01640
2894.54182,0.01638
2892.48165,0.01625
2890.42148,0.01613
2888.36131,0.01606
2886.30114,0.01603
2884.24096,0.01608
2882.18079,0.01610
2880.12062,0.01597
2878.06045,0.01588
2876.00028,0.01585
2873.94010,0.01574
2871.87993,0.01566
2869.81976,0.01565
2867.75959,0.01553
2865.69941,0.01537
2863.63924,0.01532
2861.57907,0.01523
2859.51890,0.01511
2857.45873,0.01508
2855.39855,0.01500
2853.33838,0.01481
2851.27821,0.01456
2849.21804,0.01431
2847.15787,0.01412
2845.09769,0.01402
2843.03752,0.01396
2840.97735,0.01387
2838.91718,0.01380
2836.85700,0.01367
2834.79683,0.01344
2832.73666,0.01334
2830.67649,0.01338
2828.61632,0.01330
2826.55614,0.01318
2824.49597,0.01323
2822.43580,0.01337
2820.37563,0.01338
2818.31546,0.01327
2816.25528,0.01313
2814.19511,0.01293
2812.13494,0.01273
2810.07477,0.01259
2808.01460,0.01246
2805.95442,0.01230
2803.89425,0.01212
2801.83408,0.01194
2799.77391,0.01185
2797.71373,0.01191
2795.65356,0.01202
2793.59339,0.01197
2791.53322,0.01186
2789.47305,0.01179
2787.41287,0.01161
2785.35270,0.01143
2783.29253,0.01147
2781.23236,0.01151
2779.17219,0.01136
2777.11201,0.01122
2775.05184,0.01123
2772.99167,0.01123
2770.93150,0.01113
2768.87133,0.01100
2766.81115,0.01084
2764.75098,0.01068
2762.69081,0.01063
2760.63064,0.01061
2758.57046,0.01052
2756.51029,0.01049
2754.45012,0.01045
2752.38995,0.01026
2750.32978,0.01012
2748.26960,0.01012
2746.20943,0.01013
2744.14926,0.01010
2742.08909,0.01007
2740.02892,0.01001
2737.96874,0.00981
2735.90857,0.00951
2733.84840,0.00931
2731.78823,0.00938
2729.72805,0.00962
2727.66788,0.00979
2725.60771,0.00967
2723.54754,0.00938
2721.48737,0.00916
2719.42719,0.00902
2717.36702,0.00896
2715.30685,0.00899
2713.24668,0.00894
2711.18651,0.00883
2709.12633,0.00882
2707.06616,0.00884
2705.00599,0.00872
2702.94582,0.00856
2700.88565,0.00851
2698.82547,0.00854
2696.76530,0.00857
2694.70513,0.00853
2692.64496,0.00839
2690.58478,0.00823
2688.52461,0.00811
2686.46444,0.00805
2684.40427,0.00799
2682.34410,0.00789
2680.28392,0.00782
2678.22375,0.00779
2676.16358,0.00767
2674.10341,0.00749
2672.04324,0.00737
2669.98306,0.00726
2667.92289,0.00717
2665.86272,0.00718
2663.80255,0.00721
2661.74238,0.00728
2659.68220,0.00727
2657.62203,0.00715
2655.56186,0.00714
2653.50169,0.00724
2651.44151,0.00727
2649.38134,0.00721
2647.32117,0.00714
2645.26100,0.00712
2643.20083,0.00712
2641.14065,0.00717
2639.08048,0.00724
2637.02031,0.00713
2634.96014,0.00686
2632.89997,0.00666
2630.83979,0.00671
2628.77962,0.00680
2626.71945,0.00663
2624.65928,0.00639
2622.59910,0.00640
2620.53893,0.00646
2618.47876,0.00638
2616.41859,0.00636
2614.35842,0.00635
2612.29824,0.00624
2610.23807,0.00630
2608.17790,0.00652
2606.11773,0.00640
2604.05756,0.00596
2601.99738,0.00584
2599.93721,0.00603
2597.87704,0.00629
2595.81687,0.00642
2593.75670,0.00624
2591.69652,0.00600
2589.63635,0.00598
2587.57618,0.00603
2585.51601,0.00595
2583.45583,0.00586
2581.39566,0.00582
2579.33549,0.00584
2577.27532,0.00596
2575.21515,0.00589
2573.15497,0.00561
2571.09480,0.00546
2569.03463,0.00540
2566.97446,0.00542
2564.91429,0.00558
2562.85411,0.00566
2560.79394,0.00568
2558.73377,0.00588
2556.67360,0.00616
2554.61342,0.00620
2552.55325,0.00602
2550.49308,0.00596
2548.43291,0.00593
2546.37274,0.00591
2544.31256,0.00601
2542.25239,0.00590
2540.19222,0.00563
2538.13205,0.00569
2536.07188,0.00603
2534.01170,0.00622
2531.95153,0.00608
2529.89136,0.00579
2527.83119,0.00577
2525.77102,0.00604
2523.71084,0.00606
2521.65067,0.00580
2519.59050,0.00563
2517.53033,0.00557
2515.47015,0.00565
2513.40998,0.00581
2511.34981,0.00586
2509.28964,0.00585
2507.22947,0.00602
2505.16929,0.00642
2503.10912,0.00661
2501.04895,0.00641
2498.98878,0.00619
2496.92861,0.00611
2494.86843,0.00616
2492.80826,0.00619
2490.74809,0.00603
2488.68792,0.00596
2486.62775,0.00615
2484.56757,0.00638
2482.50740,0.00649
2480.44723,0.00644
2478.38706,0.00616
2476.32688,0.00591
2474.26671,0.00614
2472.20654,0.00660
2470.14637,0.00671
2468.08620,0.00667
2466.02602,0.00688
2463.96585,0.00706
2461.90568,0.00701
2459.84551,0.00696
2457.78534,0.00694
2455.72516,0.00700
2453.66499,0.00710
2451.60482,0.00704
2449.54465,0.00689
2447.48447,0.00675
2445.42430,0.00664
2443.36413,0.00667
2441.30396,0.00679
2439.24379,0.00689
2437.18361,0.00689
2435.12344,0.00682
2433.06327,0.00675
2431.00310,0.00656
2428.94293,0.00635
2426.88275,0.00640
2424.82258,0.00661
2422.76241,0.00683
2420.70224,0.00702
2418.64207,0.00705
2416.58189,0.00688
2414.52172,0.00663
2412.46155,0.00653
2410.40138,0.00665
2408.34120,0.00677
2406.28103,0.00679
2404.22086,0.00675
2402.16069,0.00663
2400.10052,0.00648
2398.04034,0.00563
2395.98017,0.00576
2393.92000,0.00641
2391.85983,0.00707
2389.79966,0.00762
2387.73948,0.00809
2385.67931,0.00862
2383.61914,0.00911
2381.55897,0.00927
2379.49880,0.00911
2377.43862,0.00884
2375.37845,0.00849
2373.31828,0.00839
2371.25811,0.00868
2369.19793,0.00902
2367.13776,0.00968
2365.07759,0.01066
2363.01742,0.01069
2360.95725,0.01030
2358.89707,0.00952
2356.83690,0.00915
2354.77673,0.00976
2352.71656,0.01115
2350.65639,0.01283
2348.59621,0.01311
2346.53604,0.01067
2344.47587,0.00939
2342.41570,0.00950
2340.35552,0.00977
2338.29535,0.01001
2336.23518,0.01023
2334.17501,0.01055
2332.11484,0.01086
2330.05466,0.01147
2327.99449,0.01194
2325.93432,0.01224
2323.87415,0.01173
2321.81398,0.01082
2319.75380,0.00985
2317.69363,0.00965
2315.63346,0.00960
2313.57329,0.00943
2311.51312,0.00949
2309.45294,0.00963
2307.39277,0.00964
2305.33260,0.00953
2303.27243,0.00938
2301.21225,0.00910
2299.15208,0.00879
2297.09191,0.00844
2295.03174,0.00826
2292.97157,0.00832
2290.91139,0.00830
2288.85122,0.00806
2286.79105,0.00772
2284.73088,0.00729
2282.67071,0.00666
2280.61053,0.00595
2278.55036,0.00547
2276.49019,0.00550
2274.43002,0.00591
2272.36984,0.00612
2270.30967,0.00595
2268.24950,0.00569
2266.18933,0.00548
2264.12916,0.00527
2262.06898,0.00536
2260.00881,0.00565
2257.94864,0.00565
2255.88847,0.00545
2253.82830,0.00564
2251.76812,0.00607
2249.70795,0.00581
2247.64778,0.00571
2245.58761,0.00587
2243.52744,0.00582
2241.46726,0.00539
2239.40709,0.00509
2237.34692,0.00516
2235.28675,0.00558
2233.22657,0.00593
2231.16640,0.00563
2229.10623,0.00506
2227.04606,0.00460
2224.98589,0.00389
2222.92571,0.00324
2220.86554,0.00362
2218.80537,0.00441
2216.74520,0.00457
2214.68503,0.00437
2212.62485,0.00441
2210.56468,0.00450
2208.50451,0.00418
2206.44434,0.00370
2204.38417,0.00358
2202.32399,0.00387
2200.26382,0.00408
2198.20365,0.00373
2196.14348,0.00321
2194.08330,0.00317
2192.02313,0.00387
2189.96296,0.00514
2187.90279,0.00604
2185.84262,0.00544
2183.78244,0.00385
2181.72227,0.00312
2179.66210,0.00336
2177.60193,0.00363
2175.54176,0.00356
2173.48158,0.00315
2171.42141,0.00365
2169.36124,0.00529
2167.30107,0.00648
2165.24089,0.00629
2163.18072,0.00517
2161.12055,0.00423
2159.06038,0.00368
2157.00021,0.00339
2154.94003,0.00352
2152.87986,0.00327
2150.81969,0.00239
2148.75952,0.00161
2146.69935,0.00145
2144.63917,0.00168
2142.57900,0.00149
2140.51883,0.00117
2138.45866,0.00150
2136.39849,0.00198
2134.33831,0.00203
2132.27814,0.00195
2130.21797,0.00219
2128.15780,0.00286
2126.09762,0.00335
2124.03745,0.00325
2121.97728,0.00300
2119.91711,0.00293
2117.85694,0.00279
2115.79676,0.00259
2113.73659,0.00263
2111.67642,0.00269
2109.61625,0.00266
2107.55608,0.00289
2105.49590,0.00319
2103.43573,0.00326
2101.37556,0.00315
2099.31539,0.00257
2097.25521,0.00225
2095.19504,0.00253
2093.13487,0.00292
2091.07470,0.00298
2089.01453,0.00301
2086.95435,0.00319
2084.89418,0.00331
2082.83401,0.00323
2080.77384,0.00286
2078.71367,0.00231
2076.65349,0.00189
2074.59332,0.00190
2072.53315,0.00210
2070.47298,0.00200
2068.41281,0.00189
2066.35263,0.00240
2064.29246,0.00321
2062.23229,0.00321
2060.17212,0.00255
2058.11194,0.00237
2056.05177,0.00263
2053.99160,0.00289
2051.93143,0.00313
2049.87126,0.00290
2047.81108,0.00227
2045.75091,0.00220
2043.69074,0.00269
2041.63057,0.00282
2039.57040,0.00261
2037.51022,0.00269
2035.45005,0.00236
2033.38988,0.00101
2031.32971,0.00019
2029.26954,0.00085
2027.20936,0.00161
2025.14919,0.00224
2023.08902,0.00307
2021.02885,0.00306
2018.96867,0.00235
2016.90850,0.00234
2014.84833,0.00299
2012.78816,0.00317
2010.72799,0.00297
2008.66781,0.00301
2006.60764,0.00314
2004.54747,0.00329
2002.48730,0.00335
2000.42713,0.00269
1998.36695,0.00194
1996.30678,0.00211
1994.24661,0.00270
1992.18644,0.00316
1990.12626,0.00344
1988.06609,0.00344
1986.00592,0.00292
1983.94575,0.00188
1981.88558,0.00090
1979.82540,0.00029
1977.76523,0.00000
1975.70506,0.00014
1973.64489,0.00057
1971.58472,0.00081
1969.52454,0.00090
1967.46437,0.00137
1965.40420,0.00220
1963.34403,0.00248
1961.28386,0.00187
1959.22368,0.00127
1957.16351,0.00147
1955.10334,0.00217
1953.04317,0.00270
1950.98299,0.00261
1948.92282,0.00195
1946.86265,0.00169
1944.80248,0.00228
1942.74231,0.00265
1940.68213,0.00232
1938.62196,0.00209
1936.56179,0.00223
1934.50162,0.00219
1932.44145,0.00182
1930.38127,0.00157
1928.32110,0.00164
1926.26093,0.00176
1924.20076,0.00166
1922.14059,0.00136
1920.08041,0.00129
1918.02024,0.00146
1915.96007,0.00158
1913.89990,0.00164
1911.83972,0.00178
1909.77955,0.00200
1907.71938,0.00208
1905.65921,0.00187
1903.59904,0.00164
1901.53886,0.00145
1899.47869,0.00132
1897.41852,0.00165
1895.35835,0.00242
1893.29818,0.00288
1891.23800,0.00279
1889.17783,0.00258
1887.11766,0.00244
1885.05749,0.00234
1882.99731,0.00237
1880.93714,0.00256
1878.87697,0.00276
1876.81680,0.00270
1874.75663,0.00241
1872.69645,0.00214
1870.63628,0.00201
1868.57611,0.00197
1866.51594,0.00198
1864.45577,0.00207
1862.39559,0.00237
1860.33542,0.00282
1858.27525,0.00315
1856.21508,0.00305
1854.15491,0.00273
1852.09473,0.00255
1850.03456,0.00257
1847.97439,0.00261
1845.91422,0.00266
1843.85404,0.00286
1841.79387,0.00310
1839.73370,0.00303
1837.67353,0.00272
1835.61336,0.00262
1833.55318,0.00269
1831.49301,0.00254
1829.43284,0.00233
1827.37267,0.00246
1825.31250,0.00273
1823.25232,0.00293
1821.19215,0.00306
1819.13198,0.00316
1817.07181,0.00323
1815.01163,0.00318
1812.95146,0.00305
1810.89129,0.00306
1808.83112,0.00331
1806.77095,0.00354
1804.71077,0.00354
1802.65060,0.00349
1800.59043,0.00345
1798.53026,0.00332
1796.47009,0.00313
1794.40991,0.00301
1792.34974,0.00313
1790.28957,0.00340
1788.22940,0.00364
1786.16923,0.00377
1784.10905,0.00373
1782.04888,0.00348
1779.98871,0.00323
1777.92854,0.00312
1775.86836,0.00303
1773.80819,0.00285
1771.74802,0.00291
1769.68785,0.00346
1767.62768,0.00397
1765.56750,0.00407
1763.50733,0.00398
1761.44716,0.00405
1759.38699,0.00430
1757.32682,0.00449
1755.26664,0.00463
1753.20647,0.00479
1751.14630,0.00489
1749.08613,0.00484
1747.02596,0.00483
1744.96578,0.00493
1742.90561,0.00500
1740.84544,0.00503
1738.78527,0.00504
1736.72509,0.00497
1734.66492,0.00485
1732.60475,0.00480
1730.54458,0.00486
1728.48441,0.00508
1726.42423,0.00529
1724.36406,0.00538
1722.30389,0.00537
1720.24372,0.00519
1718.18355,0.00501
1716.12337,0.00525
1714.06320,0.00565
1712.00303,0.00595
1709.94286,0.00603
1707.88268,0.00590
1705.82251,0.00586
1703.76234,0.00595
1701.70217,0.00587
1699.64200,0.00588
1697.58182,0.00639
1695.52165,0.00715
1693.46148,0.00784
1691.40131,0.00834
1689.34114,0.00861
1687.28096,0.00861
1685.22079,0.00850
1683.16062,0.00901
1681.10045,0.00995
1679.04028,0.01047
1676.98010,0.01053
1674.91993,0.01060
1672.85976,0.01064
1670.79959,0.01063
1668.73941,0.01108
1666.67924,0.01173
1664.61907,0.01206
1662.55890,0.01237
1660.49873,0.01290
1658.43855,0.01320
1656.37838,0.01296
1654.31821,0.01251
1652.25804,0.01249
1650.19787,0.01247
1648.13769,0.01223
1646.07752,0.01234
1644.01735,0.01289
1641.95718,0.01310
1639.89701,0.01262
1637.83683,0.01173
1635.77666,0.01125
1633.71649,0.01158
1631.65632,0.01188
1629.59614,0.01168
1627.53597,0.01119
1625.47580,0.01074
1623.41563,0.01053
1621.35546,0.01050
1619.29528,0.01024
1617.23511,0.00979
1615.17494,0.00972
1613.11477,0.00985
1611.05460,0.00970
1608.99442,0.00938
1606.93425,0.00921
1604.87408,0.00915
1602.81391,0.00909
1600.75373,0.00904
1598.69356,0.00888
1596.63339,0.00859
1594.57322,0.00836
1592.51305,0.00829
1590.45287,0.00823
1588.39270,0.00805
1586.33253,0.00782
1584.27236,0.00759
1582.21219,0.00732
1580.15201,0.00691
1578.09184,0.00636
1576.03167,0.00614
1573.97150,0.00636
1571.91133,0.00642
1569.85115,0.00621
1567.79098,0.00614
1565.73081,0.00626
1563.67064,0.00622
1561.61046,0.00572
1559.55029,0.00525
1557.49012,0.00588
1555.42995,0.00672
1553.36978,0.00702
1551.30960,0.00695
1549.24943,0.00669
1547.18926,0.00626
1545.12909,0.00558
1543.06892,0.00470
1541.00874,0.00418
1538.94857,0.00461
1536.88840,0.00518
1534.82823,0.00526
1532.76805,0.00513
1530.70788,0.00507
1528.64771,0.00495
1526.58754,0.00475
1524.52737,0.00450
1522.46719,0.00420
1520.40702,0.00420
1518.34685,0.00440
1516.28668,0.00459
1514.22651,0.00480
1512.16633,0.00486
1510.10616,0.00447
1508.04599,0.00364
1505.98582,0.00306
1503.92565,0.00320
1501.86547,0.00340
1499.80530,0.00321
1497.74513,0.00287
1495.68496,0.00273
1493.62478,0.00269
1491.56461,0.00255
1489.50444,0.00234
1487.44427,0.00221
1485.38410,0.00227
1483.32392,0.00238
1481.26375,0.00246
1479.20358,0.00252
1477.14341,0.00244
1475.08324,0.00219
1473.02306,0.00215
1470.96289,0.00251
1468.90272,0.00286
1466.84255,0.00285
1464.78238,0.00271
1462.72220,0.00272
1460.66203,0.00267
1458.60186,0.00255
1456.54169,0.00274
1454.48151,0.00303
1452.42134,0.00313
1450.36117,0.00301
1448.30100,0.00281
1446.24083,0.00272
1444.18065,0.00272
1442.12048,0.00272
1440.06031,0.00272
1438.00014,0.00276
1435.93997,0.00288
1433.87979,0.00293
1431.81962,0.00286
1429.75945,0.00288
1427.69928,0.00312
1425.63910,0.00338
1423.57893,0.00355
1421.51876,0.00374
1419.45859,0.00408
1417.39842,0.00443
1415.33824,0.00452
1413.27807,0.00446
1411.21790,0.00443
1409.15773,0.00443
1407.09756,0.00441
1405.03738,0.00449
1402.97721,0.00459
1400.91704,0.00457
1398.85687,0.00454
1396.79670,0.00456
1394.73652,0.00448
1392.67635,0.00436
1390.61618,0.00430
1388.55601,0.00434
1386.49583,0.00442
1384.43566,0.00441
1382.37549,0.00433
1380.31532,0.00431
1378.25515,0.00432
1376.19497,0.00425
1374.13480,0.00425
1372.07463,0.00437
1370.01446,0.00443
1367.95429,0.00441
1365.89411,0.00435
1363.83394,0.00432
1361.77377,0.00426
1359.71360,0.00405
1357.65343,0.00381
1355.59325,0.00370
1353.53308,0.00367
1351.47291,0.00360
1349.41274,0.00344
1347.35256,0.00327
1345.29239,0.00314
1343.23222,0.00311
1341.17205,0.00319
1339.11188,0.00318
1337.05170,0.00296
1334.99153,0.00269
1332.93136,0.00252
1330.87119,0.00244
1328.81102,0.00234
1326.75084,0.00221
1324.69067,0.00208
1322.63050,0.00201
1320.57033,0.00203
1318.51015,0.00216
1316.44998,0.00228
1314.38981,0.00231
1312.32964,0.00221
1310.26947,0.00199
1308.20929,0.00178
1306.14912,0.00170
1304.08895,0.00173
1302.02878,0.00176
1299.96861,0.00179
1297.90843,0.00187
1295.84826,0.00195
1293.78809,0.00197
1291.72792,0.00192
1289.66775,0.00190
1287.60757,0.00194
1285.54740,0.00192
1283.48723,0.00181
1281.42706,0.00175
1279.36688,0.00183
1277.30671,0.00193
1275.24654,0.00198
1273.18637,0.00202
1271.12620,0.00205
1269.06602,0.00201
1267.00585,0.00193
1264.94568,0.00192
1262.88551,0.00196
1260.82534,0.00199
1258.76516,0.00203
1256.70499,0.00211
1254.64482,0.00217
1252.58465,0.00213
1250.52447,0.00205
1248.46430,0.00200
1246.40413,0.00198
1244.34396,0.00195
1242.28379,0.00184
1240.22361,0.00167
1238.16344,0.00149
1236.10327,0.00136
1234.04310,0.00135
1231.98293,0.00143
1229.92275,0.00142
1227.86258,0.00128
1225.80241,0.00114
1223.74224,0.00104
1221.68207,0.00088
1219.62189,0.00067
1217.56172,0.00052
1215.50155,0.00047
1213.44138,0.00033
1211.38120,0.00010
1209.32103,0.00000
1207.26086,-0.00002
1205.20069,0.00001
1203.14052,0.00004
1201.08034,-0.00001
1199.02017,-0.00002
1196.96000,0.00001
1194.89983,0.00007
1192.83966,0.00033
1190.77948,0.00077
1188.71931,0.00124
1186.65914,0.00165
1184.59897,0.00209
1182.53880,0.00264
1180.47862,0.00320
1178.41845,0.00373
1176.35828,0.00432
1174.29811,0.00497
1172.23793,0.00558
1170.17776,0.00612
1168.11759,0.00661
1166.05742,0.00714
1163.99725,0.00771
1161.93707,0.00817
1159.87690,0.00859
1157.81673,0.00919
1155.75656,0.00987
1153.69639,0.01044
1151.63621,0.01096
1149.57604,0.01160
1147.51587,0.01232
1145.45570,0.01301
1143.39552,0.01370
1141.33535,0.01440
1139.27518,0.01508
1137.21501,0.01576
1135.15484,0.01641
1133.09466,0.01699
1131.03449,0.01760
1128.97432,0.01835
1126.91415,0.01922
1124.85398,0.02021
1122.79380,0.02134
1120.73363,0.02244
1118.67346,0.02335
1116.61329,0.02418
1114.55312,0.02510
1112.49294,0.02609
1110.43277,0.02720
1108.37260,0.02843
1106.31243,0.02955
1104.25225,0.03057
1102.19208,0.03174
1100.13191,0.03289
1098.07174,0.03377
1096.01157,0.03455
1093.95139,0.03546
1091.89122,0.03644
1089.83105,0.03739
1087.77088,0.03841
1085.71071,0.03943
1083.65053,0.04025
1081.59036,0.04097
1079.53019,0.04171
1077.47002,0.04252
1075.40985,0.04339
1073.34967,0.04417
1071.28950,0.04485
1069.22933,0.04542
1067.16916,0.04579
1065.10898,0.04587
1063.04881,0.04568
1060.98864,0.04537
1058.92847,0.04494
1056.86830,0.04426
1054.80812,0.04326
1052.74795,0.04209
1050.68778,0.04088
1048.62761,0.03957
1046.56744,0.03807
1044.50726,0.03641
1042.44709,0.03463
1040.38692,0.03277
1038.32675,0.03094
1036.26657,0.02924
1034.20640,0.02775
1032.14623,0.02623
1030.08606,0.02453
1028.02589,0.02287
1025.96571,0.02140
1023.90554,0.02008
1021.84537,0.01894
1019.78520,0.01797
1017.72503,0.01717
1015.66485,0.01656
1013.60468,0.01637
1011.54451,0.01660
1009.48434,0.01695
1007.42417,0.01740
1005.36399,0.01810
1003.30382,0.01902
1001.24365,0.01995
999.18348,0.02096
997.12330,0.02210
995.06313,0.02309
993.00296,0.02389
990.94279,0.02474
988.88262,0.02555
986.82244,0.02613
984.76227,0.02664
982.70210,0.02713
980.64193,0.02752
978.58176,0.02782
976.52158,0.02798
974.46141,0.02788
972.40124,0.02758
970.34107,0.02721
968.28089,0.02673
966.22072,0.02607
964.16055,0.02517
962.10038,0.02415
960.04021,0.02326
957.98003,0.02244
955.91986,0.02150
953.85969,0.02064
951.79952,0.01992
949.73935,0.01926
947.67917,0.01866
945.61900,0.01790
943.55883,0.01699
941.49866,0.01619
939.43849,0.01547
937.37831,0.01467
935.31814,0.01384
933.25797,0.01316
931.19780,0.01260
929.13762,0.01198
927.07745,0.01131
925.01728,0.01074
922.95711,0.01017
920.89694,0.00953
918.83676,0.00893
916.77659,0.00841
914.71642,0.00790
912.65625,0.00752
910.59608,0.00724
908.53590,0.00678
906.47573,0.00616
904.41556,0.00579
902.35539,0.00580
900.29522,0.00592
898.23504,0.00599
896.17487,0.00610
894.11470,0.00634
892.05453,0.00664
889.99435,0.00700
887.93418,0.00758
885.87401,0.00831
883.81384,0.00885
881.75367,0.00918
879.69349,0.00972
877.63332,0.01057
875.57315,0.01142
873.51298,0.01222
871.45281,0.01317
869.39263,0.01428
867.33246,0.01533
865.27229,0.01622
863.21212,0.01712
861.15194,0.01801
859.09177,0.01862
857.03160,0.01891
854.97143,0.01879
852.91126,0.01849
850.85108,0.01833
848.79091,0.01808
846.73074,0.01764
844.67057,0.01708
842.61040,0.01644
840.55022,0.01575
838.49005,0.01478
836.42988,0.01372
834.36971,0.01315
832.30954,0.01286
830.24936,0.01236
828.18919,0.01162
826.12902,0.01089
824.06885,0.01036
822.00867,0.00986
819.94850,0.00931
817.88833,0.00885
815.82816,0.00854
813.76799,0.00822
811.70781,0.00765
809.64764,0.00681
807.58747,0.00629
805.52730,0.00629
803.46713,0.00630
801.40695,0.00632
799.34678,0.00634
797.28661,0.00595
795.22644,0.00539
793.16627,0.00496
791.10609,0.00475
789.04592,0.00471
786.98575,0.00458
784.92558,0.00429
782.86540,0.00405
780.80523,0.00381
778.74506,0.00363
776.68489,0.00362
774.62472,0.00354
772.56454,0.00344
770.50437,0.00333
768.44420,0.00306
766.38403,0.00284
764.32386,0.00268
762.26368,0.00239
760.20351,0.00209
758.14334,0.00184
756.08317,0.00156
754.02299,0.00150
751.96282,0.00192
749.90265,0.00236
747.84248,0.00241
745.78231,0.00230
743.72213,0.00215
741.66196,0.00200
739.60179,0.00193
737.54162,0.00186
735.48145,0.00175
733.42127,0.00157
731.36110,0.00113
729.30093,0.00067
727.24076,0.00074
725.18059,0.00111
723.12041,0.00180
721.06024,0.00144
719.00007,0.00142
716.93990,0.00133
714.87972,0.00084
712.81955,0.00048
710.75938,0.00054
708.69921,0.00098
706.63904,0.00165
704.57886,0.00231
702.51869,0.00265
700.45852,0.00263
698.39835,0.00251
696.33818,0.00240
694.27800,0.00239
692.21783,0.00248
690.15766,0.00245
688.09749,0.00225
686.03731,0.00219
683.97714,0.00268
681.91697,0.00338
679.85680,0.00334
677.79663,0.00269
675.73645,0.00248
673.67628,0.00294
671.61611,0.00283
669.55594,0.00101
667.49577,0.00000
665.43559,0.00281
663.37542,0.00320
661.31525,0.00278
659.25508,0.00236
657.19491,0.00193
655.13473,0.00177
653.07456,0.00200
651.01439,0.00253
648.95422,0.00323
646.89404,0.00366
644.83387,0.00310
642.77370,0.00189
640.71353,0.00081
638.65336,0.00043
636.59318,0.00074
634.53301,0.00132
632.47284,0.00147
630.41267,0.00088
628.35250,0.00048
626.29232,0.00067
624.23215,0.00028
622.17198,-0.00033
620.11181,0.00004
618.05164,0.00138
615.99146,0.00251
613.93129,0.00286
611.87112,0.00272
609.81095,0.00255
607.75077,0.00242
605.69060,0.00212
603.63043,0.00171
601.57026,0.00070
599.51009,0.00000
