3996.73391,-0.00055
3994.67373,-0.00067
3992.61356,-0.00052
3990.55339,-0.00020
3988.49322,0.00001
3986.43305,0.00015
3984.37287,0.00024
3982.31270,0.00017
3980.25253,-0.00001
3978.19236,-0.00013
3976.13219,-0.00017
3974.07201,-0.00009
3972.01184,-0.00002
3969.95167,0.00001
3967.89150,0.00025
3965.83133,0.00062
3963.77115,0.00072
3961.71098,0.00054
3959.65081,0.00044
3957.59064,0.00049
3955.53046,0.00063
3953.47029,0.00080
3951.41012,0.00074
3949.34995,0.00033
3947.28978,0.00000
3945.22960,0.00008
3943.16943,0.00022
3941.10926,0.00021
3939.04909,0.00026
3936.98892,0.00032
3934.92874,0.00022
3932.86857,0.00019
3930.80840,0.00047
3928.74823,0.00076
3926.68805,0.00085
3924.62788,0.00067
3922.56771,0.00027
3920.50754,0.00000
3918.44737,0.00013
3916.38719,0.00065
3914.32702,0.00121
3912.26685,0.00138
3910.20668,0.00125
3908.14651,0.00112
3906.08633,0.00094
3904.02616,0.00059
3901.96599,0.00054
3899.90582,0.00108
3897.84565,0.00142
3895.78547,0.00119
3893.72530,0.00088
3891.66513,0.00084
3889.60496,0.00083
3887.54478,0.00060
3885.48461,0.00029
3883.42444,0.00018
3881.36427,0.00039
3879.30410,0.00064
3877.24392,0.00070
3875.18375,0.00075
3873.12358,0.00071
3871.06341,0.00034
3869.00324,0.00000
3866.94306,0.00000
3864.88289,0.00020
3862.82272,0.00049
3860.76255,0.00075
3858.70237,0.00077
3856.64220,0.00045
3854.58203,0.00027
3852.52186,0.00069
3850.46169,0.00130
3848.40151,0.00130
3846.34134,0.00106
3844.28117,0.00112
3842.22100,0.00139
3840.16083,0.00137
3838.10065,0.00111
3836.04048,0.00124
3833.98031,0.00173
3831.92014,0.00219
3829.85997,0.00244
3827.79979,0.00244
3825.73962,0.00217
3823.67945,0.00181
3821.61928,0.00172
3819.55910,0.00179
3817.49893,0.00192
3815.43876,0.00212
3813.37859,0.00224
3811.31842,0.00224
3809.25824,0.00230
3807.19807,0.00238
3805.13790,0.00245
3803.07773,0.00271
3801.01756,0.00302
3798.95738,0.00294
3796.89721,0.00275
3794.83704,0.00296
3792.77687,0.00330
3790.71670,0.00336
3788.65652,0.00332
3786.59635,0.00333
3784.53618,0.00327
3782.47601,0.00325
3780.41583,0.00353
3778.35566,0.00390
3776.29549,0.00398
3774.23532,0.00380
3772.17515,0.00354
3770.11497,0.00340
3768.05480,0.00358
3765.99463,0.00389
3763.93446,0.00377
3761.87429,0.00322
3759.81411,0.00263
3757.75394,0.00225
3755.69377,0.00208
3753.63360,0.00174
3751.57342,0.00088
3749.51325,0.00005
3747.45308,0.00000
3745.39291,0.00030
3743.33274,0.00114
3741.27256,0.00198
3739.21239,0.00216
3737.15222,0.00206
3735.09205,0.00205
3733.03188,0.00213
3730.97170,0.00221
3728.91153,0.00230
3726.85136,0.00242
3724.79119,0.00264
3722.73102,0.00290
3720.67084,0.00297
3718.61067,0.00260
3716.55050,0.00220
3714.49033,0.00239
3712.43015,0.00312
3710.36998,0.00360
3708.30981,0.00357
3706.24964,0.00357
3704.18947,0.00376
3702.12929,0.00390
3700.06912,0.00386
3698.00895,0.00390
3695.94878,0.00413
3693.88861,0.00433
3691.82843,0.00440
3689.76826,0.00433
3687.70809,0.00424
3685.64792,0.00427
3683.58775,0.00433
3681.52757,0.00427
3679.46740,0.00412
3677.40723,0.00416
3675.34706,0.00442
3673.28688,0.00442
3671.22671,0.00437
3669.16654,0.00474
3667.10637,0.00507
3665.04620,0.00504
3662.98602,0.00495
3660.92585,0.00484
3658.86568,0.00477
3656.80551,0.00494
3654.74534,0.00529
3652.68516,0.00571
3650.62499,0.00617
3648.56482,0.00645
3646.50465,0.00659
3644.44447,0.00641
3642.38430,0.00637
3640.32413,0.00673
3638.26396,0.00697
3636.20379,0.00689
3634.14361,0.00683
3632.08344,0.00695
3630.02327,0.00723
3627.96310,0.00762
3625.90293,0.00787
3623.84275,0.00803
3621.78258,0.00835
3619.72241,0.00874
3617.66224,0.00893
3615.60207,0.00896
3613.54189,0.00898
3611.48172,0.00902
3609.42155,0.00941
3607.36138,0.01002
3605.30120,0.01033
3603.24103,0.01046
3601.18086,0.01072
3599.12069,0.01121
3597.06052,0.01177
3595.00034,0.01217
3592.94017,0.01237
3590.88000,0.01266
3588.81983,0.01285
3586.75966,0.01287
3584.69948,0.01314
3582.63931,0.01369
3580.57914,0.01426
3578.51897,0.01472
3576.45879,0.01505
3574.39862,0.01520
3572.33845,0.01536
3570.27828,0.01562
3568.21811,0.01579
3566.15793,0.01583
3564.09776,0.01593
3562.03759,0.01600
3559.97742,0.01619
3557.91725,0.01664
3555.85707,0.01713
3553.79690,0.01751
3551.73673,0.01780
3549.67656,0.01794
3547.61639,0.01781
3545.55621,0.01779
3543.49604,0.01825
3541.43587,0.01896
3539.37570,0.01964
3537.31552,0.02012
3535.25535,0.02032
3533.19518,0.02045
3531.13501,0.02069
3529.07484,0.02092
3527.01466,0.02098
3524.95449,0.02107
3522.89432,0.02146
3520.83415,0.02206
3518.77398,0.02260
3516.71380,0.02289
3514.65363,0.02305
3512.59346,0.02323
3510.53329,0.02336
3508.47312,0.02345
3506.41294,0.02358
3504.35277,0.02367
3502.29260,0.02375
3500.23243,0.02422
3498.17225,0.02496
3496.11208,0.02542
3494.05191,0.02555
3491.99174,0.02563
3489.93157,0.02579
3487.87139,0.02613
3485.81122,0.02659
3483.75105,0.02686
3481.69088,0.02686
3479.63071,0.02692
3477.57053,0.02729
3475.51036,0.02775
3473.45019,0.02799
3471.39002,0.02809
3469.32984,0.02827
3467.26967,0.02849
3465.20950,0.02866
3463.14933,0.02885
3461.08916,0.02902
3459.02898,0.02921
3456.96881,0.02940
3454.90864,0.02958
3452.84847,0.02983
3450.78830,0.03008
3448.72812,0.03021
3446.66795,0.03034
3444.60778,0.03055
3442.54761,0.03064
3440.48744,0.03056
3438.42726,0.03057
3436.36709,0.03086
3434.30692,0.03124
3432.24675,0.03147
3430.18657,0.03167
3428.12640,0.03193
3426.06623,0.03206
3424.00606,0.03212
3421.94589,0.03237
3419.88571,0.03270
3417.82554,0.03297
3415.76537,0.03322
3413.70520,0.03331
3411.64503,0.03333
3409.58485,0.03333
3407.52468,0.03331
3405.46451,0.03342
3403.40434,0.03362
3401.34416,0.03376
3399.28399,0.03344
3397.22382,0.03369
3395.16365,0.03398
3393.10348,0.03403
3391.04330,0.03407
3388.98313,0.03435
3386.92296,0.03470
3384.86279,0.03500
3382.80262,0.03535
3380.74244,0.03568
3378.68227,0.03585
3376.62210,0.03591
3374.56193,0.03596
3372.50176,0.03603
3370.44158,0.03606
3368.38141,0.03596
3366.32124,0.03588
3364.26107,0.03601
3362.20089,0.03622
3360.14072,0.03635
3358.08055,0.03646
3356.02038,0.03659
3353.96021,0.03672
3351.90003,0.03689
3349.83986,0.03708
3347.77969,0.03709
3345.71952,0.03693
3343.65935,0.03701
3341.59917,0.03721
3339.53900,0.03719
3337.47883,0.03722
3335.41866,0.03740
3333.35849,0.03748
3331.29831,0.03748
3329.23814,0.03756
3327.17797,0.03768
3325.11780,0.03766
3323.05762,0.03769
3320.99745,0.03794
3318.93728,0.03817
3316.87711,0.03819
3314.81694,0.03806
3312.75676,0.03793
3310.69659,0.03793
3308.63642,0.03811
3306.57625,0.03840
3304.51608,0.03876
3302.45590,0.03912
3300.39573,0.03920
3298.33556,0.03897
3296.27539,0.03871
3294.21521,0.03851
3292.15504,0.03842
3290.09487,0.03866
3288.03470,0.03904
3285.97453,0.03926
3283.91435,0.03937
3281.85418,0.03947
3279.79401,0.03939
3277.73384,0.03921
3275.67367,0.03916
3273.61349,0.03924
3271.55332,0.03936
3269.49315,0.03950
3267.43298,0.03961
3265.37281,0.03967
3263.31263,0.03969
3261.25246,0.03969
3259.19229,0.03972
3257.13212,0.03968
3255.07194,0.03950
3253.01177,0.03937
3250.95160,0.03945
3248.89143,0.03967
3246.83126,0.03988
3244.77108,0.04001
3242.71091,0.04005
3240.65074,0.04001
3238.59057,0.03993
3236.53040,0.03981
3234.47022,0.03970
3232.41005,0.03971
3230.34988,0.03983
3228.28971,0.03988
3226.22954,0.03985
3224.16936,0.03982
3222.10919,0.03971
3220.04902,0.03950
3217.98885,0.03952
3215.92867,0.03976
3213.86850,0.03981
3211.80833,0.03966
3209.74816,0.03958
3207.68799,0.03966
3205.62781,0.03987
3203.56764,0.04004
3201.50747,0.04005
3199.44730,0.03993
3197.38713,0.03980
3195.32695,0.03976
3193.26678,0.03978
3191.20661,0.03981
3189.14644,0.03984
3187.08626,0.03979
3185.02609,0.03968
3182.96592,0.03966
3180.90575,0.03966
3178.84558,0.03954
3176.78540,0.03954
3174.72523,0.03966
3172.66506,0.03961
3170.60489,0.03956
3168.54472,0.03957
3166.48454,0.03940
3164.42437,0.03921
3162.36420,0.03915
3160.30403,0.03915
3158.24386,0.03927
3156.18368,0.03947
3154.12351,0.03942
3152.06334,0.03910
3150.00317,0.03886
3147.94299,0.03889
3145.88282,0.03907
3143.82265,0.03911
3141.76248,0.03900
3139.70231,0.03895
3137.64213,0.03893
3135.58196,0.03874
3133.52179,0.03844
3131.46162,0.03833
3129.40145,0.03841
3127.34127,0.03842
3125.28110,0.03825
3123.22093,0.03800
3121.16076,0.03783
3119.10058,0.03776
3117.04041,0.03759
3114.98024,0.03738
3112.92007,0.03741
3110.85990,0.03766
3108.79972,0.03779
3106.73955,0.03765
3104.67938,0.03733
3102.61921,0.03701
3100.55904,0.03691
3098.49886,0.03699
3096.43869,0.03695
3094.37852,0.03682
3092.31835,0.03683
3090.25818,0.03685
3088.19800,0.03673
3086.13783,0.03669
3084.07766,0.03666
3082.01749,0.03649
3079.95731,0.03627
3077.89714,0.03616
3075.83697,0.03618
3073.77680,0.03627
3071.71663,0.03626
3069.65645,0.03604
3067.59628,0.03567
3065.53611,0.03541
3063.47594,0.03547
3061.41577,0.03564
3059.35559,0.03561
3057.29542,0.03536
3055.23525,0.03507
3053.17508,0.03481
3051.11491,0.03463
3049.05473,0.03453
3046.99456,0.03447
3044.93439,0.03442
3042.87422,0.03438
3040.81404,0.03437
3038.75387,0.03435
3036.69370,0.03429
3034.63353,0.03415
3032.57336,0.03394
3030.51318,0.03373
3028.45301,0.03356
3026.39284,0.03340
3024.33267,0.03325
3022.27250,0.03310
3020.21232,0.03291
3018.15215,0.03266
3016.09198,0.03234
3014.03181,0.03206
3011.97163,0.03197
3009.91146,0.03207
3007.85129,0.03210
3005.79112,0.03198
3003.73095,0.03195
3001.67077,0.03192
2999.61060,0.03176
2997.55043,0.03147
2995.49026,0.03131
2993.43009,0.03130
2991.36991,0.03138
2989.30974,0.03134
2987.24957,0.03125
2985.18940,0.03126
2983.12923,0.03131
2981.06905,0.03134
2979.00888,0.03134
2976.94871,0.03127
2974.88854,0.03112
2972.82836,0.03094
2970.76819,0.03093
2968.70802,0.03105
2966.64785,0.03105
2964.58768,0.03098
2962.52750,0.03101
2960.46733,0.03105
2958.40716,0.03104
2956.34699,0.03105
2954.28682,0.03107
2952.22664,0.03111
2950.16647,0.03104
2948.10630,0.03081
2946.04613,0.03075
2943.98596,0.03090
2941.92578,0.03087
2939.86561,0.03069
2937.80544,0.03070
2935.74527,0.03086
2933.68509,0.03096
2931.62492,0.03098
2929.56475,0.03086
2927.50458,0.03065
2925.44441,0.03058
2923.38423,0.03065
2921.32406,0.03078
2919.26389,0.03084
2917.20372,0.03072
2915.14355,0.03061
2913.08337,0.03044
2911.02320,0.03009
2908.96303,0.02983
2906.90286,0.02981
2904.84268,0.02983
2902.78251,0.02977
2900.72234,0.02969
2898.66217,0.02962
2896.60200,0.02956
2894.54182,0.02946
2892.48165,0.02938
2890.42148,0.02939
2888.36131,0.02940
2886.30114,0.02933
2884.24096,0.02931
2882.18079,0.02941
2880.12062,0.02940
2878.06045,0.02925
2876.00028,0.02908
2873.94010,0.02892
2871.87993,0.02883
2869.81976,0.02875
2867.75959,0.02856
2865.69941,0.02839
2863.63924,0.02821
2861.57907,0.02812
2859.51890,0.02820
2857.45873,0.02825
2855.39855,0.02820
2853.33838,0.02820
2851.27821,0.02827
2849.21804,0.02823
2847.15787,0.02805
2845.09769,0.02780
2843.03752,0.02760
2840.97735,0.02738
2838.91718,0.02704
2836.85700,0.02676
2834.79683,0.02668
2832.73666,0.02661
2830.67649,0.02649
2828.61632,0.02643
2826.55614,0.02644
2824.49597,0.02645
2822.43580,0.02635
2820.37563,0.02614
2818.31546,0.02597
2816.25528,0.02595
2814.19511,0.02602
2812.13494,0.02605
2810.07477,0.02595
2808.01460,0.02572
2805.95442,0.02543
2803.89425,0.02512
2801.83408,0.02489
2799.77391,0.02483
2797.71373,0.02485
2795.65356,0.02485
2793.59339,0.02479
2791.53322,0.02471
2789.47305,0.02465
2787.41287,0.02452
2785.35270,0.02434
2783.29253,0.02426
2781.23236,0.02423
2779.17219,0.02420
2777.11201,0.02410
2775.05184,0.02386
2772.99167,0.02365
2770.93150,0.02360
2768.87133,0.02361
2766.81115,0.02358
2764.75098,0.02346
2762.69081,0.02331
2760.63064,0.02313
2758.57046,0.02291
2756.51029,0.02270
2754.45012,0.02266
2752.38995,0.02273
2750.32978,0.02270
2748.26960,0.02256
2746.20943,0.02250
2744.14926,0.02243
2742.08909,0.02229
2740.02892,0.02223
2737.96874,0.02228
2735.90857,0.02221
2733.84840,0.02198
2731.78823,0.02179
2729.72805,0.02173
2727.66788,0.02171
2725.60771,0.02162
2723.54754,0.02146
2721.48737,0.02127
2719.42719,0.02118
2717.36702,0.02123
2715.30685,0.02121
2713.24668,0.02100
2711.18651,0.02085
2709.12633,0.02082
2707.06616,0.02075
2705.00599,0.02070
2702.94582,0.02062
2700.88565,0.02048
2698.82547,0.02035
2696.76530,0.02025
2694.70513,0.02023
2692.64496,0.02023
2690.58478,0.02016
2688.52461,0.02004
2686.46444,0.01997
2684.40427,0.01989
2682.34410,0.01977
2680.28392,0.01971
2678.22375,0.01973
2676.16358,0.01969
2674.10341,0.01961
2672.04324,0.01952
2669.98306,0.01933
2667.92289,0.01917
2665.86272,0.01920
2663.80255,0.01922
2661.74238,0.01913
2659.68220,0.01902
2657.62203,0.01890
2655.56186,0.01875
2653.50169,0.01867
2651.44151,0.01863
2649.38134,0.01853
2647.32117,0.01839
2645.26100,0.01824
2643.20083,0.01814
2641.14065,0.01804
2639.08048,0.01796
2637.02031,0.01808
2634.96014,0.01826
2632.89997,0.01821
2630.83979,0.01806
2628.77962,0.01800
2626.71945,0.01796
2624.65928,0.01789
2622.59910,0.01776
2620.53893,0.01759
2618.47876,0.01754
2616.41859,0.01764
2614.35842,0.01781
2612.29824,0.01790
2610.23807,0.01779
2608.17790,0.01760
2606.11773,0.01753
2604.05756,0.01754
2601.99738,0.01761
2599.93721,0.01764
2597.87704,0.01748
2595.81687,0.01724
2593.75670,0.01713
2591.69652,0.01720
2589.63635,0.01727
2587.57618,0.01724
2585.51601,0.01717
2583.45583,0.01716
2581.39566,0.01727
2579.33549,0.01745
2577.27532,0.01739
2575.21515,0.01715
2573.15497,0.01700
2571.09480,0.01692
2569.03463,0.01696
2566.97446,0.01717
2564.91429,0.01730
2562.85411,0.01722
2560.79394,0.01716
2558.73377,0.01720
2556.67360,0.01717
2554.61342,0.01720
2552.55325,0.01742
2550.49308,0.01764
2548.43291,0.01771
2546.37274,0.01765
2544.31256,0.01752
2542.25239,0.01744
2540.19222,0.01730
2538.13205,0.01703
2536.07188,0.01691
2534.01170,0.01704
2531.95153,0.01723
2529.89136,0.01743
2527.83119,0.01767
2525.77102,0.01777
2523.71084,0.01769
2521.65067,0.01760
2519.59050,0.01760
2517.53033,0.01758
2515.47015,0.01751
2513.40998,0.01747
2511.34981,0.01758
2509.28964,0.01780
2507.22947,0.01801
2505.16929,0.01813
2503.10912,0.01818
2501.04895,0.01814
2498.98878,0.01780
2496.92861,0.01749
2494.86843,0.01773
2492.80826,0.01836
2490.74809,0.01868
2488.68792,0.01845
2486.62775,0.01829
2484.56757,0.01863
2482.50740,0.01903
2480.44723,0.01915
2478.38706,0.01909
2476.32688,0.01897
2474.26671,0.01895
2472.20654,0.01895
2470.14637,0.01890
2468.08620,0.01895
2466.02602,0.01900
2463.96585,0.01904
2461.90568,0.01916
2459.84551,0.01922
2457.78534,0.01921
2455.72516,0.01921
2453.66499,0.01910
2451.60482,0.01880
2449.54465,0.01867
2447.48447,0.01897
2445.42430,0.01929
2443.36413,0.01941
2441.30396,0.01960
2439.24379,0.01981
2437.18361,0.01964
2435.12344,0.01925
2433.06327,0.01900
2431.00310,0.01879
2428.94293,0.01883
2426.88275,0.01914
2424.82258,0.01927
2422.76241,0.01931
2420.70224,0.01940
2418.64207,0.01927
2416.58189,0.01898
2414.52172,0.01883
2412.46155,0.01866
2410.40138,0.01845
2408.34120,0.01854
2406.28103,0.01882
2404.22086,0.01899
2402.16069,0.01904
2400.10052,0.01896
2398.04034,0.01908
2395.98017,0.01923
2393.92000,0.01927
2391.85983,0.01908
2389.79966,0.01882
2387.73948,0.01860
2385.67931,0.01839
2383.61914,0.01822
2381.55897,0.01806
2379.49880,0.01777
2377.43862,0.01742
2375.37845,0.01707
2373.31828,0.01727
2371.25811,0.01771
2369.19793,0.01773
2367.13776,0.01780
2365.07759,0.01790
2363.01742,0.01693
2360.95725,0.01702
2358.89707,0.01672
2356.83690,0.01645
2354.77673,0.01605
2352.71656,0.01615
2350.65639,0.01792
2348.59621,0.01892
2346.53604,0.01596
2344.47587,0.01574
2342.41570,0.01692
2340.35552,0.01768
2338.29535,0.01790
2336.23518,0.01773
2334.17501,0.01763
2332.11484,0.01734
2330.05466,0.01690
2327.99449,0.01613
2325.93432,0.01627
2323.87415,0.01585
2321.81398,0.01570
2319.75380,0.01539
2317.69363,0.01579
2315.63346,0.01576
2313.57329,0.01548
2311.51312,0.01547
2309.45294,0.01550
2307.39277,0.01552
2305.33260,0.01563
2303.27243,0.01594
2301.21225,0.01601
2299.15208,0.01571
2297.09191,0.01532
2295.03174,0.01533
2292.97157,0.01572
2290.91139,0.01602
2288.85122,0.01613
2286.79105,0.01618
2284.73088,0.01615
2282.67071,0.01609
2280.61053,0.01615
2278.55036,0.01632
2276.49019,0.01626
2274.43002,0.01594
2272.36984,0.01557
2270.30967,0.01543
2268.24950,0.01546
2266.18933,0.01556
2264.12916,0.01570
2262.06898,0.01578
2260.00881,0.01569
2257.94864,0.01561
2255.88847,0.01551
2253.82830,0.01527
2251.76812,0.01502
2249.70795,0.01498
2247.64778,0.01515
2245.58761,0.01530
2243.52744,0.01481
2241.46726,0.01395
2239.40709,0.01387
2237.34692,0.01439
2235.28675,0.01443
2233.22657,0.01453
2231.16640,0.01521
2229.10623,0.01543
2227.04606,0.01497
2224.98589,0.01458
2222.92571,0.01428
2220.86554,0.01395
2218.80537,0.01384
2216.74520,0.01387
2214.68503,0.01370
2212.62485,0.01349
2210.56468,0.01367
2208.50451,0.01381
2206.44434,0.01342
2204.38417,0.01314
2202.32399,0.01324
2200.26382,0.01282
2198.20365,0.01260
2196.14348,0.01337
2194.08330,0.01357
2192.02313,0.01325
2189.96296,0.01331
2187.90279,0.01298
2185.84262,0.01217
2183.78244,0.01183
2181.72227,0.01212
2179.66210,0.01241
2177.60193,0.01260
2175.54176,0.01282
2173.48158,0.01291
2171.42141,0.01233
2169.36124,0.01129
2167.30107,0.01100
2165.24089,0.01179
2163.18072,0.01241
2161.12055,0.01165
2159.06038,0.01020
2157.00021,0.01007
2154.94003,0.01103
2152.87986,0.01185
2150.81969,0.01238
2148.75952,0.01229
2146.69935,0.01165
2144.63917,0.01126
2142.57900,0.01136
2140.51883,0.01152
2138.45866,0.01152
2136.39849,0.01163
2134.33831,0.01180
2132.27814,0.01173
2130.21797,0.01154
2128.15780,0.01168
2126.09762,0.01189
2124.03745,0.01147
2121.97728,0.01105
2119.91711,0.01122
2117.85694,0.01126
2115.79676,0.01117
2113.73659,0.01149
2111.67642,0.01163
2109.61625,0.01130
2107.55608,0.01110
2105.49590,0.01101
2103.43573,0.01082
2101.37556,0.01095
2099.31539,0.01165
2097.25521,0.01180
2095.19504,0.01135
2093.13487,0.01074
2091.07470,0.01047
2089.01453,0.01060
2086.95435,0.01086
2084.89418,0.01100
2082.83401,0.01097
2080.77384,0.01095
2078.71367,0.01089
2076.65349,0.01087
2074.59332,0.01097
2072.53315,0.01097
2070.47298,0.01095
2068.41281,0.01138
2066.35263,0.01174
2064.29246,0.01125
2062.23229,0.01047
2060.17212,0.01006
2058.11194,0.01004
2056.05177,0.01015
2053.99160,0.01024
2051.93143,0.01049
2049.87126,0.01095
2047.81108,0.01157
2045.75091,0.01220
2043.69074,0.01253
2041.63057,0.01244
2039.57040,0.01215
2037.51022,0.01216
2035.45005,0.01240
2033.38988,0.01176
2031.32971,0.00991
2029.26954,0.00873
2027.20936,0.00938
2025.14919,0.01059
2023.08902,0.01096
2021.02885,0.01064
2018.96867,0.01045
2016.90850,0.01069
2014.84833,0.01097
2012.78816,0.01123
2010.72799,0.01174
2008.66781,0.01223
2006.60764,0.01172
2004.54747,0.00991
2002.48730,0.00847
2000.42713,0.00858
1998.36695,0.00928
1996.30678,0.00975
1994.24661,0.01002
1992.18644,0.00988
1990.12626,0.00965
1988.06609,0.00989
1986.00592,0.01011
1983.94575,0.01037
1981.88558,0.01101
1979.82540,0.01133
1977.76523,0.01109
1975.70506,0.01100
1973.64489,0.01149
1971.58472,0.01215
1969.52454,0.01242
1967.46437,0.01219
1965.40420,0.01155
1963.34403,0.01076
1961.28386,0.01033
1959.22368,0.01036
1957.16351,0.01022
1955.10334,0.00967
1953.04317,0.00942
1950.98299,0.00973
1948.92282,0.01022
1946.86265,0.01071
1944.80248,0.01107
1942.74231,0.01109
1940.68213,0.01084
1938.62196,0.01068
1936.56179,0.01074
1934.50162,0.01092
1932.44145,0.01096
1930.38127,0.01091
1928.32110,0.01103
1926.26093,0.01111
1924.20076,0.01081
1922.14059,0.01039
1920.08041,0.01034
1918.02024,0.01065
1915.96007,0.01105
1913.89990,0.01142
1911.83972,0.01152
1909.77955,0.01130
1907.71938,0.01112
1905.65921,0.01130
1903.59904,0.01157
1901.53886,0.01149
1899.47869,0.01118
1897.41852,0.01109
1895.35835,0.01124
1893.29818,0.01132
1891.23800,0.01123
1889.17783,0.01102
1887.11766,0.01094
1885.05749,0.01106
1882.99731,0.01121
1880.93714,0.01135
1878.87697,0.01145
1876.81680,0.01148
1874.75663,0.01164
1872.69645,0.01203
1870.63628,0.01243
1868.57611,0.01250
1866.51594,0.01225
1864.45577,0.01205
1862.39559,0.01200
1860.33542,0.01207
1858.27525,0.01225
1856.21508,0.01242
1854.15491,0.01244
1852.09473,0.01243
1850.03456,0.01245
1847.97439,0.01235
1845.91422,0.01202
1843.85404,0.01160
1841.79387,0.01155
1839.73370,0.01200
1837.67353,0.01244
1835.61336,0.01246
1833.55318,0.01246
1831.49301,0.01279
1829.43284,0.01315
1827.37267,0.01323
1825.31250,0.01316
1823.25232,0.01304
1821.19215,0.01301
1819.13198,0.01302
1817.07181,0.01299
1815.01163,0.01292
1812.95146,0.01272
1810.89129,0.01238
1808.83112,0.01224
1806.77095,0.01245
1804.71077,0.01272
1802.65060,0.01278
1800.59043,0.01283
1798.53026,0.01287
1796.47009,0.01287
1794.40991,0.01298
1792.34974,0.01307
1790.28957,0.01292
1788.22940,0.01263
1786.16923,0.01240
1784.10905,0.01248
1782.04888,0.01282
1779.98871,0.01298
1777.92854,0.01295
1775.86836,0.01306
1773.80819,0.01327
1771.74802,0.01308
1769.68785,0.01258
1767.62768,0.01239
1765.56750,0.01263
1763.50733,0.01300
1761.44716,0.01314
1759.38699,0.01306
1757.32682,0.01306
1755.26664,0.01323
1753.20647,0.01346
1751.14630,0.01362
1749.08613,0.01360
1747.02596,0.01348
1744.96578,0.01350
1742.90561,0.01376
1740.84544,0.01397
1738.78527,0.01404
1736.72509,0.01417
1734.66492,0.01417
1732.60475,0.01388
1730.54458,0.01376
1728.48441,0.01383
1726.42423,0.01395
1724.36406,0.01407
1722.30389,0.01431
1720.24372,0.01486
1718.18355,0.01509
1716.12337,0.01435
1714.06320,0.01371
1712.00303,0.01372
1709.94286,0.01410
1707.88268,0.01447
1705.82251,0.01455
1703.76234,0.01455
1701.70217,0.01482
1699.64200,0.01501
1697.58182,0.01497
1695.52165,0.01499
1693.46148,0.01524
1691.40131,0.01572
1689.34114,0.01644
1687.28096,0.01744
1685.22079,0.01844
1683.16062,0.01858
1681.10045,0.01836
1679.04028,0.01864
1676.98010,0.01944
1674.91993,0.02036
1672.85976,0.02115
1670.79959,0.02171
1668.73941,0.02189
1666.67924,0.02197
1664.61907,0.02233
1662.55890,0.02265
1660.49873,0.02266
1658.43855,0.02279
1656.37838,0.02342
1654.31821,0.02392
1652.25804,0.02340
1650.19787,0.02308
1648.13769,0.02320
1646.07752,0.02303
1644.01735,0.02261
1641.95718,0.02261
1639.89701,0.02316
1637.83683,0.02375
1635.77666,0.02352
1633.71649,0.02284
1631.65632,0.02269
1629.59614,0.02283
1627.53597,0.02280
1625.47580,0.02261
1623.41563,0.02227
1621.35546,0.02192
1619.29528,0.02205
1617.23511,0.02232
1615.17494,0.02199
1613.11477,0.02150
1611.05460,0.02134
1608.99442,0.02136
1606.93425,0.02133
1604.87408,0.02131
1602.81391,0.02123
1600.75373,0.02101
1598.69356,0.02081
1596.63339,0.02063
1594.57322,0.02038
1592.51305,0.02010
1590.45287,0.01990
1588.39270,0.01969
1586.33253,0.01942
1584.27236,0.01909
1582.21219,0.01876
1580.15201,0.01871
1578.09184,0.01882
1576.03167,0.01839
1573.97150,0.01759
1571.91133,0.01725
1569.85115,0.01712
1567.79098,0.01662
1565.73081,0.01611
1563.67064,0.01610
1561.61046,0.01673
1559.55029,0.01680
1557.49012,0.01525
1555.42995,0.01414
1553.36978,0.01386
1551.30960,0.01375
1549.24943,0.01358
1547.18926,0.01355
1545.12909,0.01384
1543.06892,0.01423
1541.00874,0.01422
1538.94857,0.01333
1536.88840,0.01249
1534.82823,0.01221
1532.76805,0.01208
1530.70788,0.01187
1528.64771,0.01176
1526.58754,0.01159
1524.52737,0.01139
1522.46719,0.01125
1520.40702,0.01087
1518.34685,0.01048
1516.28668,0.01009
1514.22651,0.00960
1512.16633,0.00939
1510.10616,0.00970
1508.04599,0.01004
1505.98582,0.00975
1503.92565,0.00924
1501.86547,0.00903
1499.80530,0.00923
1497.74513,0.00945
1495.68496,0.00945
1493.62478,0.00964
1491.56461,0.01001
1489.50444,0.00994
1487.44427,0.00945
1485.38410,0.00922
1483.32392,0.00933
1481.26375,0.00952
1479.20358,0.00974
1477.14341,0.01001
1475.08324,0.01023
1473.02306,0.01026
1470.96289,0.01007
1468.90272,0.00993
1466.84255,0.01007
1464.78238,0.01023
1462.72220,0.01029
1460.66203,0.01068
1458.60186,0.01097
1456.54169,0.01037
1454.48151,0.00985
1452.42134,0.00999
1450.36117,0.01051
1448.30100,0.01100
1446.24083,0.01123
1444.18065,0.01136
1442.12048,0.01149
1440.06031,0.01162
1438.00014,0.01163
1435.93997,0.01146
1433.87979,0.01146
1431.81962,0.01174
1429.75945,0.01208
1427.69928,0.01233
1425.63910,0.01265
1423.57893,0.01300
1421.51876,0.01320
1419.45859,0.01317
1417.39842,0.01319
1415.33824,0.01359
1413.27807,0.01414
1411.21790,0.01456
1409.15773,0.01483
1407.09756,0.01502
1405.03738,0.01510
1402.97721,0.01514
1400.91704,0.01518
1398.85687,0.01501
1396.79670,0.01473
1394.73652,0.01458
1392.67635,0.01452
1390.61618,0.01454
1388.55601,0.01464
1386.49583,0.01473
1384.43566,0.01481
1382.37549,0.01485
1380.31532,0.01483
1378.25515,0.01492
1376.19497,0.01513
1374.13480,0.01517
1372.07463,0.01508
1370.01446,0.01516
1367.95429,0.01531
1365.89411,0.01534
1363.83394,0.01515
1361.77377,0.01483
1359.71360,0.01472
1357.65343,0.01480
1355.59325,0.01482
1353.53308,0.01474
1351.47291,0.01461
1349.41274,0.01437
1347.35256,0.01399
1345.29239,0.01361
1343.23222,0.01323
1341.17205,0.01272
1339.11188,0.01212
1337.05170,0.01188
1334.99153,0.01200
1332.93136,0.01205
1330.87119,0.01186
1328.81102,0.01163
1326.75084,0.01148
1324.69067,0.01140
1322.63050,0.01133
1320.57033,0.01118
1318.51015,0.01095
1316.44998,0.01080
1314.38981,0.01076
1312.32964,0.01071
1310.26947,0.01060
1308.20929,0.01046
1306.14912,0.01031
1304.08895,0.01024
1302.02878,0.01022
1299.96861,0.01014
1297.90843,0.01008
1295.84826,0.01014
1293.78809,0.01020
1291.72792,0.01009
1289.66775,0.00984
1287.60757,0.00971
1285.54740,0.00975
1283.48723,0.00982
1281.42706,0.00984
1279.36688,0.00983
1277.30671,0.00984
1275.24654,0.00980
1273.18637,0.00971
1271.12620,0.00962
1269.06602,0.00958
1267.00585,0.00953
1264.94568,0.00951
1262.88551,0.00958
1260.82534,0.00961
1258.76516,0.00957
1256.70499,0.00954
1254.64482,0.00947
1252.58465,0.00940
1250.52447,0.00940
1248.46430,0.00939
1246.40413,0.00927
1244.34396,0.00908
1242.28379,0.00890
1240.22361,0.00875
1238.16344,0.00862
1236.10327,0.00851
1234.04310,0.00843
1231.98293,0.00836
1229.92275,0.00827
1227.86258,0.00803
1225.80241,0.00772
1223.74224,0.00751
1221.68207,0.00736
1219.62189,0.00728
1217.56172,0.00729
1215.50155,0.00720
1213.44138,0.00698
1211.38120,0.00681
1209.32103,0.00679
1207.26086,0.00687
1205.20069,0.00698
1203.14052,0.00715
1201.08034,0.00743
1199.02017,0.00777
1196.96000,0.00826
1194.89983,0.00879
1192.83966,0.00933
1190.77948,0.00996
1188.71931,0.01072
1186.65914,0.01160
1184.59897,0.01263
1182.53880,0.01372
1180.47862,0.01483
1178.41845,0.01591
1176.35828,0.01681
1174.29811,0.01769
1172.23793,0.01869
1170.17776,0.01970
1168.11759,0.02065
1166.05742,0.02155
1163.99725,0.02244
1161.93707,0.02335
1159.87690,0.02436
1157.81673,0.02543
1155.75656,0.02636
1153.69639,0.02717
1151.63621,0.02804
1149.57604,0.02897
1147.51587,0.02977
1145.45570,0.03044
1143.39552,0.03108
1141.33535,0.03174
1139.27518,0.03231
1137.21501,0.03282
1135.15484,0.03338
1133.09466,0.03395
1131.03449,0.03439
1128.97432,0.03489
1126.91415,0.03549
1124.85398,0.03612
1122.79380,0.03694
1120.73363,0.03788
1118.67346,0.03872
1116.61329,0.03965
1114.55312,0.04084
1112.49294,0.04204
1110.43277,0.04314
1108.37260,0.04429
1106.31243,0.04553
1104.25225,0.04667
1102.19208,0.04773
1100.13191,0.04893
1098.07174,0.05028
1096.01157,0.05155
1093.95139,0.05269
1091.89122,0.05374
1089.83105,0.05481
1087.77088,0.05603
1085.71071,0.05734
1083.65053,0.05856
1081.59036,0.05974
1079.53019,0.06098
1077.47002,0.06218
1075.40985,0.06317
1073.34967,0.06401
1071.28950,0.06481
1069.22933,0.06538
1067.16916,0.06558
1065.10898,0.06559
1063.04881,0.06561
1060.98864,0.06553
1058.92847,0.06515
1056.86830,0.06450
1054.80812,0.06364
1052.74795,0.06251
1050.68778,0.06114
1048.62761,0.05958
1046.56744,0.05790
1044.50726,0.05617
1042.44709,0.05430
1040.38692,0.05229
1038.32675,0.05020
1036.26657,0.04802
1034.20640,0.04576
1032.14623,0.04363
1030.08606,0.04183
1028.02589,0.04025
1025.96571,0.03864
1023.90554,0.03703
1021.84537,0.03551
1019.78520,0.03422
1017.72503,0.03322
1015.66485,0.03250
1013.60468,0.03204
1011.54451,0.03187
1009.48434,0.03202
1007.42417,0.03238
1005.36399,0.03297
1003.30382,0.03391
1001.24365,0.03514
999.18348,0.03648
997.12330,0.03781
995.06313,0.03897
993.00296,0.03987
990.94279,0.04076
988.88262,0.04178
986.82244,0.04277
984.76227,0.04359
982.70210,0.04424
980.64193,0.04472
978.58176,0.04495
976.52158,0.04502
974.46141,0.04517
972.40124,0.04534
970.34107,0.04513
968.28089,0.04444
966.22072,0.04359
964.16055,0.04290
962.10038,0.04227
960.04021,0.04155
957.98003,0.04077
955.91986,0.04005
953.85969,0.03948
951.79952,0.03889
949.73935,0.03810
947.67917,0.03728
945.61900,0.03657
943.55883,0.03590
941.49866,0.03513
939.43849,0.03421
937.37831,0.03329
935.31814,0.03225
933.25797,0.03099
931.19780,0.02985
929.13762,0.02887
927.07745,0.02794
925.01728,0.02708
922.95711,0.02619
920.89694,0.02524
918.83676,0.02428
916.77659,0.02326
914.71642,0.02221
912.65625,0.02132
910.59608,0.02071
908.53590,0.02013
906.47573,0.01939
904.41556,0.01876
902.35539,0.01848
900.29522,0.01837
898.23504,0.01829
896.17487,0.01836
894.11470,0.01862
892.05453,0.01906
889.99435,0.01970
887.93418,0.02026
885.87401,0.02077
883.81384,0.02169
881.75367,0.02291
879.69349,0.02400
877.63332,0.02515
875.57315,0.02665
873.51298,0.02819
871.45281,0.02965
869.39263,0.03116
867.33246,0.03268
865.27229,0.03415
863.21212,0.03544
861.15194,0.03640
859.09177,0.03713
857.03160,0.03764
854.97143,0.03791
852.91126,0.03800
850.85108,0.03777
848.79091,0.03724
846.73074,0.03666
844.67057,0.03585
842.61040,0.03467
840.55022,0.03344
838.49005,0.03239
836.42988,0.03143
834.36971,0.03045
832.30954,0.02950
830.24936,0.02875
828.18919,0.02810
826.12902,0.02718
824.06885,0.02603
822.00867,0.02512
819.94850,0.02435
817.88833,0.02345
815.82816,0.02254
813.76799,0.02177
811.70781,0.02095
809.64764,0.02007
807.58747,0.01942
805.52730,0.01911
803.46713,0.01900
801.40695,0.01871
799.34678,0.01802
797.28661,0.01722
795.22644,0.01661
793.16627,0.01618
791.10609,0.01578
789.04592,0.01524
786.98575,0.01477
784.92558,0.01467
782.86540,0.01459
780.80523,0.01424
778.74506,0.01399
776.68489,0.01392
774.62472,0.01371
772.56454,0.01344
770.50437,0.01334
768.44420,0.01309
766.38403,0.01255
764.32386,0.01226
762.26368,0.01216
760.20351,0.01171
758.14334,0.01112
756.08317,0.01085
754.02299,0.01087
751.96282,0.01101
749.90265,0.01088
747.84248,0.01026
745.78231,0.00965
743.72213,0.00942
741.66196,0.00907
739.60179,0.00844
737.54162,0.00822
735.48145,0.00861
733.42127,0.00905
731.36110,0.00910
729.30093,0.00885
727.24076,0.00860
725.18059,0.00827
723.12041,0.00764
721.06024,0.00675
719.00007,0.00694
716.93990,0.00736
714.87972,0.00754
712.81955,0.00761
710.75938,0.00762
708.69921,0.00747
706.63904,0.00726
704.57886,0.00747
702.51869,0.00797
700.45852,0.00788
698.39835,0.00694
696.33818,0.00596
694.27800,0.00573
692.21783,0.00625
690.15766,0.00680
688.09749,0.00690
686.03731,0.00701
683.97714,0.00757
681.91697,0.00798
679.85680,0.00785
677.79663,0.00749
675.73645,0.00720
673.67628,0.00786
671.61611,0.01014
669.55594,0.00820
667.49577,0.00220
665.43559,0.00837
663.37542,0.00718
661.31525,0.00552
659.25508,0.00544
657.19491,0.00537
655.13473,0.00509
653.07456,0.00521
651.01439,0.00543
648.95422,0.00484
646.89404,0.00381
644.83387,0.00303
642.77370,0.00338
640.71353,0.00449
638.65336,0.00536
636.59318,0.00547
634.53301,0.00500
632.47284,0.00433
630.41267,0.00386
628.35250,0.00406
626.29232,0.00489
624.23215,0.00492
622.17198,0.00356
620.11181,0.00179
618.05164,0.00097
615.99146,0.00079
613.93129,0.00072
611.87112,0.00080
609.81095,0.00056
607.75077,0.00047
605.69060,0.00070
603.63043,0.00043
601.57026,0.00000
599.51009,0.00000
