3996.73391,-0.00061
3994.67373,-0.00064
3992.61356,-0.00053
3990.55339,-0.00027
3988.49322,-0.00001
3986.43305,0.00009
3984.37287,-0.00001
3982.31270,-0.00020
3980.25253,-0.00025
3978.19236,-0.00014
3976.13219,-0.00012
3974.07201,-0.00016
3972.01184,-0.00009
3969.95167,0.00007
3967.89150,0.00021
3965.83133,0.00030
3963.77115,0.00027
3961.71098,0.00015
3959.65081,0.00010
3957.59064,0.00020
3955.53046,0.00038
3953.47029,0.00053
3951.41012,0.00046
3949.34995,0.00011
3947.28978,0.00000
3945.22960,0.00037
3943.16943,0.00059
3941.10926,0.00043
3939.04909,0.00039
3936.98892,0.00056
3934.92874,0.00059
3932.86857,0.00051
3930.80840,0.00059
3928.74823,0.00070
3926.68805,0.00074
3924.62788,0.00070
3922.56771,0.00040
3920.50754,0.00001
3918.44737,0.00000
3916.38719,0.00058
3914.32702,0.00131
3912.26685,0.00163
3910.20668,0.00161
3908.14651,0.00159
3906.08633,0.00156
3904.02616,0.00126
3901.96599,0.00098
3899.90582,0.00118
3897.84565,0.00143
3895.78547,0.00130
3893.72530,0.00101
3891.66513,0.00097
3889.60496,0.00113
3887.54478,0.00105
3885.48461,0.00079
3883.42444,0.00063
3881.36427,0.00074
3879.30410,0.00101
3877.24392,0.00107
3875.18375,0.00096
3873.12358,0.00088
3871.06341,0.00088
3869.00324,0.00101
3866.94306,0.00097
3864.88289,0.00075
3862.82272,0.00066
3860.76255,0.00066
3858.70237,0.00046
3856.64220,-0.00004
3854.58203,0.00000
3852.52186,0.00107
3850.46169,0.00197
3848.40151,0.00177
3846.34134,0.00141
3844.28117,0.00155
3842.22100,0.00179
3840.16083,0.00158
3838.10065,0.00122
3836.04048,0.00133
3833.98031,0.00173
3831.92014,0.00207
3829.85997,0.00229
3827.79979,0.00222
3825.73962,0.00182
3823.67945,0.00153
3821.61928,0.00185
3819.55910,0.00222
3817.49893,0.00217
3815.43876,0.00205
3813.37859,0.00198
3811.31842,0.00181
3809.25824,0.00180
3807.19807,0.00202
3805.13790,0.00223
3803.07773,0.00250
3801.01756,0.00280
3798.95738,0.00261
3796.89721,0.00226
3794.83704,0.00239
3792.77687,0.00276
3790.71670,0.00292
3788.65652,0.00294
3786.59635,0.00292
3784.53618,0.00287
3782.47601,0.00287
3780.41583,0.00308
3778.35566,0.00333
3776.29549,0.00329
3774.23532,0.00289
3772.17515,0.00250
3770.11497,0.00238
3768.05480,0.00238
3765.99463,0.00240
3763.93446,0.00244
3761.87429,0.00252
3759.81411,0.00243
3757.75394,0.00196
3755.69377,0.00143
3753.63360,0.00123
3751.57342,0.00109
3749.51325,0.00058
3747.45308,0.00017
3745.39291,0.00012
3743.33274,0.00058
3741.27256,0.00074
3739.21239,0.00040
3737.15222,0.00053
3735.09205,0.00100
3733.03188,0.00114
3730.97170,0.00116
3728.91153,0.00125
3726.85136,0.00128
3724.79119,0.00125
3722.73102,0.00141
3720.67084,0.00176
3718.61067,0.00182
3716.55050,0.00157
3714.49033,0.00169
3712.43015,0.00258
3710.36998,0.00343
3708.30981,0.00363
3706.24964,0.00343
3704.18947,0.00313
3702.12929,0.00289
3700.06912,0.00283
3698.00895,0.00299
3695.94878,0.00313
3693.88861,0.00312
3691.82843,0.00326
3689.76826,0.00358
3687.70809,0.00379
3685.64792,0.00380
3683.58775,0.00372
3681.52757,0.00368
3679.46740,0.00359
3677.40723,0.00353
3675.34706,0.00370
3673.28688,0.00389
3671.22671,0.00399
3669.16654,0.00409
3667.10637,0.00397
3665.04620,0.00373
3662.98602,0.00361
3660.92585,0.00354
3658.86568,0.00343
3656.80551,0.00335
3654.74534,0.00334
3652.68516,0.00353
3650.62499,0.00394
3648.56482,0.00414
3646.50465,0.00415
3644.44447,0.00402
3642.38430,0.00408
3640.32413,0.00432
3638.26396,0.00433
3636.20379,0.00426
3634.14361,0.00441
3632.08344,0.00467
3630.02327,0.00502
3627.96310,0.00541
3625.90293,0.00558
3623.84275,0.00551
3621.78258,0.00554
3619.72241,0.00575
3617.66224,0.00573
3615.60207,0.00527
3613.54189,0.00476
3611.48172,0.00466
3609.42155,0.00517
3607.36138,0.00581
3605.30120,0.00605
3603.24103,0.00613
3601.18086,0.00647
3599.12069,0.00695
3597.06052,0.00732
3595.00034,0.00744
3592.94017,0.00747
3590.88000,0.00756
3588.81983,0.00757
3586.75966,0.00744
3584.69948,0.00748
3582.63931,0.00776
3580.57914,0.00820
3578.51897,0.00874
3576.45879,0.00919
3574.39862,0.00936
3572.33845,0.00930
3570.27828,0.00922
3568.21811,0.00919
3566.15793,0.00945
3564.09776,0.00992
3562.03759,0.01014
3559.97742,0.01019
3557.91725,0.01024
3555.85707,0.01028
3553.79690,0.01046
3551.73673,0.01082
3549.67656,0.01097
3547.61639,0.01064
3545.55621,0.01033
3543.49604,0.01058
3541.43587,0.01116
3539.37570,0.01166
3537.31552,0.01194
3535.25535,0.01211
3533.19518,0.01233
3531.13501,0.01259
3529.07484,0.01274
3527.01466,0.01265
3524.95449,0.01245
3522.89432,0.01248
3520.83415,0.01283
3518.77398,0.01326
3516.71380,0.01362
3514.65363,0.01392
3512.59346,0.01415
3510.53329,0.01417
3508.47312,0.01405
3506.41294,0.01401
3504.35277,0.01401
3502.29260,0.01403
3500.23243,0.01430
3498.17225,0.01475
3496.11208,0.01509
3494.05191,0.01529
3491.99174,0.01544
3489.93157,0.01553
3487.87139,0.01551
3485.81122,0.01546
3483.75105,0.01562
3481.69088,0.01599
3479.63071,0.01627
3477.57053,0.01632
3475.51036,0.01634
3473.45019,0.01642
3471.39002,0.01651
3469.32984,0.01665
3467.26967,0.01691
3465.20950,0.01716
3463.14933,0.01720
3461.08916,0.01709
3459.02898,0.01716
3456.96881,0.01755
3454.90864,0.01788
3452.84847,0.01797
3450.78830,0.01790
3448.72812,0.01785
3446.66795,0.01797
3444.60778,0.01813
3442.54761,0.01826
3440.48744,0.01832
3438.42726,0.01830
3436.36709,0.01825
3434.30692,0.01825
3432.24675,0.01836
3430.18657,0.01856
3428.12640,0.01869
3426.06623,0.01871
3424.00606,0.01871
3421.94589,0.01875
3419.88571,0.01880
3417.82554,0.01913
3415.76537,0.01952
3413.70520,0.01965
3411.64503,0.01966
3409.58485,0.01963
3407.52468,0.01968
3405.46451,0.01982
3403.40434,0.01982
3401.34416,0.01969
3399.28399,0.01922
3397.22382,0.01938
3395.16365,0.01962
3393.10348,0.01985
3391.04330,0.02001
3388.98313,0.02007
3386.92296,0.02014
3384.86279,0.02034
3382.80262,0.02064
3380.74244,0.02094
3378.68227,0.02121
3376.62210,0.02140
3374.56193,0.02149
3372.50176,0.02145
3370.44158,0.02131
3368.38141,0.02116
3366.32124,0.02105
3364.26107,0.02113
3362.20089,0.02140
3360.14072,0.02161
3358.08055,0.02164
3356.02038,0.02166
3353.96021,0.02173
3351.90003,0.02178
3349.83986,0.02189
3347.77969,0.02205
3345.71952,0.02207
3343.65935,0.02200
3341.59917,0.02194
3339.53900,0.02189
3337.47883,0.02204
3335.41866,0.02232
3333.35849,0.02246
3331.29831,0.02261
3329.23814,0.02282
3327.17797,0.02283
3325.11780,0.02259
3323.05762,0.02247
3320.99745,0.02267
3318.93728,0.02290
3316.87711,0.02289
3314.81694,0.02267
3312.75676,0.02245
3310.69659,0.02245
3308.63642,0.02264
3306.57625,0.02284
3304.51608,0.02302
3302.45590,0.02328
3300.39573,0.02348
3298.33556,0.02350
3296.27539,0.02341
3294.21521,0.02329
3292.15504,0.02319
3290.09487,0.02322
3288.03470,0.02346
3285.97453,0.02373
3283.91435,0.02377
3281.85418,0.02367
3279.79401,0.02357
3277.73384,0.02344
3275.67367,0.02333
3273.61349,0.02342
3271.55332,0.02362
3269.49315,0.02370
3267.43298,0.02386
3265.37281,0.02422
3263.31263,0.02439
3261.25246,0.02422
3259.19229,0.02412
3257.13212,0.02418
3255.07194,0.02420
3253.01177,0.02417
3250.95160,0.02422
3248.89143,0.02435
3246.83126,0.02445
3244.77108,0.02454
3242.71091,0.02463
3240.65074,0.02463
3238.59057,0.02453
3236.53040,0.02444
3234.47022,0.02446
3232.41005,0.02463
3230.34988,0.02470
3228.28971,0.02459
3226.22954,0.02454
3224.16936,0.02463
3222.10919,0.02464
3220.04902,0.02458
3217.98885,0.02472
3215.92867,0.02494
3213.86850,0.02492
3211.80833,0.02470
3209.74816,0.02450
3207.68799,0.02451
3205.62781,0.02468
3203.56764,0.02487
3201.50747,0.02494
3199.44730,0.02493
3197.38713,0.02496
3195.32695,0.02504
3193.26678,0.02500
3191.20661,0.02488
3189.14644,0.02482
3187.08626,0.02484
3185.02609,0.02483
3182.96592,0.02489
3180.90575,0.02500
3178.84558,0.02502
3176.78540,0.02509
3174.72523,0.02517
3172.66506,0.02510
3170.60489,0.02507
3168.54472,0.02525
3166.48454,0.02541
3164.42437,0.02543
3162.36420,0.02536
3160.30403,0.02527
3158.24386,0.02529
3156.18368,0.02534
3154.12351,0.02519
3152.06334,0.02500
3150.00317,0.02498
3147.94299,0.02499
3145.88282,0.02497
3143.82265,0.02498
3141.76248,0.02507
3139.70231,0.02524
3137.64213,0.02533
3135.58196,0.02516
3133.52179,0.02494
3131.46162,0.02489
3129.40145,0.02488
3127.34127,0.02472
3125.28110,0.02460
3123.22093,0.02459
3121.16076,0.02466
3119.10058,0.02477
3117.04041,0.02472
3114.98024,0.02453
3112.92007,0.02445
3110.85990,0.02448
3108.79972,0.02448
3106.73955,0.02443
3104.67938,0.02433
3102.61921,0.02431
3100.55904,0.02440
3098.49886,0.02441
3096.43869,0.02427
3094.37852,0.02419
3092.31835,0.02421
3090.25818,0.02420
3088.19800,0.02424
3086.13783,0.02442
3084.07766,0.02453
3082.01749,0.02435
3079.95731,0.02413
3077.89714,0.02415
3075.83697,0.02421
3073.77680,0.02423
3071.71663,0.02430
3069.65645,0.02426
3067.59628,0.02399
3065.53611,0.02380
3063.47594,0.02399
3061.41577,0.02426
3059.35559,0.02421
3057.29542,0.02398
3055.23525,0.02382
3053.17508,0.02373
3051.11491,0.02362
3049.05473,0.02349
3046.99456,0.02341
3044.93439,0.02342
3042.87422,0.02347
3040.81404,0.02348
3038.75387,0.02344
3036.69370,0.02335
3034.63353,0.02325
3032.57336,0.02315
3030.51318,0.02304
3028.45301,0.02293
3026.39284,0.02283
3024.33267,0.02284
3022.27250,0.02295
3020.21232,0.02295
3018.15215,0.02273
3016.09198,0.02248
3014.03181,0.02241
3011.97163,0.02243
3009.91146,0.02249
3007.85129,0.02253
3005.79112,0.02247
3003.73095,0.02229
3001.67077,0.02210
2999.61060,0.02200
2997.55043,0.02195
2995.49026,0.02197
2993.43009,0.02199
2991.36991,0.02213
2989.30974,0.02220
2987.24957,0.02213
2985.18940,0.02216
2983.12923,0.02219
2981.06905,0.02205
2979.00888,0.02193
2976.94871,0.02196
2974.88854,0.02198
2972.82836,0.02190
2970.76819,0.02185
2968.70802,0.02191
2966.64785,0.02196
2964.58768,0.02199
2962.52750,0.02203
2960.46733,0.02202
2958.40716,0.02209
2956.34699,0.02223
2954.28682,0.02219
2952.22664,0.02213
2950.16647,0.02213
2948.10630,0.02204
2946.04613,0.02183
2943.98596,0.02163
2941.92578,0.02146
2939.86561,0.02139
2937.80544,0.02142
2935.74527,0.02148
2933.68509,0.02163
2931.62492,0.02189
2929.56475,0.02207
2927.50458,0.02219
2925.44441,0.02228
2923.38423,0.02228
2921.32406,0.02225
2919.26389,0.02222
2917.20372,0.02221
2915.14355,0.02227
2913.08337,0.02231
2911.02320,0.02218
2908.96303,0.02193
2906.90286,0.02180
2904.84268,0.02181
2902.78251,0.02177
2900.72234,0.02168
2898.66217,0.02172
2896.60200,0.02182
2894.54182,0.02175
2892.48165,0.02161
2890.42148,0.02164
2888.36131,0.02182
2886.30114,0.02189
2884.24096,0.02190
2882.18079,0.02197
2880.12062,0.02197
2878.06045,0.02185
2876.00028,0.02170
2873.94010,0.02153
2871.87993,0.02146
2869.81976,0.02153
2867.75959,0.02167
2865.69941,0.02177
2863.63924,0.02166
2861.57907,0.02150
2859.51890,0.02148
2857.45873,0.02154
2855.39855,0.02162
2853.33838,0.02165
2851.27821,0.02158
2849.21804,0.02153
2847.15787,0.02153
2845.09769,0.02155
2843.03752,0.02157
2840.97735,0.02151
2838.91718,0.02131
2836.85700,0.02108
2834.79683,0.02098
2832.73666,0.02095
2830.67649,0.02092
2828.61632,0.02086
2826.55614,0.02087
2824.49597,0.02099
2822.43580,0.02106
2820.37563,0.02099
2818.31546,0.02088
2816.25528,0.02083
2814.19511,0.02085
2812.13494,0.02083
2810.07477,0.02072
2808.01460,0.02065
2805.95442,0.02064
2803.89425,0.02056
2801.83408,0.02051
2799.77391,0.02056
2797.71373,0.02052
2795.65356,0.02036
2793.59339,0.02026
2791.53322,0.02019
2789.47305,0.02008
2787.41287,0.01994
2785.35270,0.01985
2783.29253,0.01991
2781.23236,0.02003
2779.17219,0.02012
2777.11201,0.02012
2775.05184,0.01996
2772.99167,0.01974
2770.93150,0.01962
2768.87133,0.01960
2766.81115,0.01966
2764.75098,0.01965
2762.69081,0.01950
2760.63064,0.01935
2758.57046,0.01932
2756.51029,0.01942
2754.45012,0.01952
2752.38995,0.01956
2750.32978,0.01946
2748.26960,0.01931
2746.20943,0.01920
2744.14926,0.01914
2742.08909,0.01911
2740.02892,0.01909
2737.96874,0.01903
2735.90857,0.01895
2733.84840,0.01892
2731.78823,0.01892
2729.72805,0.01887
2727.66788,0.01880
2725.60771,0.01868
2723.54754,0.01852
2721.48737,0.01849
2719.42719,0.01854
2717.36702,0.01853
2715.30685,0.01857
2713.24668,0.01858
2711.18651,0.01858
2709.12633,0.01863
2707.06616,0.01853
2705.00599,0.01834
2702.94582,0.01827
2700.88565,0.01828
2698.82547,0.01823
2696.76530,0.01809
2694.70513,0.01807
2692.64496,0.01818
2690.58478,0.01821
2688.52461,0.01820
2686.46444,0.01816
2684.40427,0.01802
2682.34410,0.01784
2680.28392,0.01779
2678.22375,0.01786
2676.16358,0.01781
2674.10341,0.01769
2672.04324,0.01768
2669.98306,0.01769
2667.92289,0.01769
2665.86272,0.01766
2663.80255,0.01759
2661.74238,0.01753
2659.68220,0.01756
2657.62203,0.01761
2655.56186,0.01755
2653.50169,0.01739
2651.44151,0.01730
2649.38134,0.01724
2647.32117,0.01710
2645.26100,0.01697
2643.20083,0.01693
2641.14065,0.01687
2639.08048,0.01681
2637.02031,0.01691
2634.96014,0.01707
2632.89997,0.01701
2630.83979,0.01679
2628.77962,0.01670
2626.71945,0.01679
2624.65928,0.01688
2622.59910,0.01687
2620.53893,0.01675
2618.47876,0.01666
2616.41859,0.01674
2614.35842,0.01685
2612.29824,0.01684
2610.23807,0.01672
2608.17790,0.01660
2606.11773,0.01666
2604.05756,0.01678
2601.99738,0.01688
2599.93721,0.01701
2597.87704,0.01694
2595.81687,0.01674
2593.75670,0.01667
2591.69652,0.01669
2589.63635,0.01672
2587.57618,0.01676
2585.51601,0.01678
2583.45583,0.01681
2581.39566,0.01684
2579.33549,0.01682
2577.27532,0.01675
2575.21515,0.01669
2573.15497,0.01682
2571.09480,0.01693
2569.03463,0.01692
2566.97446,0.01701
2564.91429,0.01701
2562.85411,0.01685
2560.79394,0.01698
2558.73377,0.01714
2556.67360,0.01694
2554.61342,0.01675
2552.55325,0.01684
2550.49308,0.01703
2548.43291,0.01718
2546.37274,0.01721
2544.31256,0.01704
2542.25239,0.01679
2540.19222,0.01667
2538.13205,0.01684
2536.07188,0.01709
2534.01170,0.01713
2531.95153,0.01709
2529.89136,0.01712
2527.83119,0.01712
2525.77102,0.01710
2523.71084,0.01715
2521.65067,0.01716
2519.59050,0.01710
2517.53033,0.01711
2515.47015,0.01717
2513.40998,0.01724
2511.34981,0.01728
2509.28964,0.01736
2507.22947,0.01751
2505.16929,0.01767
2503.10912,0.01766
2501.04895,0.01741
2498.98878,0.01713
2496.92861,0.01712
2494.86843,0.01736
2492.80826,0.01767
2490.74809,0.01786
2488.68792,0.01777
2486.62775,0.01762
2484.56757,0.01771
2482.50740,0.01792
2480.44723,0.01804
2478.38706,0.01801
2476.32688,0.01797
2474.26671,0.01803
2472.20654,0.01802
2470.14637,0.01800
2468.08620,0.01820
2466.02602,0.01840
2463.96585,0.01853
2461.90568,0.01874
2459.84551,0.01873
2457.78534,0.01840
2455.72516,0.01822
2453.66499,0.01836
2451.60482,0.01837
2449.54465,0.01837
2447.48447,0.01872
2445.42430,0.01904
2443.36413,0.01910
2441.30396,0.01913
2439.24379,0.01907
2437.18361,0.01884
2435.12344,0.01858
2433.06327,0.01843
2431.00310,0.01845
2428.94293,0.01873
2426.88275,0.01907
2424.82258,0.01910
2422.76241,0.01897
2420.70224,0.01893
2418.64207,0.01887
2416.58189,0.01872
2414.52172,0.01858
2412.46155,0.01845
2410.40138,0.01828
2408.34120,0.01829
2406.28103,0.01843
2404.22086,0.01853
2402.16069,0.01869
2400.10052,0.01879
2398.04034,0.01894
2395.98017,0.01895
2393.92000,0.01887
2391.85983,0.01869
2389.79966,0.01849
2387.73948,0.01831
2385.67931,0.01799
2383.61914,0.01756
2381.55897,0.01733
2379.49880,0.01751
2377.43862,0.01778
2375.37845,0.01785
2373.31828,0.01785
2371.25811,0.01801
2369.19793,0.01866
2367.13776,0.01942
2365.07759,0.01912
2363.01742,0.01794
2360.95725,0.01710
2358.89707,0.01707
2356.83690,0.01763
2354.77673,0.01829
2352.71656,0.01832
2350.65639,0.01766
2348.59621,0.01709
2346.53604,0.01706
2344.47587,0.01723
2342.41570,0.01743
2340.35552,0.01770
2338.29535,0.01777
2336.23518,0.01758
2334.17501,0.01739
2332.11484,0.01728
2330.05466,0.01711
2327.99449,0.01685
2325.93432,0.01660
2323.87415,0.01645
2321.81398,0.01644
2319.75380,0.01647
2317.69363,0.01649
2315.63346,0.01643
2313.57329,0.01631
2311.51312,0.01629
2309.45294,0.01638
2307.39277,0.01648
2305.33260,0.01656
2303.27243,0.01669
2301.21225,0.01679
2299.15208,0.01668
2297.09191,0.01648
2295.03174,0.01652
2292.97157,0.01672
2290.91139,0.01691
2288.85122,0.01715
2286.79105,0.01731
2284.73088,0.01728
2282.67071,0.01724
2280.61053,0.01733
2278.55036,0.01745
2276.49019,0.01752
2274.43002,0.01748
2272.36984,0.01714
2270.30967,0.01681
2268.24950,0.01698
2266.18933,0.01733
2264.12916,0.01738
2262.06898,0.01733
2260.00881,0.01739
2257.94864,0.01737
2255.88847,0.01721
2253.82830,0.01689
2251.76812,0.01646
2249.70795,0.01634
2247.64778,0.01678
2245.58761,0.01723
2243.52744,0.01660
2241.46726,0.01555
2239.40709,0.01576
2237.34692,0.01671
2235.28675,0.01695
2233.22657,0.01687
2231.16640,0.01720
2229.10623,0.01739
2227.04606,0.01682
2224.98589,0.01629
2222.92571,0.01648
2220.86554,0.01641
2218.80537,0.01597
2216.74520,0.01621
2214.68503,0.01669
2212.62485,0.01680
2210.56468,0.01675
2208.50451,0.01660
2206.44434,0.01638
2204.38417,0.01632
2202.32399,0.01639
2200.26382,0.01601
2198.20365,0.01554
2196.14348,0.01558
2194.08330,0.01547
2192.02313,0.01535
2189.96296,0.01559
2187.90279,0.01546
2185.84262,0.01527
2183.78244,0.01566
2181.72227,0.01600
2179.66210,0.01620
2177.60193,0.01678
2175.54176,0.01698
2173.48158,0.01622
2171.42141,0.01521
2169.36124,0.01438
2167.30107,0.01423
2165.24089,0.01509
2163.18072,0.01597
2161.12055,0.01591
2159.06038,0.01518
2157.00021,0.01498
2154.94003,0.01559
2152.87986,0.01624
2150.81969,0.01640
2148.75952,0.01613
2146.69935,0.01590
2144.63917,0.01593
2142.57900,0.01582
2140.51883,0.01541
2138.45866,0.01486
2136.39849,0.01448
2134.33831,0.01457
2132.27814,0.01489
2130.21797,0.01500
2128.15780,0.01507
2126.09762,0.01527
2124.03745,0.01535
2121.97728,0.01537
2119.91711,0.01542
2117.85694,0.01526
2115.79676,0.01491
2113.73659,0.01479
2111.67642,0.01485
2109.61625,0.01485
2107.55608,0.01476
2105.49590,0.01455
2103.43573,0.01447
2101.37556,0.01476
2099.31539,0.01546
2097.25521,0.01559
2095.19504,0.01504
2093.13487,0.01415
2091.07470,0.01375
2089.01453,0.01408
2086.95435,0.01453
2084.89418,0.01464
2082.83401,0.01461
2080.77384,0.01501
2078.71367,0.01557
2076.65349,0.01574
2074.59332,0.01576
2072.53315,0.01577
2070.47298,0.01553
2068.41281,0.01530
2066.35263,0.01521
2064.29246,0.01479
2062.23229,0.01410
2060.17212,0.01389
2058.11194,0.01436
2056.05177,0.01500
2053.99160,0.01531
2051.93143,0.01525
2049.87126,0.01550
2047.81108,0.01637
2045.75091,0.01719
2043.69074,0.01737
2041.63057,0.01674
2039.57040,0.01604
2037.51022,0.01616
2035.45005,0.01643
2033.38988,0.01581
2031.32971,0.01495
2029.26954,0.01486
2027.20936,0.01539
2025.14919,0.01616
2023.08902,0.01668
2021.02885,0.01641
2018.96867,0.01550
2016.90850,0.01484
2014.84833,0.01511
2012.78816,0.01575
2010.72799,0.01609
2008.66781,0.01639
2006.60764,0.01667
2004.54747,0.01634
2002.48730,0.01556
2000.42713,0.01510
1998.36695,0.01487
1996.30678,0.01443
1994.24661,0.01421
1992.18644,0.01413
1990.12626,0.01378
1988.06609,0.01377
1986.00592,0.01394
1983.94575,0.01386
1981.88558,0.01454
1979.82540,0.01646
1977.76523,0.01803
1975.70506,0.01802
1973.64489,0.01749
1971.58472,0.01733
1969.52454,0.01700
1967.46437,0.01655
1965.40420,0.01638
1963.34403,0.01601
1961.28386,0.01540
1959.22368,0.01503
1957.16351,0.01475
1955.10334,0.01429
1953.04317,0.01415
1950.98299,0.01467
1948.92282,0.01516
1946.86265,0.01530
1944.80248,0.01546
1942.74231,0.01561
1940.68213,0.01554
1938.62196,0.01549
1936.56179,0.01558
1934.50162,0.01574
1932.44145,0.01571
1930.38127,0.01548
1928.32110,0.01550
1926.26093,0.01566
1924.20076,0.01553
1922.14059,0.01529
1920.08041,0.01513
1918.02024,0.01502
1915.96007,0.01503
1913.89990,0.01521
1911.83972,0.01538
1909.77955,0.01542
1907.71938,0.01537
1905.65921,0.01536
1903.59904,0.01534
1901.53886,0.01520
1899.47869,0.01505
1897.41852,0.01498
1895.35835,0.01483
1893.29818,0.01467
1891.23800,0.01477
1889.17783,0.01499
1887.11766,0.01513
1885.05749,0.01523
1882.99731,0.01517
1880.93714,0.01498
1878.87697,0.01487
1876.81680,0.01496
1874.75663,0.01525
1872.69645,0.01569
1870.63628,0.01621
1868.57611,0.01656
1866.51594,0.01644
1864.45577,0.01598
1862.39559,0.01553
1860.33542,0.01525
1858.27525,0.01522
1856.21508,0.01547
1854.15491,0.01576
1852.09473,0.01581
1850.03456,0.01572
1847.97439,0.01559
1845.91422,0.01529
1843.85404,0.01496
1841.79387,0.01502
1839.73370,0.01546
1837.67353,0.01580
1835.61336,0.01577
1833.55318,0.01571
1831.49301,0.01600
1829.43284,0.01624
1827.37267,0.01612
1825.31250,0.01595
1823.25232,0.01598
1821.19215,0.01616
1819.13198,0.01621
1817.07181,0.01609
1815.01163,0.01598
1812.95146,0.01586
1810.89129,0.01560
1808.83112,0.01536
1806.77095,0.01540
1804.71077,0.01552
1802.65060,0.01553
1800.59043,0.01561
1798.53026,0.01577
1796.47009,0.01587
1794.40991,0.01597
1792.34974,0.01603
1790.28957,0.01581
1788.22940,0.01540
1786.16923,0.01505
1784.10905,0.01508
1782.04888,0.01550
1779.98871,0.01575
1777.92854,0.01569
1775.86836,0.01581
1773.80819,0.01618
1771.74802,0.01611
1769.68785,0.01544
1767.62768,0.01495
1765.56750,0.01499
1763.50733,0.01522
1761.44716,0.01526
1759.38699,0.01519
1757.32682,0.01521
1755.26664,0.01526
1753.20647,0.01536
1751.14630,0.01560
1749.08613,0.01577
1747.02596,0.01568
1744.96578,0.01558
1742.90561,0.01577
1740.84544,0.01600
1738.78527,0.01593
1736.72509,0.01573
1734.66492,0.01566
1732.60475,0.01567
1730.54458,0.01574
1728.48441,0.01573
1726.42423,0.01567
1724.36406,0.01559
1722.30389,0.01563
1720.24372,0.01602
1718.18355,0.01638
1716.12337,0.01597
1714.06320,0.01533
1712.00303,0.01499
1709.94286,0.01504
1707.88268,0.01531
1705.82251,0.01537
1703.76234,0.01523
1701.70217,0.01536
1699.64200,0.01561
1697.58182,0.01556
1695.52165,0.01537
1693.46148,0.01526
1691.40131,0.01535
1689.34114,0.01571
1687.28096,0.01632
1685.22079,0.01701
1683.16062,0.01703
1681.10045,0.01664
1679.04028,0.01663
1676.98010,0.01711
1674.91993,0.01776
1672.85976,0.01834
1670.79959,0.01874
1668.73941,0.01862
1666.67924,0.01823
1664.61907,0.01820
1662.55890,0.01833
1660.49873,0.01813
1658.43855,0.01800
1656.37838,0.01851
1654.31821,0.01929
1652.25804,0.01925
1650.19787,0.01900
1648.13769,0.01909
1646.07752,0.01899
1644.01735,0.01846
1641.95718,0.01825
1639.89701,0.01875
1637.83683,0.01960
1635.77666,0.01976
1633.71649,0.01914
1631.65632,0.01873
1629.59614,0.01878
1627.53597,0.01900
1625.47580,0.01917
1623.41563,0.01912
1621.35546,0.01887
1619.29528,0.01893
1617.23511,0.01930
1615.17494,0.01924
1613.11477,0.01891
1611.05460,0.01882
1608.99442,0.01892
1606.93425,0.01896
1604.87408,0.01906
1602.81391,0.01916
1600.75373,0.01912
1598.69356,0.01905
1596.63339,0.01905
1594.57322,0.01900
1592.51305,0.01884
1590.45287,0.01864
1588.39270,0.01845
1586.33253,0.01824
1584.27236,0.01801
1582.21219,0.01780
1580.15201,0.01785
1578.09184,0.01806
1576.03167,0.01772
1573.97150,0.01693
1571.91133,0.01665
1569.85115,0.01666
1567.79098,0.01627
1565.73081,0.01578
1563.67064,0.01577
1561.61046,0.01650
1559.55029,0.01699
1557.49012,0.01580
1555.42995,0.01454
1553.36978,0.01402
1551.30960,0.01388
1549.24943,0.01375
1547.18926,0.01369
1545.12909,0.01405
1543.06892,0.01479
1541.00874,0.01525
1538.94857,0.01452
1536.88840,0.01349
1534.82823,0.01319
1532.76805,0.01329
1530.70788,0.01315
1528.64771,0.01296
1526.58754,0.01279
1524.52737,0.01262
1522.46719,0.01255
1520.40702,0.01233
1518.34685,0.01216
1516.28668,0.01198
1514.22651,0.01157
1512.16633,0.01138
1510.10616,0.01188
1508.04599,0.01264
1505.98582,0.01261
1503.92565,0.01194
1501.86547,0.01152
1499.80530,0.01175
1497.74513,0.01223
1495.68496,0.01239
1493.62478,0.01247
1491.56461,0.01276
1489.50444,0.01284
1487.44427,0.01253
1485.38410,0.01227
1483.32392,0.01223
1481.26375,0.01235
1479.20358,0.01255
1477.14341,0.01283
1475.08324,0.01310
1473.02306,0.01316
1470.96289,0.01290
1468.90272,0.01270
1466.84255,0.01286
1464.78238,0.01298
1462.72220,0.01285
1460.66203,0.01308
1458.60186,0.01353
1456.54169,0.01325
1454.48151,0.01266
1452.42134,0.01248
1450.36117,0.01279
1448.30100,0.01322
1446.24083,0.01341
1444.18065,0.01342
1442.12048,0.01344
1440.06031,0.01351
1438.00014,0.01354
1435.93997,0.01346
1433.87979,0.01349
1431.81962,0.01371
1429.75945,0.01389
1427.69928,0.01388
1425.63910,0.01393
1423.57893,0.01409
1421.51876,0.01415
1419.45859,0.01407
1417.39842,0.01405
1415.33824,0.01429
1413.27807,0.01468
1411.21790,0.01501
1409.15773,0.01523
1407.09756,0.01543
1405.03738,0.01560
1402.97721,0.01569
1400.91704,0.01573
1398.85687,0.01561
1396.79670,0.01539
1394.73652,0.01531
1392.67635,0.01532
1390.61618,0.01542
1388.55601,0.01559
1386.49583,0.01569
1384.43566,0.01568
1382.37549,0.01572
1380.31532,0.01582
1378.25515,0.01594
1376.19497,0.01610
1374.13480,0.01614
1372.07463,0.01597
1370.01446,0.01590
1367.95429,0.01602
1365.89411,0.01622
1363.83394,0.01625
1361.77377,0.01606
1359.71360,0.01598
1357.65343,0.01611
1355.59325,0.01626
1353.53308,0.01628
1351.47291,0.01619
1349.41274,0.01602
1347.35256,0.01576
1345.29239,0.01551
1343.23222,0.01535
1341.17205,0.01513
1339.11188,0.01475
1337.05170,0.01457
1334.99153,0.01469
1332.93136,0.01477
1330.87119,0.01462
1328.81102,0.01443
1326.75084,0.01430
1324.69067,0.01417
1322.63050,0.01405
1320.57033,0.01397
1318.51015,0.01389
1316.44998,0.01375
1314.38981,0.01360
1312.32964,0.01350
1310.26947,0.01350
1308.20929,0.01351
1306.14912,0.01347
1304.08895,0.01348
1302.02878,0.01347
1299.96861,0.01337
1297.90843,0.01326
1295.84826,0.01326
1293.78809,0.01331
1291.72792,0.01319
1289.66775,0.01297
1287.60757,0.01283
1285.54740,0.01279
1283.48723,0.01276
1281.42706,0.01276
1279.36688,0.01281
1277.30671,0.01288
1275.24654,0.01287
1273.18637,0.01276
1271.12620,0.01265
1269.06602,0.01255
1267.00585,0.01250
1264.94568,0.01256
1262.88551,0.01267
1260.82534,0.01273
1258.76516,0.01272
1256.70499,0.01259
1254.64482,0.01236
1252.58465,0.01221
1250.52447,0.01218
1248.46430,0.01211
1246.40413,0.01192
1244.34396,0.01175
1242.28379,0.01170
1240.22361,0.01171
1238.16344,0.01166
1236.10327,0.01156
1234.04310,0.01147
1231.98293,0.01143
1229.92275,0.01140
1227.86258,0.01131
1225.80241,0.01120
1223.74224,0.01110
1221.68207,0.01096
1219.62189,0.01082
1217.56172,0.01073
1215.50155,0.01068
1213.44138,0.01064
1211.38120,0.01059
1209.32103,0.01054
1207.26086,0.01054
1205.20069,0.01066
1203.14052,0.01086
1201.08034,0.01101
1199.02017,0.01112
1196.96000,0.01139
1194.89983,0.01171
1192.83966,0.01199
1190.77948,0.01231
1188.71931,0.01274
1186.65914,0.01318
1184.59897,0.01367
1182.53880,0.01427
1180.47862,0.01494
1178.41845,0.01564
1176.35828,0.01616
1174.29811,0.01660
1172.23793,0.01722
1170.17776,0.01791
1168.11759,0.01853
1166.05742,0.01914
1163.99725,0.01979
1161.93707,0.02034
1159.87690,0.02084
1157.81673,0.02147
1155.75656,0.02216
1153.69639,0.02273
1151.63621,0.02332
1149.57604,0.02396
1147.51587,0.02451
1145.45570,0.02492
1143.39552,0.02529
1141.33535,0.02572
1139.27518,0.02616
1137.21501,0.02652
1135.15484,0.02681
1133.09466,0.02710
1131.03449,0.02733
1128.97432,0.02746
1126.91415,0.02760
1124.85398,0.02793
1122.79380,0.02848
1120.73363,0.02902
1118.67346,0.02937
1116.61329,0.02967
1114.55312,0.03012
1112.49294,0.03065
1110.43277,0.03116
1108.37260,0.03172
1106.31243,0.03242
1104.25225,0.03309
1102.19208,0.03365
1100.13191,0.03425
1098.07174,0.03487
1096.01157,0.03543
1093.95139,0.03598
1091.89122,0.03666
1089.83105,0.03746
1087.77088,0.03831
1085.71071,0.03907
1083.65053,0.03974
1081.59036,0.04041
1079.53019,0.04112
1077.47002,0.04189
1075.40985,0.04271
1073.34967,0.04340
1071.28950,0.04382
1069.22933,0.04401
1067.16916,0.04411
1065.10898,0.04415
1063.04881,0.04420
1060.98864,0.04410
1058.92847,0.04367
1056.86830,0.04320
1054.80812,0.04282
1052.74795,0.04228
1050.68778,0.04142
1048.62761,0.04044
1046.56744,0.03952
1044.50726,0.03868
1042.44709,0.03769
1040.38692,0.03646
1038.32675,0.03520
1036.26657,0.03393
1034.20640,0.03262
1032.14623,0.03137
1030.08606,0.03028
1028.02589,0.02939
1025.96571,0.02859
1023.90554,0.02782
1021.84537,0.02707
1019.78520,0.02633
1017.72503,0.02569
1015.66485,0.02525
1013.60468,0.02503
1011.54451,0.02497
1009.48434,0.02500
1007.42417,0.02507
1005.36399,0.02530
1003.30382,0.02580
1001.24365,0.02648
999.18348,0.02722
997.12330,0.02802
995.06313,0.02875
993.00296,0.02931
990.94279,0.02984
988.88262,0.03045
986.82244,0.03101
984.76227,0.03147
982.70210,0.03186
980.64193,0.03220
978.58176,0.03249
976.52158,0.03268
974.46141,0.03277
972.40124,0.03276
970.34107,0.03258
968.28089,0.03220
966.22072,0.03186
964.16055,0.03167
962.10038,0.03143
960.04021,0.03106
957.98003,0.03074
955.91986,0.03056
953.85969,0.03034
951.79952,0.02992
949.73935,0.02947
947.67917,0.02918
945.61900,0.02890
943.55883,0.02845
941.49866,0.02798
939.43849,0.02744
937.37831,0.02677
935.31814,0.02620
933.25797,0.02562
931.19780,0.02494
929.13762,0.02430
927.07745,0.02377
925.01728,0.02327
922.95711,0.02277
920.89694,0.02231
918.83676,0.02187
916.77659,0.02127
914.71642,0.02054
912.65625,0.01995
910.59608,0.01952
908.53590,0.01895
906.47573,0.01840
904.41556,0.01812
902.35539,0.01804
900.29522,0.01802
898.23504,0.01787
896.17487,0.01765
894.11470,0.01765
892.05453,0.01794
889.99435,0.01824
887.93418,0.01842
885.87401,0.01873
883.81384,0.01914
881.75367,0.01959
879.69349,0.02016
877.63332,0.02084
875.57315,0.02162
873.51298,0.02254
871.45281,0.02354
869.39263,0.02447
867.33246,0.02532
865.27229,0.02627
863.21212,0.02733
861.15194,0.02812
859.09177,0.02868
857.03160,0.02931
854.97143,0.02990
852.91126,0.03005
850.85108,0.02975
848.79091,0.02928
846.73074,0.02874
844.67057,0.02818
842.61040,0.02752
840.55022,0.02679
838.49005,0.02599
836.42988,0.02510
834.36971,0.02437
832.30954,0.02386
830.24936,0.02345
828.18919,0.02301
826.12902,0.02227
824.06885,0.02144
822.00867,0.02095
819.94850,0.02063
817.88833,0.02024
815.82816,0.01980
813.76799,0.01927
811.70781,0.01847
809.64764,0.01764
807.58747,0.01721
805.52730,0.01719
803.46713,0.01728
801.40695,0.01713
799.34678,0.01654
797.28661,0.01586
795.22644,0.01546
793.16627,0.01525
791.10609,0.01495
789.04592,0.01445
786.98575,0.01386
784.92558,0.01358
782.86540,0.01374
780.80523,0.01398
778.74506,0.01398
776.68489,0.01356
774.62472,0.01283
772.56454,0.01233
770.50437,0.01253
768.44420,0.01286
766.38403,0.01257
764.32386,0.01206
762.26368,0.01189
760.20351,0.01181
758.14334,0.01157
756.08317,0.01135
754.02299,0.01120
751.96282,0.01120
749.90265,0.01118
747.84248,0.01065
745.78231,0.00992
743.72213,0.00961
741.66196,0.00938
739.60179,0.00891
737.54162,0.00861
735.48145,0.00888
733.42127,0.00945
731.36110,0.00975
729.30093,0.00946
727.24076,0.00896
725.18059,0.00866
723.12041,0.00835
721.06024,0.00829
719.00007,0.00841
716.93990,0.00861
714.87972,0.00860
712.81955,0.00823
710.75938,0.00773
708.69921,0.00728
706.63904,0.00713
704.57886,0.00750
702.51869,0.00802
700.45852,0.00811
698.39835,0.00766
696.33818,0.00712
694.27800,0.00683
692.21783,0.00678
690.15766,0.00676
688.09749,0.00667
686.03731,0.00664
683.97714,0.00668
681.91697,0.00669
679.85680,0.00657
677.79663,0.00620
675.73645,0.00600
673.67628,0.00641
671.61611,0.00685
669.55594,0.00661
667.49577,0.00580
665.43559,0.00558
663.37542,0.00553
661.31525,0.00538
659.25508,0.00501
657.19491,0.00439
655.13473,0.00364
653.07456,0.00316
651.01439,0.00319
648.95422,0.00352
646.89404,0.00376
644.83387,0.00372
642.77370,0.00359
640.71353,0.00373
638.65336,0.00396
636.59318,0.00391
634.53301,0.00362
632.47284,0.00337
630.41267,0.00312
628.35250,0.00254
626.29232,0.00174
624.23215,0.00182
622.17198,0.00277
620.11181,0.00285
618.05164,0.00188
615.99146,0.00093
613.93129,0.00026
611.87112,0.00000
609.81095,0.00037
607.75077,0.00097
605.69060,0.00082
603.63043,0.00030
601.57026,-0.00008
599.51009,0.00000
