3996.73391,-0.00021
3994.67373,-0.00046
3992.61356,-0.00054
3990.55339,-0.00019
3988.49322,0.00029
3986.43305,0.00059
3984.37287,0.00061
3982.31270,0.00037
3980.25253,0.00015
3978.19236,0.00008
3976.13219,0.00012
3974.07201,0.00027
3972.01184,0.00031
3969.95167,0.00029
3967.89150,0.00047
3965.83133,0.00075
3963.77115,0.00082
3961.71098,0.00060
3959.65081,0.00031
3957.59064,0.00022
3955.53046,0.00049
3953.47029,0.00079
3951.41012,0.00071
3949.34995,0.00026
3947.28978,0.00000
3945.22960,0.00019
3943.16943,0.00044
3941.10926,0.00051
3939.04909,0.00055
3936.98892,0.00058
3934.92874,0.00047
3932.86857,0.00049
3930.80840,0.00089
3928.74823,0.00117
3926.68805,0.00104
3924.62788,0.00083
3922.56771,0.00064
3920.50754,0.00038
3918.44737,0.00026
3916.38719,0.00065
3914.32702,0.00129
3912.26685,0.00160
3910.20668,0.00152
3908.14651,0.00126
3906.08633,0.00084
3904.02616,0.00033
3901.96599,0.00032
3899.90582,0.00106
3897.84565,0.00169
3895.78547,0.00156
3893.72530,0.00102
3891.66513,0.00081
3889.60496,0.00103
3887.54478,0.00108
3885.48461,0.00082
3883.42444,0.00042
3881.36427,0.00031
3879.30410,0.00079
3877.24392,0.00119
3875.18375,0.00106
3873.12358,0.00070
3871.06341,0.00053
3869.00324,0.00072
3866.94306,0.00082
3864.88289,0.00067
3862.82272,0.00071
3860.76255,0.00080
3858.70237,0.00048
3856.64220,0.00000
3854.58203,0.00044
3852.52186,0.00195
3850.46169,0.00277
3848.40151,0.00232
3846.34134,0.00169
3844.28117,0.00149
3842.22100,0.00151
3840.16083,0.00147
3838.10065,0.00144
3836.04048,0.00166
3833.98031,0.00205
3831.92014,0.00241
3829.85997,0.00267
3827.79979,0.00269
3825.73962,0.00228
3823.67945,0.00169
3821.61928,0.00158
3819.55910,0.00187
3817.49893,0.00205
3815.43876,0.00223
3813.37859,0.00244
3811.31842,0.00249
3809.25824,0.00249
3807.19807,0.00251
3805.13790,0.00250
3803.07773,0.00255
3801.01756,0.00283
3798.95738,0.00290
3796.89721,0.00269
3794.83704,0.00285
3792.77687,0.00327
3790.71670,0.00344
3788.65652,0.00338
3786.59635,0.00330
3784.53618,0.00330
3782.47601,0.00341
3780.41583,0.00361
3778.35566,0.00379
3776.29549,0.00376
3774.23532,0.00347
3772.17515,0.00310
3770.11497,0.00278
3768.05480,0.00254
3765.99463,0.00236
3763.93446,0.00221
3761.87429,0.00198
3759.81411,0.00171
3757.75394,0.00149
3755.69377,0.00131
3753.63360,0.00108
3751.57342,0.00073
3749.51325,0.00039
3747.45308,0.00026
3745.39291,0.00034
3743.33274,0.00095
3741.27256,0.00139
3739.21239,0.00121
3737.15222,0.00106
3735.09205,0.00121
3733.03188,0.00147
3730.97170,0.00179
3728.91153,0.00171
3726.85136,0.00145
3724.79119,0.00164
3722.73102,0.00205
3720.67084,0.00264
3718.61067,0.00267
3716.55050,0.00242
3714.49033,0.00239
3712.43015,0.00253
3710.36998,0.00321
3708.30981,0.00349
3706.24964,0.00340
3704.18947,0.00318
3702.12929,0.00308
3700.06912,0.00331
3698.00895,0.00351
3695.94878,0.00347
3693.88861,0.00316
3691.82843,0.00318
3689.76826,0.00346
3687.70809,0.00389
3685.64792,0.00397
3683.58775,0.00392
3681.52757,0.00380
3679.46740,0.00363
3677.40723,0.00349
3675.34706,0.00371
3673.28688,0.00383
3671.22671,0.00385
3669.16654,0.00435
3667.10637,0.00474
3665.04620,0.00452
3662.98602,0.00421
3660.92585,0.00411
3658.86568,0.00409
3656.80551,0.00414
3654.74534,0.00422
3652.68516,0.00415
3650.62499,0.00422
3648.56482,0.00470
3646.50465,0.00540
3644.44447,0.00561
3642.38430,0.00565
3640.32413,0.00569
3638.26396,0.00551
3636.20379,0.00521
3634.14361,0.00503
3632.08344,0.00517
3630.02327,0.00555
3627.96310,0.00610
3625.90293,0.00624
3623.84275,0.00603
3621.78258,0.00569
3619.72241,0.00552
3617.66224,0.00582
3615.60207,0.00611
3613.54189,0.00632
3611.48172,0.00629
3609.42155,0.00660
3607.36138,0.00738
3605.30120,0.00780
3603.24103,0.00791
3601.18086,0.00798
3599.12069,0.00830
3597.06052,0.00859
3595.00034,0.00896
3592.94017,0.00901
3590.88000,0.00916
3588.81983,0.00929
3586.75966,0.00952
3584.69948,0.00980
3582.63931,0.01001
3580.57914,0.01033
3578.51897,0.01072
3576.45879,0.01101
3574.39862,0.01112
3572.33845,0.01116
3570.27828,0.01113
3568.21811,0.01118
3566.15793,0.01151
3564.09776,0.01195
3562.03759,0.01217
3559.97742,0.01240
3557.91725,0.01285
3555.85707,0.01325
3553.79690,0.01339
3551.73673,0.01331
3549.67656,0.01309
3547.61639,0.01284
3545.55621,0.01281
3543.49604,0.01314
3541.43587,0.01363
3539.37570,0.01401
3537.31552,0.01424
3535.25535,0.01449
3533.19518,0.01486
3531.13501,0.01517
3529.07484,0.01526
3527.01466,0.01517
3524.95449,0.01516
3522.89432,0.01548
3520.83415,0.01601
3518.77398,0.01644
3516.71380,0.01675
3514.65363,0.01705
3512.59346,0.01722
3510.53329,0.01713
3508.47312,0.01698
3506.41294,0.01697
3504.35277,0.01704
3502.29260,0.01720
3500.23243,0.01768
3498.17225,0.01830
3496.11208,0.01862
3494.05191,0.01863
3491.99174,0.01865
3489.93157,0.01884
3487.87139,0.01910
3485.81122,0.01924
3483.75105,0.01925
3481.69088,0.01927
3479.63071,0.01945
3477.57053,0.01975
3475.51036,0.02004
3473.45019,0.02021
3471.39002,0.02034
3469.32984,0.02051
3467.26967,0.02064
3465.20950,0.02071
3463.14933,0.02077
3461.08916,0.02085
3459.02898,0.02105
3456.96881,0.02138
3454.90864,0.02171
3452.84847,0.02196
3450.78830,0.02211
3448.72812,0.02210
3446.66795,0.02194
3444.60778,0.02182
3442.54761,0.02192
3440.48744,0.02210
3438.42726,0.02225
3436.36709,0.02244
3434.30692,0.02263
3432.24675,0.02264
3430.18657,0.02269
3428.12640,0.02294
3426.06623,0.02304
3424.00606,0.02312
3421.94589,0.02342
3419.88571,0.02363
3417.82554,0.02371
3415.76537,0.02385
3413.70520,0.02411
3411.64503,0.02438
3409.58485,0.02444
3407.52468,0.02443
3405.46451,0.02453
3403.40434,0.02458
3401.34416,0.02458
3399.28399,0.02414
3397.22382,0.02424
3395.16365,0.02451
3393.10348,0.02475
3391.04330,0.02494
3388.98313,0.02506
3386.92296,0.02520
3384.86279,0.02555
3382.80262,0.02596
3380.74244,0.02617
3378.68227,0.02627
3376.62210,0.02635
3374.56193,0.02647
3372.50176,0.02660
3370.44158,0.02668
3368.38141,0.02659
3366.32124,0.02642
3364.26107,0.02644
3362.20089,0.02655
3360.14072,0.02662
3358.08055,0.02683
3356.02038,0.02708
3353.96021,0.02707
3351.90003,0.02692
3349.83986,0.02700
3347.77969,0.02735
3345.71952,0.02757
3343.65935,0.02750
3341.59917,0.02728
3339.53900,0.02715
3337.47883,0.02729
3335.41866,0.02751
3333.35849,0.02761
3331.29831,0.02780
3329.23814,0.02806
3327.17797,0.02810
3325.11780,0.02799
3323.05762,0.02804
3320.99745,0.02823
3318.93728,0.02839
3316.87711,0.02853
3314.81694,0.02849
3312.75676,0.02819
3310.69659,0.02800
3308.63642,0.02816
3306.57625,0.02836
3304.51608,0.02842
3302.45590,0.02865
3300.39573,0.02898
3298.33556,0.02907
3296.27539,0.02895
3294.21521,0.02880
3292.15504,0.02867
3290.09487,0.02875
3288.03470,0.02905
3285.97453,0.02927
3283.91435,0.02933
3281.85418,0.02942
3279.79401,0.02950
3277.73384,0.02937
3275.67367,0.02925
3273.61349,0.02931
3271.55332,0.02940
3269.49315,0.02946
3267.43298,0.02959
3265.37281,0.02979
3263.31263,0.02995
3261.25246,0.03006
3259.19229,0.03015
3257.13212,0.03004
3255.07194,0.02976
3253.01177,0.02966
3250.95160,0.02981
3248.89143,0.03003
3246.83126,0.03019
3244.77108,0.03017
3242.71091,0.03009
3240.65074,0.03018
3238.59057,0.03042
3236.53040,0.03059
3234.47022,0.03060
3232.41005,0.03062
3230.34988,0.03070
3228.28971,0.03071
3226.22954,0.03060
3224.16936,0.03055
3222.10919,0.03054
3220.04902,0.03040
3217.98885,0.03038
3215.92867,0.03068
3213.86850,0.03097
3211.80833,0.03098
3209.74816,0.03078
3207.68799,0.03064
3205.62781,0.03071
3203.56764,0.03082
3201.50747,0.03083
3199.44730,0.03089
3197.38713,0.03105
3195.32695,0.03115
3193.26678,0.03112
3191.20661,0.03108
3189.14644,0.03111
3187.08626,0.03108
3185.02609,0.03087
3182.96592,0.03077
3180.90575,0.03090
3178.84558,0.03100
3176.78540,0.03113
3174.72523,0.03129
3172.66506,0.03130
3170.60489,0.03126
3168.54472,0.03126
3166.48454,0.03127
3164.42437,0.03130
3162.36420,0.03130
3160.30403,0.03124
3158.24386,0.03122
3156.18368,0.03119
3154.12351,0.03100
3152.06334,0.03080
3150.00317,0.03082
3147.94299,0.03105
3145.88282,0.03118
3143.82265,0.03108
3141.76248,0.03099
3139.70231,0.03100
3137.64213,0.03100
3135.58196,0.03094
3133.52179,0.03089
3131.46162,0.03097
3129.40145,0.03110
3127.34127,0.03113
3125.28110,0.03100
3123.22093,0.03070
3121.16076,0.03043
3119.10058,0.03039
3117.04041,0.03040
3114.98024,0.03034
3112.92007,0.03044
3110.85990,0.03065
3108.79972,0.03068
3106.73955,0.03048
3104.67938,0.03019
3102.61921,0.02991
3100.55904,0.02984
3098.49886,0.03006
3096.43869,0.03022
3094.37852,0.03023
3092.31835,0.03023
3090.25818,0.03014
3088.19800,0.02999
3086.13783,0.02998
3084.07766,0.02999
3082.01749,0.02987
3079.95731,0.02979
3077.89714,0.02987
3075.83697,0.02993
3073.77680,0.02990
3071.71663,0.02988
3069.65645,0.02987
3067.59628,0.02979
3065.53611,0.02971
3063.47594,0.02977
3061.41577,0.02985
3059.35559,0.02975
3057.29542,0.02951
3055.23525,0.02932
3053.17508,0.02931
3051.11491,0.02936
3049.05473,0.02934
3046.99456,0.02928
3044.93439,0.02919
3042.87422,0.02913
3040.81404,0.02924
3038.75387,0.02941
3036.69370,0.02932
3034.63353,0.02899
3032.57336,0.02874
3030.51318,0.02871
3028.45301,0.02871
3026.39284,0.02859
3024.33267,0.02850
3022.27250,0.02855
3020.21232,0.02856
3018.15215,0.02835
3016.09198,0.02799
3014.03181,0.02769
3011.97163,0.02760
3009.91146,0.02765
3007.85129,0.02767
3005.79112,0.02760
3003.73095,0.02751
3001.67077,0.02747
2999.61060,0.02752
2997.55043,0.02747
2995.49026,0.02744
2993.43009,0.02748
2991.36991,0.02755
2989.30974,0.02752
2987.24957,0.02743
2985.18940,0.02736
2983.12923,0.02735
2981.06905,0.02736
2979.00888,0.02738
2976.94871,0.02736
2974.88854,0.02726
2972.82836,0.02713
2970.76819,0.02708
2968.70802,0.02704
2966.64785,0.02700
2964.58768,0.02704
2962.52750,0.02713
2960.46733,0.02716
2958.40716,0.02719
2956.34699,0.02728
2954.28682,0.02725
2952.22664,0.02720
2950.16647,0.02721
2948.10630,0.02713
2946.04613,0.02692
2943.98596,0.02674
2941.92578,0.02668
2939.86561,0.02670
2937.80544,0.02678
2935.74527,0.02690
2933.68509,0.02708
2931.62492,0.02726
2929.56475,0.02723
2927.50458,0.02708
2925.44441,0.02704
2923.38423,0.02707
2921.32406,0.02715
2919.26389,0.02714
2917.20372,0.02702
2915.14355,0.02696
2913.08337,0.02692
2911.02320,0.02680
2908.96303,0.02675
2906.90286,0.02677
2904.84268,0.02663
2902.78251,0.02645
2900.72234,0.02641
2898.66217,0.02648
2896.60200,0.02658
2894.54182,0.02669
2892.48165,0.02664
2890.42148,0.02649
2888.36131,0.02653
2886.30114,0.02666
2884.24096,0.02667
2882.18079,0.02657
2880.12062,0.02645
2878.06045,0.02638
2876.00028,0.02633
2873.94010,0.02620
2871.87993,0.02611
2869.81976,0.02612
2867.75959,0.02622
2865.69941,0.02630
2863.63924,0.02624
2861.57907,0.02616
2859.51890,0.02613
2857.45873,0.02612
2855.39855,0.02619
2853.33838,0.02624
2851.27821,0.02615
2849.21804,0.02603
2847.15787,0.02603
2845.09769,0.02602
2843.03752,0.02591
2840.97735,0.02579
2838.91718,0.02571
2836.85700,0.02569
2834.79683,0.02566
2832.73666,0.02556
2830.67649,0.02540
2828.61632,0.02527
2826.55614,0.02525
2824.49597,0.02538
2822.43580,0.02550
2820.37563,0.02542
2818.31546,0.02528
2816.25528,0.02525
2814.19511,0.02525
2812.13494,0.02520
2810.07477,0.02508
2808.01460,0.02493
2805.95442,0.02479
2803.89425,0.02466
2801.83408,0.02455
2799.77391,0.02447
2797.71373,0.02442
2795.65356,0.02442
2793.59339,0.02441
2791.53322,0.02442
2789.47305,0.02446
2787.41287,0.02441
2785.35270,0.02430
2783.29253,0.02426
2781.23236,0.02426
2779.17219,0.02427
2777.11201,0.02425
2775.05184,0.02418
2772.99167,0.02405
2770.93150,0.02391
2768.87133,0.02381
2766.81115,0.02378
2764.75098,0.02375
2762.69081,0.02369
2760.63064,0.02358
2758.57046,0.02347
2756.51029,0.02337
2754.45012,0.02335
2752.38995,0.02345
2750.32978,0.02353
2748.26960,0.02347
2746.20943,0.02334
2744.14926,0.02322
2742.08909,0.02316
2740.02892,0.02315
2737.96874,0.02313
2735.90857,0.02308
2733.84840,0.02297
2731.78823,0.02289
2729.72805,0.02289
2727.66788,0.02286
2725.60771,0.02277
2723.54754,0.02268
2721.48737,0.02264
2719.42719,0.02263
2717.36702,0.02255
2715.30685,0.02244
2713.24668,0.02236
2711.18651,0.02246
2709.12633,0.02259
2707.06616,0.02249
2705.00599,0.02233
2702.94582,0.02227
2700.88565,0.02229
2698.82547,0.02229
2696.76530,0.02223
2694.70513,0.02215
2692.64496,0.02205
2690.58478,0.02194
2688.52461,0.02188
2686.46444,0.02187
2684.40427,0.02187
2682.34410,0.02181
2680.28392,0.02172
2678.22375,0.02170
2676.16358,0.02170
2674.10341,0.02169
2672.04324,0.02169
2669.98306,0.02161
2667.92289,0.02149
2665.86272,0.02146
2663.80255,0.02144
2661.74238,0.02134
2659.68220,0.02127
2657.62203,0.02130
2655.56186,0.02130
2653.50169,0.02118
2651.44151,0.02110
2649.38134,0.02105
2647.32117,0.02100
2645.26100,0.02103
2643.20083,0.02106
2641.14065,0.02095
2639.08048,0.02080
2637.02031,0.02083
2634.96014,0.02094
2632.89997,0.02089
2630.83979,0.02081
2628.77962,0.02081
2626.71945,0.02075
2624.65928,0.02072
2622.59910,0.02074
2620.53893,0.02071
2618.47876,0.02070
2616.41859,0.02076
2614.35842,0.02079
2612.29824,0.02072
2610.23807,0.02055
2608.17790,0.02046
2606.11773,0.02054
2604.05756,0.02066
2601.99738,0.02076
2599.93721,0.02077
2597.87704,0.02064
2595.81687,0.02047
2593.75670,0.02037
2591.69652,0.02035
2589.63635,0.02048
2587.57618,0.02077
2585.51601,0.02097
2583.45583,0.02090
2581.39566,0.02075
2579.33549,0.02068
2577.27532,0.02060
2575.21515,0.02043
2573.15497,0.02031
2571.09480,0.02026
2569.03463,0.02032
2566.97446,0.02054
2564.91429,0.02063
2562.85411,0.02050
2560.79394,0.02057
2558.73377,0.02090
2556.67360,0.02106
2554.61342,0.02096
2552.55325,0.02082
2550.49308,0.02085
2548.43291,0.02102
2546.37274,0.02108
2544.31256,0.02092
2542.25239,0.02072
2540.19222,0.02072
2538.13205,0.02091
2536.07188,0.02109
2534.01170,0.02113
2531.95153,0.02116
2529.89136,0.02120
2527.83119,0.02116
2525.77102,0.02124
2523.71084,0.02145
2521.65067,0.02145
2519.59050,0.02129
2517.53033,0.02122
2515.47015,0.02118
2513.40998,0.02124
2511.34981,0.02146
2509.28964,0.02168
2507.22947,0.02184
2505.16929,0.02191
2503.10912,0.02186
2501.04895,0.02164
2498.98878,0.02128
2496.92861,0.02122
2494.86843,0.02160
2492.80826,0.02195
2490.74809,0.02194
2488.68792,0.02172
2486.62775,0.02170
2484.56757,0.02194
2482.50740,0.02210
2480.44723,0.02221
2478.38706,0.02240
2476.32688,0.02247
2474.26671,0.02243
2472.20654,0.02235
2470.14637,0.02218
2468.08620,0.02195
2466.02602,0.02188
2463.96585,0.02215
2461.90568,0.02253
2459.84551,0.02265
2457.78534,0.02257
2455.72516,0.02261
2453.66499,0.02270
2451.60482,0.02253
2449.54465,0.02237
2447.48447,0.02258
2445.42430,0.02279
2443.36413,0.02276
2441.30396,0.02286
2439.24379,0.02311
2437.18361,0.02317
2435.12344,0.02305
2433.06327,0.02293
2431.00310,0.02279
2428.94293,0.02281
2426.88275,0.02308
2424.82258,0.02324
2422.76241,0.02317
2420.70224,0.02309
2418.64207,0.02298
2416.58189,0.02285
2414.52172,0.02286
2412.46155,0.02285
2410.40138,0.02274
2408.34120,0.02274
2406.28103,0.02283
2404.22086,0.02297
2402.16069,0.02311
2400.10052,0.02311
2398.04034,0.02325
2395.98017,0.02331
2393.92000,0.02332
2391.85983,0.02328
2389.79966,0.02322
2387.73948,0.02319
2385.67931,0.02337
2383.61914,0.02338
2381.55897,0.02287
2379.49880,0.02256
2377.43862,0.02238
2375.37845,0.02105
2373.31828,0.02225
2371.25811,0.02355
2369.19793,0.02298
2367.13776,0.02306
2365.07759,0.02498
2363.01742,0.02310
2360.95725,0.02546
2358.89707,0.02333
2356.83690,0.02190
2354.77673,0.01892
2352.71656,0.02002
2350.65639,0.02820
2348.59621,0.03429
2346.53604,0.01963
2344.47587,0.01700
2342.41570,0.02106
2340.35552,0.02447
2338.29535,0.02436
2336.23518,0.02413
2334.17501,0.02401
2332.11484,0.02321
2330.05466,0.02371
2327.99449,0.02144
2325.93432,0.02434
2323.87415,0.02302
2321.81398,0.02348
2319.75380,0.02068
2317.69363,0.02176
2315.63346,0.02158
2313.57329,0.01958
2311.51312,0.01983
2309.45294,0.02060
2307.39277,0.02135
2305.33260,0.02202
2303.27243,0.02254
2301.21225,0.02235
2299.15208,0.02239
2297.09191,0.02218
2295.03174,0.02154
2292.97157,0.02152
2290.91139,0.02159
2288.85122,0.02147
2286.79105,0.02139
2284.73088,0.02141
2282.67071,0.02153
2280.61053,0.02190
2278.55036,0.02208
2276.49019,0.02196
2274.43002,0.02196
2272.36984,0.02171
2270.30967,0.02158
2268.24950,0.02178
2266.18933,0.02189
2264.12916,0.02171
2262.06898,0.02167
2260.00881,0.02147
2257.94864,0.02141
2255.88847,0.02141
2253.82830,0.02121
2251.76812,0.02080
2249.70795,0.02074
2247.64778,0.02121
2245.58761,0.02158
2243.52744,0.02125
2241.46726,0.02079
2239.40709,0.02106
2237.34692,0.02167
2235.28675,0.02163
2233.22657,0.02138
2231.16640,0.02175
2229.10623,0.02231
2227.04606,0.02234
2224.98589,0.02181
2222.92571,0.02116
2220.86554,0.02094
2218.80537,0.02123
2216.74520,0.02144
2214.68503,0.02133
2212.62485,0.02116
2210.56468,0.02103
2208.50451,0.02076
2206.44434,0.02029
2204.38417,0.02029
2202.32399,0.02070
2200.26382,0.02054
2198.20365,0.02034
2196.14348,0.02063
2194.08330,0.02037
2192.02313,0.01991
2189.96296,0.02031
2187.90279,0.02078
2185.84262,0.02072
2183.78244,0.02064
2181.72227,0.02050
2179.66210,0.02032
2177.60193,0.02049
2175.54176,0.02050
2173.48158,0.01982
2171.42141,0.01923
2169.36124,0.01929
2167.30107,0.01967
2165.24089,0.01994
2163.18072,0.01966
2161.12055,0.01901
2159.06038,0.01858
2157.00021,0.01879
2154.94003,0.01984
2152.87986,0.02153
2150.81969,0.02266
2148.75952,0.02178
2146.69935,0.02014
2144.63917,0.01977
2142.57900,0.02006
2140.51883,0.02033
2138.45866,0.02060
2136.39849,0.02051
2134.33831,0.02027
2132.27814,0.02001
2130.21797,0.01981
2128.15780,0.01993
2126.09762,0.02001
2124.03745,0.01983
2121.97728,0.01975
2119.91711,0.01984
2117.85694,0.01979
2115.79676,0.01971
2113.73659,0.01977
2111.67642,0.01962
2109.61625,0.01919
2107.55608,0.01899
2105.49590,0.01892
2103.43573,0.01868
2101.37556,0.01877
2099.31539,0.01978
2097.25521,0.02048
2095.19504,0.02020
2093.13487,0.01933
2091.07470,0.01871
2089.01453,0.01862
2086.95435,0.01888
2084.89418,0.01915
2082.83401,0.01936
2080.77384,0.01976
2078.71367,0.02015
2076.65349,0.02028
2074.59332,0.02030
2072.53315,0.02026
2070.47298,0.02009
2068.41281,0.02005
2066.35263,0.02025
2064.29246,0.02022
2062.23229,0.01966
2060.17212,0.01901
2058.11194,0.01876
2056.05177,0.01890
2053.99160,0.01915
2051.93143,0.01947
2049.87126,0.02014
2047.81108,0.02091
2045.75091,0.02141
2043.69074,0.02183
2041.63057,0.02205
2039.57040,0.02174
2037.51022,0.02114
2035.45005,0.02058
2033.38988,0.01984
2031.32971,0.01876
2029.26954,0.01839
2027.20936,0.01916
2025.14919,0.01989
2023.08902,0.02012
2021.02885,0.02011
2018.96867,0.01959
2016.90850,0.01911
2014.84833,0.01960
2012.78816,0.02039
2010.72799,0.02080
2008.66781,0.02102
2006.60764,0.02075
2004.54747,0.01987
2002.48730,0.01922
2000.42713,0.01922
1998.36695,0.01957
1996.30678,0.02004
1994.24661,0.02053
1992.18644,0.02048
1990.12626,0.01971
1988.06609,0.01883
1986.00592,0.01854
1983.94575,0.01889
1981.88558,0.01975
1979.82540,0.02117
1977.76523,0.02222
1975.70506,0.02206
1973.64489,0.02137
1971.58472,0.02085
1969.52454,0.02041
1967.46437,0.01993
1965.40420,0.01972
1963.34403,0.01992
1961.28386,0.02004
1959.22368,0.01984
1957.16351,0.01955
1955.10334,0.01916
1953.04317,0.01898
1950.98299,0.01963
1948.92282,0.02057
1946.86265,0.02084
1944.80248,0.02047
1942.74231,0.02020
1940.68213,0.02019
1938.62196,0.02003
1936.56179,0.01986
1934.50162,0.02009
1932.44145,0.02038
1930.38127,0.02030
1928.32110,0.02004
1926.26093,0.01983
1924.20076,0.01980
1922.14059,0.01997
1920.08041,0.02010
1918.02024,0.02007
1915.96007,0.02017
1913.89990,0.02058
1911.83972,0.02083
1909.77955,0.02070
1907.71938,0.02061
1905.65921,0.02073
1903.59904,0.02073
1901.53886,0.02053
1899.47869,0.02034
1897.41852,0.02026
1895.35835,0.02024
1893.29818,0.02030
1891.23800,0.02047
1889.17783,0.02063
1887.11766,0.02069
1885.05749,0.02067
1882.99731,0.02058
1880.93714,0.02047
1878.87697,0.02044
1876.81680,0.02056
1874.75663,0.02081
1872.69645,0.02106
1870.63628,0.02123
1868.57611,0.02128
1866.51594,0.02124
1864.45577,0.02121
1862.39559,0.02114
1860.33542,0.02101
1858.27525,0.02094
1856.21508,0.02095
1854.15491,0.02093
1852.09473,0.02097
1850.03456,0.02109
1847.97439,0.02100
1845.91422,0.02057
1843.85404,0.02027
1841.79387,0.02050
1839.73370,0.02092
1837.67353,0.02105
1835.61336,0.02086
1833.55318,0.02077
1831.49301,0.02102
1829.43284,0.02128
1827.37267,0.02132
1825.31250,0.02135
1823.25232,0.02155
1821.19215,0.02183
1819.13198,0.02190
1817.07181,0.02171
1815.01163,0.02150
1812.95146,0.02133
1810.89129,0.02117
1808.83112,0.02106
1806.77095,0.02111
1804.71077,0.02120
1802.65060,0.02121
1800.59043,0.02124
1798.53026,0.02131
1796.47009,0.02136
1794.40991,0.02142
1792.34974,0.02144
1790.28957,0.02137
1788.22940,0.02126
1786.16923,0.02109
1784.10905,0.02103
1782.04888,0.02113
1779.98871,0.02112
1777.92854,0.02103
1775.86836,0.02113
1773.80819,0.02133
1771.74802,0.02115
1769.68785,0.02064
1767.62768,0.02044
1765.56750,0.02072
1763.50733,0.02112
1761.44716,0.02126
1759.38699,0.02118
1757.32682,0.02116
1755.26664,0.02117
1753.20647,0.02114
1751.14630,0.02114
1749.08613,0.02119
1747.02596,0.02114
1744.96578,0.02102
1742.90561,0.02107
1740.84544,0.02129
1738.78527,0.02144
1736.72509,0.02154
1734.66492,0.02165
1732.60475,0.02170
1730.54458,0.02178
1728.48441,0.02174
1726.42423,0.02165
1724.36406,0.02157
1722.30389,0.02167
1720.24372,0.02203
1718.18355,0.02226
1716.12337,0.02182
1714.06320,0.02141
1712.00303,0.02138
1709.94286,0.02164
1707.88268,0.02194
1705.82251,0.02192
1703.76234,0.02171
1701.70217,0.02169
1699.64200,0.02164
1697.58182,0.02153
1695.52165,0.02168
1693.46148,0.02202
1691.40131,0.02231
1689.34114,0.02264
1687.28096,0.02316
1685.22079,0.02373
1683.16062,0.02373
1681.10045,0.02355
1679.04028,0.02378
1676.98010,0.02431
1674.91993,0.02492
1672.85976,0.02549
1670.79959,0.02590
1668.73941,0.02594
1666.67924,0.02589
1664.61907,0.02603
1662.55890,0.02607
1660.49873,0.02588
1658.43855,0.02591
1656.37838,0.02638
1654.31821,0.02688
1652.25804,0.02670
1650.19787,0.02658
1648.13769,0.02665
1646.07752,0.02644
1644.01735,0.02611
1641.95718,0.02617
1639.89701,0.02662
1637.83683,0.02705
1635.77666,0.02688
1633.71649,0.02645
1631.65632,0.02647
1629.59614,0.02673
1627.53597,0.02689
1625.47580,0.02694
1623.41563,0.02684
1621.35546,0.02659
1619.29528,0.02665
1617.23511,0.02691
1615.17494,0.02673
1613.11477,0.02637
1611.05460,0.02628
1608.99442,0.02636
1606.93425,0.02644
1604.87408,0.02654
1602.81391,0.02657
1600.75373,0.02649
1598.69356,0.02650
1596.63339,0.02654
1594.57322,0.02638
1592.51305,0.02603
1590.45287,0.02576
1588.39270,0.02563
1586.33253,0.02550
1584.27236,0.02528
1582.21219,0.02510
1580.15201,0.02515
1578.09184,0.02522
1576.03167,0.02473
1573.97150,0.02395
1571.91133,0.02368
1569.85115,0.02363
1567.79098,0.02326
1565.73081,0.02281
1563.67064,0.02272
1561.61046,0.02317
1559.55029,0.02320
1557.49012,0.02187
1555.42995,0.02094
1553.36978,0.02078
1551.30960,0.02079
1549.24943,0.02071
1547.18926,0.02068
1545.12909,0.02091
1543.06892,0.02135
1541.00874,0.02156
1538.94857,0.02089
1536.88840,0.02010
1534.82823,0.01987
1532.76805,0.01994
1530.70788,0.01994
1528.64771,0.01991
1526.58754,0.01969
1524.52737,0.01931
1522.46719,0.01905
1520.40702,0.01882
1518.34685,0.01869
1516.28668,0.01850
1514.22651,0.01810
1512.16633,0.01790
1510.10616,0.01827
1508.04599,0.01895
1505.98582,0.01912
1503.92565,0.01872
1501.86547,0.01842
1499.80530,0.01857
1497.74513,0.01888
1495.68496,0.01903
1493.62478,0.01925
1491.56461,0.01951
1489.50444,0.01944
1487.44427,0.01923
1485.38410,0.01926
1483.32392,0.01939
1481.26375,0.01948
1479.20358,0.01956
1477.14341,0.01966
1475.08324,0.01968
1473.02306,0.01956
1470.96289,0.01934
1468.90272,0.01924
1466.84255,0.01944
1464.78238,0.01970
1462.72220,0.01980
1460.66203,0.02004
1458.60186,0.02019
1456.54169,0.01970
1454.48151,0.01929
1452.42134,0.01934
1450.36117,0.01974
1448.30100,0.02021
1446.24083,0.02046
1444.18065,0.02054
1442.12048,0.02064
1440.06031,0.02076
1438.00014,0.02074
1435.93997,0.02060
1433.87979,0.02064
1431.81962,0.02087
1429.75945,0.02104
1427.69928,0.02109
1425.63910,0.02121
1423.57893,0.02138
1421.51876,0.02145
1419.45859,0.02136
1417.39842,0.02135
1415.33824,0.02166
1413.27807,0.02210
1411.21790,0.02242
1409.15773,0.02265
1407.09756,0.02288
1405.03738,0.02303
1402.97721,0.02313
1400.91704,0.02315
1398.85687,0.02288
1396.79670,0.02250
1394.73652,0.02241
1392.67635,0.02257
1390.61618,0.02280
1388.55601,0.02301
1386.49583,0.02310
1384.43566,0.02312
1382.37549,0.02310
1380.31532,0.02308
1378.25515,0.02317
1376.19497,0.02332
1374.13480,0.02333
1372.07463,0.02327
1370.01446,0.02335
1367.95429,0.02347
1365.89411,0.02352
1363.83394,0.02346
1361.77377,0.02335
1359.71360,0.02339
1357.65343,0.02351
1355.59325,0.02361
1353.53308,0.02364
1351.47291,0.02360
1349.41274,0.02344
1347.35256,0.02322
1345.29239,0.02301
1343.23222,0.02281
1341.17205,0.02244
1339.11188,0.02193
1337.05170,0.02177
1334.99153,0.02203
1332.93136,0.02224
1330.87119,0.02219
1328.81102,0.02206
1326.75084,0.02197
1324.69067,0.02185
1322.63050,0.02171
1320.57033,0.02157
1318.51015,0.02139
1316.44998,0.02120
1314.38981,0.02107
1312.32964,0.02105
1310.26947,0.02112
1308.20929,0.02119
1306.14912,0.02119
1304.08895,0.02117
1302.02878,0.02118
1299.96861,0.02116
1297.90843,0.02111
1295.84826,0.02108
1293.78809,0.02108
1291.72792,0.02100
1289.66775,0.02084
1287.60757,0.02075
1285.54740,0.02075
1283.48723,0.02081
1281.42706,0.02090
1279.36688,0.02092
1277.30671,0.02091
1275.24654,0.02093
1273.18637,0.02092
1271.12620,0.02086
1269.06602,0.02082
1267.00585,0.02082
1264.94568,0.02082
1262.88551,0.02087
1260.82534,0.02089
1258.76516,0.02083
1256.70499,0.02073
1254.64482,0.02063
1252.58465,0.02057
1250.52447,0.02051
1248.46430,0.02042
1246.40413,0.02031
1244.34396,0.02019
1242.28379,0.02009
1240.22361,0.01997
1238.16344,0.01992
1236.10327,0.01994
1234.04310,0.01989
1231.98293,0.01982
1229.92275,0.01985
1227.86258,0.01974
1225.80241,0.01954
1223.74224,0.01942
1221.68207,0.01927
1219.62189,0.01912
1217.56172,0.01907
1215.50155,0.01904
1213.44138,0.01897
1211.38120,0.01887
1209.32103,0.01878
1207.26086,0.01876
1205.20069,0.01883
1203.14052,0.01896
1201.08034,0.01912
1199.02017,0.01932
1196.96000,0.01964
1194.89983,0.01999
1192.83966,0.02024
1190.77948,0.02045
1188.71931,0.02084
1186.65914,0.02141
1184.59897,0.02209
1182.53880,0.02275
1180.47862,0.02339
1178.41845,0.02405
1176.35828,0.02455
1174.29811,0.02504
1172.23793,0.02572
1170.17776,0.02641
1168.11759,0.02703
1166.05742,0.02765
1163.99725,0.02833
1161.93707,0.02904
1159.87690,0.02976
1157.81673,0.03049
1155.75656,0.03119
1153.69639,0.03188
1151.63621,0.03263
1149.57604,0.03340
1147.51587,0.03407
1145.45570,0.03470
1143.39552,0.03535
1141.33535,0.03596
1139.27518,0.03645
1137.21501,0.03684
1135.15484,0.03729
1133.09466,0.03779
1131.03449,0.03821
1128.97432,0.03862
1126.91415,0.03920
1124.85398,0.03985
1122.79380,0.04055
1120.73363,0.04125
1118.67346,0.04185
1116.61329,0.04242
1114.55312,0.04316
1112.49294,0.04408
1110.43277,0.04492
1108.37260,0.04561
1106.31243,0.04643
1104.25225,0.04737
1102.19208,0.04818
1100.13191,0.04896
1098.07174,0.04976
1096.01157,0.05048
1093.95139,0.05118
1091.89122,0.05202
1089.83105,0.05293
1087.77088,0.05379
1085.71071,0.05466
1083.65053,0.05564
1081.59036,0.05660
1079.53019,0.05753
1077.47002,0.05847
1075.40985,0.05932
1073.34967,0.05995
1071.28950,0.06048
1069.22933,0.06091
1067.16916,0.06116
1065.10898,0.06125
1063.04881,0.06124
1060.98864,0.06109
1058.92847,0.06078
1056.86830,0.06037
1054.80812,0.05976
1052.74795,0.05887
1050.68778,0.05777
1048.62761,0.05661
1046.56744,0.05547
1044.50726,0.05431
1042.44709,0.05302
1040.38692,0.05158
1038.32675,0.05000
1036.26657,0.04829
1034.20640,0.04658
1032.14623,0.04510
1030.08606,0.04394
1028.02589,0.04289
1025.96571,0.04181
1023.90554,0.04081
1021.84537,0.03984
1019.78520,0.03891
1017.72503,0.03819
1015.66485,0.03782
1013.60468,0.03771
1011.54451,0.03774
1009.48434,0.03792
1007.42417,0.03812
1005.36399,0.03833
1003.30382,0.03888
1001.24365,0.03984
999.18348,0.04092
997.12330,0.04203
995.06313,0.04300
993.00296,0.04374
990.94279,0.04456
988.88262,0.04554
986.82244,0.04633
984.76227,0.04687
982.70210,0.04726
980.64193,0.04764
978.58176,0.04804
976.52158,0.04825
974.46141,0.04830
972.40124,0.04832
970.34107,0.04824
968.28089,0.04787
966.22072,0.04730
964.16055,0.04677
962.10038,0.04628
960.04021,0.04579
957.98003,0.04535
955.91986,0.04484
953.85969,0.04422
951.79952,0.04363
949.73935,0.04297
947.67917,0.04238
945.61900,0.04199
943.55883,0.04159
941.49866,0.04104
939.43849,0.04041
937.37831,0.03975
935.31814,0.03902
933.25797,0.03834
931.19780,0.03775
929.13762,0.03701
927.07745,0.03612
925.01728,0.03540
922.95711,0.03483
920.89694,0.03423
918.83676,0.03367
916.77659,0.03313
914.71642,0.03247
912.65625,0.03182
910.59608,0.03133
908.53590,0.03082
906.47573,0.03026
904.41556,0.02985
902.35539,0.02973
900.29522,0.02969
898.23504,0.02959
896.17487,0.02971
894.11470,0.02997
892.05453,0.03027
889.99435,0.03070
887.93418,0.03110
885.87401,0.03158
883.81384,0.03229
881.75367,0.03303
879.69349,0.03368
877.63332,0.03447
875.57315,0.03551
873.51298,0.03654
871.45281,0.03757
869.39263,0.03873
867.33246,0.03979
865.27229,0.04071
863.21212,0.04167
861.15194,0.04251
859.09177,0.04315
857.03160,0.04364
854.97143,0.04389
852.91126,0.04389
850.85108,0.04387
848.79091,0.04368
846.73074,0.04315
844.67057,0.04253
842.61040,0.04192
840.55022,0.04127
838.49005,0.04052
836.42988,0.03972
834.36971,0.03891
832.30954,0.03801
830.24936,0.03715
828.18919,0.03649
826.12902,0.03589
824.06885,0.03533
822.00867,0.03488
819.94850,0.03448
817.88833,0.03392
815.82816,0.03312
813.76799,0.03231
811.70781,0.03165
809.64764,0.03111
807.58747,0.03078
805.52730,0.03053
803.46713,0.03021
801.40695,0.02998
799.34678,0.02966
797.28661,0.02900
795.22644,0.02846
793.16627,0.02822
791.10609,0.02792
789.04592,0.02754
786.98575,0.02737
784.92558,0.02720
782.86540,0.02673
780.80523,0.02642
778.74506,0.02654
776.68489,0.02654
774.62472,0.02610
772.56454,0.02571
770.50437,0.02561
768.44420,0.02539
766.38403,0.02511
764.32386,0.02515
762.26368,0.02526
760.20351,0.02511
758.14334,0.02489
756.08317,0.02457
754.02299,0.02416
751.96282,0.02398
749.90265,0.02407
747.84248,0.02402
745.78231,0.02363
743.72213,0.02305
741.66196,0.02250
739.60179,0.02229
737.54162,0.02243
735.48145,0.02262
733.42127,0.02270
731.36110,0.02256
729.30093,0.02213
727.24076,0.02186
725.18059,0.02191
723.12041,0.02218
721.06024,0.02120
719.00007,0.02309
716.93990,0.02300
714.87972,0.02261
712.81955,0.02241
710.75938,0.02202
708.69921,0.02178
706.63904,0.02185
704.57886,0.02208
702.51869,0.02237
700.45852,0.02291
698.39835,0.02325
696.33818,0.02322
694.27800,0.02347
692.21783,0.02408
690.15766,0.02472
688.09749,0.02541
686.03731,0.02631
683.97714,0.02719
681.91697,0.02752
679.85680,0.02722
677.79663,0.02648
675.73645,0.02532
673.67628,0.02743
671.61611,0.04108
669.55594,0.04080
667.49577,0.00000
665.43559,0.03122
663.37542,0.02911
661.31525,0.02179
659.25508,0.02135
657.19491,0.02189
655.13473,0.02117
653.07456,0.02035
651.01439,0.01944
648.95422,0.01732
646.89404,0.01686
644.83387,0.01596
642.77370,0.01526
640.71353,0.01469
638.65336,0.01369
636.59318,0.01245
634.53301,0.01126
632.47284,0.00986
630.41267,0.00812
628.35250,0.00646
626.29232,0.00600
624.23215,0.00592
622.17198,0.00571
620.11181,0.00541
618.05164,0.00471
615.99146,0.00337
613.93129,0.00223
611.87112,0.00181
609.81095,0.00137
607.75077,0.00089
605.69060,0.00059
603.63043,-0.00009
601.57026,-0.00046
599.51009,0.00000
