3996.73391,-0.00021
3994.67373,-0.00029
3992.61356,-0.00025
3990.55339,-0.00008
3988.49322,0.00006
3986.43305,0.00011
3984.37287,0.00018
3982.31270,0.00027
3980.25253,0.00022
3978.19236,0.00013
3976.13219,0.00015
3974.07201,0.00028
3972.01184,0.00037
3969.95167,0.00036
3967.89150,0.00036
3965.83133,0.00045
3963.77115,0.00051
3961.71098,0.00040
3959.65081,0.00024
3957.59064,0.00028
3955.53046,0.00055
3953.47029,0.00077
3951.41012,0.00059
3949.34995,0.00014
3947.28978,0.00000
3945.22960,0.00025
3943.16943,0.00039
3941.10926,0.00045
3939.04909,0.00066
3936.98892,0.00079
3934.92874,0.00063
3932.86857,0.00063
3930.80840,0.00110
3928.74823,0.00139
3926.68805,0.00113
3924.62788,0.00065
3922.56771,0.00023
3920.50754,-0.00002
3918.44737,0.00003
3916.38719,0.00055
3914.32702,0.00125
3912.26685,0.00159
3910.20668,0.00153
3908.14651,0.00124
3906.08633,0.00076
3904.02616,0.00028
3901.96599,0.00032
3899.90582,0.00099
3897.84565,0.00148
3895.78547,0.00146
3893.72530,0.00124
3891.66513,0.00114
3889.60496,0.00102
3887.54478,0.00078
3885.48461,0.00071
3883.42444,0.00069
3881.36427,0.00057
3879.30410,0.00067
3877.24392,0.00075
3875.18375,0.00059
3873.12358,0.00046
3871.06341,0.00062
3869.00324,0.00114
3866.94306,0.00152
3864.88289,0.00154
3862.82272,0.00148
3860.76255,0.00139
3858.70237,0.00097
3856.64220,0.00012
3854.58203,0.00000
3852.52186,0.00136
3850.46169,0.00237
3848.40151,0.00194
3846.34134,0.00135
3844.28117,0.00131
3842.22100,0.00126
3840.16083,0.00092
3838.10065,0.00089
3836.04048,0.00137
3833.98031,0.00182
3831.92014,0.00212
3829.85997,0.00232
3827.79979,0.00226
3825.73962,0.00195
3823.67945,0.00173
3821.61928,0.00197
3819.55910,0.00224
3817.49893,0.00234
3815.43876,0.00269
3813.37859,0.00297
3811.31842,0.00277
3809.25824,0.00247
3807.19807,0.00235
3805.13790,0.00228
3803.07773,0.00248
3801.01756,0.00307
3798.95738,0.00330
3796.89721,0.00308
3794.83704,0.00308
3792.77687,0.00326
3790.71670,0.00321
3788.65652,0.00300
3786.59635,0.00291
3784.53618,0.00309
3782.47601,0.00346
3780.41583,0.00393
3778.35566,0.00435
3776.29549,0.00438
3774.23532,0.00393
3772.17515,0.00339
3770.11497,0.00315
3768.05480,0.00315
3765.99463,0.00312
3763.93446,0.00292
3761.87429,0.00255
3759.81411,0.00210
3757.75394,0.00166
3755.69377,0.00133
3753.63360,0.00101
3751.57342,0.00060
3749.51325,0.00032
3747.45308,0.00024
3745.39291,0.00013
3743.33274,0.00056
3741.27256,0.00104
3739.21239,0.00089
3737.15222,0.00069
3735.09205,0.00090
3733.03188,0.00118
3730.97170,0.00149
3728.91153,0.00149
3726.85136,0.00139
3724.79119,0.00163
3722.73102,0.00180
3720.67084,0.00203
3718.61067,0.00190
3716.55050,0.00185
3714.49033,0.00220
3712.43015,0.00264
3710.36998,0.00355
3708.30981,0.00399
3706.24964,0.00409
3704.18947,0.00400
3702.12929,0.00384
3700.06912,0.00383
3698.00895,0.00380
3695.94878,0.00372
3693.88861,0.00359
3691.82843,0.00386
3689.76826,0.00424
3687.70809,0.00464
3685.64792,0.00460
3683.58775,0.00448
3681.52757,0.00427
3679.46740,0.00383
3677.40723,0.00328
3675.34706,0.00328
3673.28688,0.00361
3671.22671,0.00407
3669.16654,0.00481
3667.10637,0.00509
3665.04620,0.00487
3662.98602,0.00469
3660.92585,0.00457
3658.86568,0.00455
3656.80551,0.00484
3654.74534,0.00506
3652.68516,0.00484
3650.62499,0.00482
3648.56482,0.00554
3646.50465,0.00639
3644.44447,0.00632
3642.38430,0.00599
3640.32413,0.00595
3638.26396,0.00597
3636.20379,0.00597
3634.14361,0.00604
3632.08344,0.00626
3630.02327,0.00648
3627.96310,0.00686
3625.90293,0.00699
3623.84275,0.00695
3621.78258,0.00667
3619.72241,0.00640
3617.66224,0.00669
3615.60207,0.00707
3613.54189,0.00728
3611.48172,0.00710
3609.42155,0.00720
3607.36138,0.00770
3605.30120,0.00789
3603.24103,0.00813
3601.18086,0.00847
3599.12069,0.00874
3597.06052,0.00870
3595.00034,0.00891
3592.94017,0.00903
3590.88000,0.00933
3588.81983,0.00953
3586.75966,0.00977
3584.69948,0.01014
3582.63931,0.01059
3580.57914,0.01110
3578.51897,0.01158
3576.45879,0.01194
3574.39862,0.01202
3572.33845,0.01185
3570.27828,0.01162
3568.21811,0.01157
3566.15793,0.01193
3564.09776,0.01244
3562.03759,0.01266
3559.97742,0.01276
3557.91725,0.01294
3555.85707,0.01321
3553.79690,0.01349
3551.73673,0.01360
3549.67656,0.01348
3547.61639,0.01334
3545.55621,0.01338
3543.49604,0.01360
3541.43587,0.01403
3539.37570,0.01462
3537.31552,0.01517
3535.25535,0.01548
3533.19518,0.01561
3531.13501,0.01564
3529.07484,0.01563
3527.01466,0.01560
3524.95449,0.01569
3522.89432,0.01606
3520.83415,0.01664
3518.77398,0.01713
3516.71380,0.01736
3514.65363,0.01747
3512.59346,0.01749
3510.53329,0.01737
3508.47312,0.01723
3506.41294,0.01723
3504.35277,0.01735
3502.29260,0.01762
3500.23243,0.01817
3498.17225,0.01879
3496.11208,0.01916
3494.05191,0.01929
3491.99174,0.01942
3489.93157,0.01959
3487.87139,0.01964
3485.81122,0.01948
3483.75105,0.01938
3481.69088,0.01957
3479.63071,0.01999
3477.57053,0.02049
3475.51036,0.02081
3473.45019,0.02083
3471.39002,0.02074
3469.32984,0.02081
3467.26967,0.02104
3465.20950,0.02123
3463.14933,0.02132
3461.08916,0.02150
3459.02898,0.02183
3456.96881,0.02210
3454.90864,0.02220
3452.84847,0.02221
3450.78830,0.02216
3448.72812,0.02209
3446.66795,0.02206
3444.60778,0.02215
3442.54761,0.02231
3440.48744,0.02241
3438.42726,0.02248
3436.36709,0.02268
3434.30692,0.02297
3432.24675,0.02313
3430.18657,0.02324
3428.12640,0.02347
3426.06623,0.02369
3424.00606,0.02374
3421.94589,0.02377
3419.88571,0.02384
3417.82554,0.02392
3415.76537,0.02412
3413.70520,0.02444
3411.64503,0.02474
3409.58485,0.02482
3407.52468,0.02479
3405.46451,0.02485
3403.40434,0.02489
3401.34416,0.02484
3399.28399,0.02439
3397.22382,0.02459
3395.16365,0.02489
3393.10348,0.02504
3391.04330,0.02520
3388.98313,0.02548
3386.92296,0.02584
3384.86279,0.02609
3382.80262,0.02609
3380.74244,0.02601
3378.68227,0.02610
3376.62210,0.02633
3374.56193,0.02658
3372.50176,0.02671
3370.44158,0.02675
3368.38141,0.02672
3366.32124,0.02671
3364.26107,0.02693
3362.20089,0.02724
3360.14072,0.02727
3358.08055,0.02718
3356.02038,0.02725
3353.96021,0.02738
3351.90003,0.02742
3349.83986,0.02747
3347.77969,0.02760
3345.71952,0.02769
3343.65935,0.02772
3341.59917,0.02769
3339.53900,0.02763
3337.47883,0.02779
3335.41866,0.02809
3333.35849,0.02831
3331.29831,0.02850
3329.23814,0.02868
3327.17797,0.02872
3325.11780,0.02864
3323.05762,0.02862
3320.99745,0.02881
3318.93728,0.02907
3316.87711,0.02909
3314.81694,0.02879
3312.75676,0.02843
3310.69659,0.02832
3308.63642,0.02853
3306.57625,0.02884
3304.51608,0.02905
3302.45590,0.02927
3300.39573,0.02949
3298.33556,0.02960
3296.27539,0.02950
3294.21521,0.02934
3292.15504,0.02928
3290.09487,0.02938
3288.03470,0.02966
3285.97453,0.02996
3283.91435,0.03006
3281.85418,0.03001
3279.79401,0.02981
3277.73384,0.02950
3275.67367,0.02941
3273.61349,0.02963
3271.55332,0.02987
3269.49315,0.03000
3267.43298,0.03016
3265.37281,0.03032
3263.31263,0.03023
3261.25246,0.03016
3259.19229,0.03037
3257.13212,0.03045
3255.07194,0.03028
3253.01177,0.03019
3250.95160,0.03024
3248.89143,0.03034
3246.83126,0.03042
3244.77108,0.03048
3242.71091,0.03059
3240.65074,0.03058
3238.59057,0.03049
3236.53040,0.03050
3234.47022,0.03066
3232.41005,0.03088
3230.34988,0.03096
3228.28971,0.03091
3226.22954,0.03091
3224.16936,0.03103
3222.10919,0.03104
3220.04902,0.03089
3217.98885,0.03089
3215.92867,0.03101
3213.86850,0.03108
3211.80833,0.03111
3209.74816,0.03112
3207.68799,0.03113
3205.62781,0.03115
3203.56764,0.03114
3201.50747,0.03114
3199.44730,0.03132
3197.38713,0.03157
3195.32695,0.03160
3193.26678,0.03142
3191.20661,0.03135
3189.14644,0.03147
3187.08626,0.03153
3185.02609,0.03138
3182.96592,0.03122
3180.90575,0.03110
3178.84558,0.03102
3176.78540,0.03115
3174.72523,0.03147
3172.66506,0.03168
3170.60489,0.03176
3168.54472,0.03177
3166.48454,0.03165
3164.42437,0.03151
3162.36420,0.03145
3160.30403,0.03149
3158.24386,0.03162
3156.18368,0.03166
3154.12351,0.03145
3152.06334,0.03127
3150.00317,0.03130
3147.94299,0.03130
3145.88282,0.03128
3143.82265,0.03134
3141.76248,0.03140
3139.70231,0.03140
3137.64213,0.03144
3135.58196,0.03146
3133.52179,0.03130
3131.46162,0.03120
3129.40145,0.03122
3127.34127,0.03116
3125.28110,0.03107
3123.22093,0.03101
3121.16076,0.03091
3119.10058,0.03077
3117.04041,0.03069
3114.98024,0.03076
3112.92007,0.03098
3110.85990,0.03117
3108.79972,0.03117
3106.73955,0.03104
3104.67938,0.03087
3102.61921,0.03070
3100.55904,0.03063
3098.49886,0.03064
3096.43869,0.03057
3094.37852,0.03048
3092.31835,0.03049
3090.25818,0.03050
3088.19800,0.03047
3086.13783,0.03055
3084.07766,0.03058
3082.01749,0.03046
3079.95731,0.03040
3077.89714,0.03041
3075.83697,0.03046
3073.77680,0.03054
3071.71663,0.03049
3069.65645,0.03029
3067.59628,0.03018
3065.53611,0.03027
3063.47594,0.03048
3061.41577,0.03053
3059.35559,0.03032
3057.29542,0.03006
3055.23525,0.02997
3053.17508,0.02995
3051.11491,0.02989
3049.05473,0.02985
3046.99456,0.02982
3044.93439,0.02973
3042.87422,0.02967
3040.81404,0.02971
3038.75387,0.02978
3036.69370,0.02967
3034.63353,0.02947
3032.57336,0.02942
3030.51318,0.02946
3028.45301,0.02941
3026.39284,0.02927
3024.33267,0.02922
3022.27250,0.02923
3020.21232,0.02921
3018.15215,0.02912
3016.09198,0.02895
3014.03181,0.02879
3011.97163,0.02871
3009.91146,0.02863
3007.85129,0.02859
3005.79112,0.02861
3003.73095,0.02865
3001.67077,0.02868
2999.61060,0.02874
2997.55043,0.02863
2995.49026,0.02839
2993.43009,0.02819
2991.36991,0.02832
2989.30974,0.02855
2987.24957,0.02858
2985.18940,0.02848
2983.12923,0.02837
2981.06905,0.02834
2979.00888,0.02848
2976.94871,0.02858
2974.88854,0.02844
2972.82836,0.02829
2970.76819,0.02831
2968.70802,0.02838
2966.64785,0.02837
2964.58768,0.02831
2962.52750,0.02827
2960.46733,0.02831
2958.40716,0.02848
2956.34699,0.02868
2954.28682,0.02878
2952.22664,0.02874
2950.16647,0.02863
2948.10630,0.02847
2946.04613,0.02824
2943.98596,0.02809
2941.92578,0.02809
2939.86561,0.02814
2937.80544,0.02824
2935.74527,0.02841
2933.68509,0.02866
2931.62492,0.02883
2929.56475,0.02876
2927.50458,0.02860
2925.44441,0.02850
2923.38423,0.02849
2921.32406,0.02865
2919.26389,0.02886
2917.20372,0.02887
2915.14355,0.02875
2913.08337,0.02867
2911.02320,0.02866
2908.96303,0.02862
2906.90286,0.02848
2904.84268,0.02830
2902.78251,0.02822
2900.72234,0.02823
2898.66217,0.02834
2896.60200,0.02852
2894.54182,0.02861
2892.48165,0.02857
2890.42148,0.02853
2888.36131,0.02859
2886.30114,0.02864
2884.24096,0.02861
2882.18079,0.02860
2880.12062,0.02855
2878.06045,0.02840
2876.00028,0.02831
2873.94010,0.02829
2871.87993,0.02828
2869.81976,0.02832
2867.75959,0.02837
2865.69941,0.02832
2863.63924,0.02818
2861.57907,0.02811
2859.51890,0.02813
2857.45873,0.02816
2855.39855,0.02820
2853.33838,0.02826
2851.27821,0.02832
2849.21804,0.02840
2847.15787,0.02848
2845.09769,0.02853
2843.03752,0.02842
2840.97735,0.02817
2838.91718,0.02792
2836.85700,0.02779
2834.79683,0.02783
2832.73666,0.02793
2830.67649,0.02792
2828.61632,0.02776
2826.55614,0.02767
2824.49597,0.02772
2822.43580,0.02769
2820.37563,0.02748
2818.31546,0.02732
2816.25528,0.02730
2814.19511,0.02739
2812.13494,0.02745
2810.07477,0.02737
2808.01460,0.02717
2805.95442,0.02697
2803.89425,0.02686
2801.83408,0.02684
2799.77391,0.02687
2797.71373,0.02690
2795.65356,0.02690
2793.59339,0.02684
2791.53322,0.02675
2789.47305,0.02666
2787.41287,0.02658
2785.35270,0.02653
2783.29253,0.02657
2781.23236,0.02654
2779.17219,0.02645
2777.11201,0.02641
2775.05184,0.02636
2772.99167,0.02635
2770.93150,0.02633
2768.87133,0.02620
2766.81115,0.02612
2764.75098,0.02610
2762.69081,0.02599
2760.63064,0.02582
2758.57046,0.02585
2756.51029,0.02601
2754.45012,0.02609
2752.38995,0.02614
2750.32978,0.02612
2748.26960,0.02598
2746.20943,0.02580
2744.14926,0.02562
2742.08909,0.02553
2740.02892,0.02553
2737.96874,0.02552
2735.90857,0.02546
2733.84840,0.02540
2731.78823,0.02540
2729.72805,0.02544
2727.66788,0.02544
2725.60771,0.02534
2723.54754,0.02520
2721.48737,0.02513
2719.42719,0.02510
2717.36702,0.02510
2715.30685,0.02514
2713.24668,0.02506
2711.18651,0.02489
2709.12633,0.02478
2707.06616,0.02476
2705.00599,0.02476
2702.94582,0.02475
2700.88565,0.02475
2698.82547,0.02474
2696.76530,0.02473
2694.70513,0.02481
2692.64496,0.02486
2690.58478,0.02480
2688.52461,0.02472
2686.46444,0.02466
2684.40427,0.02458
2682.34410,0.02445
2680.28392,0.02438
2678.22375,0.02445
2676.16358,0.02448
2674.10341,0.02447
2672.04324,0.02441
2669.98306,0.02418
2667.92289,0.02397
2665.86272,0.02400
2663.80255,0.02410
2661.74238,0.02411
2659.68220,0.02411
2657.62203,0.02410
2655.56186,0.02398
2653.50169,0.02383
2651.44151,0.02373
2649.38134,0.02373
2647.32117,0.02382
2645.26100,0.02383
2643.20083,0.02367
2641.14065,0.02348
2639.08048,0.02347
2637.02031,0.02364
2634.96014,0.02380
2632.89997,0.02376
2630.83979,0.02375
2628.77962,0.02380
2626.71945,0.02380
2624.65928,0.02378
2622.59910,0.02370
2620.53893,0.02361
2618.47876,0.02367
2616.41859,0.02371
2614.35842,0.02361
2612.29824,0.02349
2610.23807,0.02345
2608.17790,0.02352
2606.11773,0.02370
2604.05756,0.02381
2601.99738,0.02388
2599.93721,0.02396
2597.87704,0.02387
2595.81687,0.02362
2593.75670,0.02352
2591.69652,0.02367
2589.63635,0.02385
2587.57618,0.02381
2585.51601,0.02363
2583.45583,0.02359
2581.39566,0.02374
2579.33549,0.02396
2577.27532,0.02409
2575.21515,0.02402
2573.15497,0.02382
2571.09480,0.02360
2569.03463,0.02362
2566.97446,0.02385
2564.91429,0.02396
2562.85411,0.02390
2560.79394,0.02393
2558.73377,0.02404
2556.67360,0.02403
2554.61342,0.02405
2552.55325,0.02427
2550.49308,0.02442
2548.43291,0.02438
2546.37274,0.02433
2544.31256,0.02434
2542.25239,0.02428
2540.19222,0.02403
2538.13205,0.02390
2536.07188,0.02408
2534.01170,0.02429
2531.95153,0.02437
2529.89136,0.02449
2527.83119,0.02471
2525.77102,0.02486
2523.71084,0.02478
2521.65067,0.02459
2519.59050,0.02460
2517.53033,0.02470
2515.47015,0.02466
2513.40998,0.02464
2511.34981,0.02485
2509.28964,0.02516
2507.22947,0.02535
2505.16929,0.02537
2503.10912,0.02529
2501.04895,0.02506
2498.98878,0.02474
2496.92861,0.02461
2494.86843,0.02489
2492.80826,0.02537
2490.74809,0.02563
2488.68792,0.02558
2486.62775,0.02561
2484.56757,0.02585
2482.50740,0.02592
2480.44723,0.02586
2478.38706,0.02588
2476.32688,0.02581
2474.26671,0.02578
2472.20654,0.02600
2470.14637,0.02618
2468.08620,0.02610
2466.02602,0.02602
2463.96585,0.02616
2461.90568,0.02636
2459.84551,0.02646
2457.78534,0.02649
2455.72516,0.02650
2453.66499,0.02642
2451.60482,0.02616
2449.54465,0.02608
2447.48447,0.02638
2445.42430,0.02668
2443.36413,0.02675
2441.30396,0.02678
2439.24379,0.02680
2437.18361,0.02673
2435.12344,0.02667
2433.06327,0.02665
2431.00310,0.02664
2428.94293,0.02678
2426.88275,0.02696
2424.82258,0.02689
2422.76241,0.02673
2420.70224,0.02683
2418.64207,0.02697
2416.58189,0.02691
2414.52172,0.02678
2412.46155,0.02666
2410.40138,0.02653
2408.34120,0.02658
2406.28103,0.02676
2404.22086,0.02682
2402.16069,0.02682
2400.10052,0.02687
2398.04034,0.02716
2395.98017,0.02735
2393.92000,0.02737
2391.85983,0.02729
2389.79966,0.02720
2387.73948,0.02717
2385.67931,0.02743
2383.61914,0.02755
2381.55897,0.02697
2379.49880,0.02641
2377.43862,0.02586
2375.37845,0.02421
2373.31828,0.02569
2371.25811,0.02696
2369.19793,0.02558
2367.13776,0.02479
2365.07759,0.02656
2363.01742,0.02450
2360.95725,0.02734
2358.89707,0.02521
2356.83690,0.02365
2354.77673,0.02060
2352.71656,0.02252
2350.65639,0.03261
2348.59621,0.03997
2346.53604,0.02298
2344.47587,0.01928
2342.41570,0.02339
2340.35552,0.02699
2338.29535,0.02664
2336.23518,0.02626
2334.17501,0.02619
2332.11484,0.02577
2330.05466,0.02712
2327.99449,0.02492
2325.93432,0.02815
2323.87415,0.02651
2321.81398,0.02709
2319.75380,0.02400
2317.69363,0.02530
2315.63346,0.02508
2313.57329,0.02262
2311.51312,0.02295
2309.45294,0.02400
2307.39277,0.02520
2305.33260,0.02630
2303.27243,0.02688
2301.21225,0.02645
2299.15208,0.02637
2297.09191,0.02627
2295.03174,0.02576
2292.97157,0.02578
2290.91139,0.02567
2288.85122,0.02541
2286.79105,0.02565
2284.73088,0.02609
2282.67071,0.02620
2280.61053,0.02622
2278.55036,0.02601
2276.49019,0.02558
2274.43002,0.02560
2272.36984,0.02545
2270.30967,0.02506
2268.24950,0.02492
2266.18933,0.02516
2264.12916,0.02551
2262.06898,0.02589
2260.00881,0.02577
2257.94864,0.02570
2255.88847,0.02578
2253.82830,0.02584
2251.76812,0.02559
2249.70795,0.02520
2247.64778,0.02513
2245.58761,0.02534
2243.52744,0.02520
2241.46726,0.02482
2239.40709,0.02467
2237.34692,0.02466
2235.28675,0.02473
2233.22657,0.02513
2231.16640,0.02569
2229.10623,0.02604
2227.04606,0.02600
2224.98589,0.02541
2222.92571,0.02428
2220.86554,0.02327
2218.80537,0.02323
2216.74520,0.02396
2214.68503,0.02437
2212.62485,0.02445
2210.56468,0.02462
2208.50451,0.02462
2206.44434,0.02436
2204.38417,0.02418
2202.32399,0.02430
2200.26382,0.02420
2198.20365,0.02390
2196.14348,0.02384
2194.08330,0.02350
2192.02313,0.02309
2189.96296,0.02337
2187.90279,0.02383
2185.84262,0.02375
2183.78244,0.02347
2181.72227,0.02373
2179.66210,0.02452
2177.60193,0.02519
2175.54176,0.02516
2173.48158,0.02476
2171.42141,0.02445
2169.36124,0.02407
2167.30107,0.02359
2165.24089,0.02325
2163.18072,0.02319
2161.12055,0.02311
2159.06038,0.02294
2157.00021,0.02308
2154.94003,0.02356
2152.87986,0.02406
2150.81969,0.02420
2148.75952,0.02391
2146.69935,0.02339
2144.63917,0.02308
2142.57900,0.02342
2140.51883,0.02416
2138.45866,0.02473
2136.39849,0.02480
2134.33831,0.02448
2132.27814,0.02415
2130.21797,0.02395
2128.15780,0.02382
2126.09762,0.02378
2124.03745,0.02382
2121.97728,0.02398
2119.91711,0.02411
2117.85694,0.02394
2115.79676,0.02357
2113.73659,0.02348
2111.67642,0.02369
2109.61625,0.02381
2107.55608,0.02370
2105.49590,0.02328
2103.43573,0.02278
2101.37556,0.02302
2099.31539,0.02411
2097.25521,0.02454
2095.19504,0.02412
2093.13487,0.02349
2091.07470,0.02313
2089.01453,0.02309
2086.95435,0.02322
2084.89418,0.02328
2082.83401,0.02343
2080.77384,0.02388
2078.71367,0.02420
2076.65349,0.02413
2074.59332,0.02390
2072.53315,0.02362
2070.47298,0.02326
2068.41281,0.02311
2066.35263,0.02329
2064.29246,0.02332
2062.23229,0.02308
2060.17212,0.02267
2058.11194,0.02225
2056.05177,0.02240
2053.99160,0.02321
2051.93143,0.02394
2049.87126,0.02433
2047.81108,0.02478
2045.75091,0.02550
2043.69074,0.02582
2041.63057,0.02540
2039.57040,0.02487
2037.51022,0.02457
2035.45005,0.02428
2033.38988,0.02372
2031.32971,0.02281
2029.26954,0.02223
2027.20936,0.02269
2025.14919,0.02380
2023.08902,0.02459
2021.02885,0.02449
2018.96867,0.02358
2016.90850,0.02303
2014.84833,0.02366
2012.78816,0.02438
2010.72799,0.02461
2008.66781,0.02494
2006.60764,0.02506
2004.54747,0.02437
2002.48730,0.02360
2000.42713,0.02334
1998.36695,0.02336
1996.30678,0.02351
1994.24661,0.02409
1992.18644,0.02494
1990.12626,0.02504
1988.06609,0.02422
1986.00592,0.02359
1983.94575,0.02388
1981.88558,0.02488
1979.82540,0.02570
1977.76523,0.02579
1975.70506,0.02542
1973.64489,0.02521
1971.58472,0.02551
1969.52454,0.02595
1967.46437,0.02582
1965.40420,0.02504
1963.34403,0.02434
1961.28386,0.02413
1959.22368,0.02415
1957.16351,0.02406
1955.10334,0.02391
1953.04317,0.02404
1950.98299,0.02438
1948.92282,0.02487
1946.86265,0.02540
1944.80248,0.02548
1942.74231,0.02517
1940.68213,0.02501
1938.62196,0.02505
1936.56179,0.02499
1934.50162,0.02481
1932.44145,0.02456
1930.38127,0.02438
1928.32110,0.02453
1926.26093,0.02477
1924.20076,0.02473
1922.14059,0.02446
1920.08041,0.02424
1918.02024,0.02421
1915.96007,0.02444
1913.89990,0.02487
1911.83972,0.02522
1909.77955,0.02536
1907.71938,0.02547
1905.65921,0.02565
1903.59904,0.02570
1901.53886,0.02550
1899.47869,0.02521
1897.41852,0.02506
1895.35835,0.02502
1893.29818,0.02495
1891.23800,0.02505
1889.17783,0.02534
1887.11766,0.02557
1885.05749,0.02556
1882.99731,0.02534
1880.93714,0.02520
1878.87697,0.02536
1876.81680,0.02566
1874.75663,0.02585
1872.69645,0.02596
1870.63628,0.02614
1868.57611,0.02628
1866.51594,0.02624
1864.45577,0.02615
1862.39559,0.02609
1860.33542,0.02597
1858.27525,0.02595
1856.21508,0.02615
1854.15491,0.02633
1852.09473,0.02631
1850.03456,0.02628
1847.97439,0.02629
1845.91422,0.02604
1843.85404,0.02561
1841.79387,0.02556
1839.73370,0.02602
1837.67353,0.02650
1835.61336,0.02662
1833.55318,0.02663
1831.49301,0.02686
1829.43284,0.02711
1827.37267,0.02713
1825.31250,0.02703
1823.25232,0.02709
1821.19215,0.02729
1819.13198,0.02735
1817.07181,0.02723
1815.01163,0.02709
1812.95146,0.02698
1810.89129,0.02684
1808.83112,0.02671
1806.77095,0.02672
1804.71077,0.02677
1802.65060,0.02674
1800.59043,0.02676
1798.53026,0.02688
1796.47009,0.02700
1794.40991,0.02713
1792.34974,0.02721
1790.28957,0.02707
1788.22940,0.02675
1786.16923,0.02646
1784.10905,0.02651
1782.04888,0.02688
1779.98871,0.02710
1777.92854,0.02702
1775.86836,0.02705
1773.80819,0.02727
1771.74802,0.02719
1769.68785,0.02674
1767.62768,0.02654
1765.56750,0.02672
1763.50733,0.02701
1761.44716,0.02714
1759.38699,0.02710
1757.32682,0.02701
1755.26664,0.02690
1753.20647,0.02682
1751.14630,0.02687
1749.08613,0.02704
1747.02596,0.02712
1744.96578,0.02711
1742.90561,0.02720
1740.84544,0.02735
1738.78527,0.02734
1736.72509,0.02729
1734.66492,0.02737
1732.60475,0.02749
1730.54458,0.02761
1728.48441,0.02763
1726.42423,0.02758
1724.36406,0.02754
1722.30389,0.02761
1720.24372,0.02791
1718.18355,0.02808
1716.12337,0.02763
1714.06320,0.02722
1712.00303,0.02711
1709.94286,0.02726
1707.88268,0.02751
1705.82251,0.02750
1703.76234,0.02724
1701.70217,0.02716
1699.64200,0.02726
1697.58182,0.02737
1695.52165,0.02750
1693.46148,0.02770
1691.40131,0.02796
1689.34114,0.02830
1687.28096,0.02874
1685.22079,0.02925
1683.16062,0.02932
1681.10045,0.02920
1679.04028,0.02941
1676.98010,0.03002
1674.91993,0.03077
1672.85976,0.03137
1670.79959,0.03173
1668.73941,0.03179
1666.67924,0.03182
1664.61907,0.03205
1662.55890,0.03215
1660.49873,0.03195
1658.43855,0.03193
1656.37838,0.03241
1654.31821,0.03294
1652.25804,0.03269
1650.19787,0.03234
1648.13769,0.03227
1646.07752,0.03220
1644.01735,0.03200
1641.95718,0.03203
1639.89701,0.03244
1637.83683,0.03301
1635.77666,0.03311
1633.71649,0.03273
1631.65632,0.03254
1629.59614,0.03261
1627.53597,0.03275
1625.47580,0.03290
1623.41563,0.03296
1621.35546,0.03285
1619.29528,0.03291
1617.23511,0.03311
1615.17494,0.03292
1613.11477,0.03258
1611.05460,0.03248
1608.99442,0.03253
1606.93425,0.03258
1604.87408,0.03270
1602.81391,0.03280
1600.75373,0.03271
1598.69356,0.03256
1596.63339,0.03247
1594.57322,0.03236
1592.51305,0.03216
1590.45287,0.03199
1588.39270,0.03188
1586.33253,0.03175
1584.27236,0.03151
1582.21219,0.03118
1580.15201,0.03106
1578.09184,0.03116
1576.03167,0.03086
1573.97150,0.03015
1571.91133,0.02980
1569.85115,0.02973
1567.79098,0.02943
1565.73081,0.02905
1563.67064,0.02900
1561.61046,0.02946
1559.55029,0.02954
1557.49012,0.02822
1555.42995,0.02717
1553.36978,0.02686
1551.30960,0.02685
1549.24943,0.02685
1547.18926,0.02684
1545.12909,0.02705
1543.06892,0.02749
1541.00874,0.02775
1538.94857,0.02720
1536.88840,0.02647
1534.82823,0.02622
1532.76805,0.02619
1530.70788,0.02601
1528.64771,0.02586
1526.58754,0.02570
1524.52737,0.02542
1522.46719,0.02510
1520.40702,0.02474
1518.34685,0.02457
1516.28668,0.02447
1514.22651,0.02423
1512.16633,0.02410
1510.10616,0.02440
1508.04599,0.02490
1505.98582,0.02492
1503.92565,0.02451
1501.86547,0.02423
1499.80530,0.02439
1497.74513,0.02468
1495.68496,0.02485
1493.62478,0.02516
1491.56461,0.02554
1489.50444,0.02548
1487.44427,0.02508
1485.38410,0.02490
1483.32392,0.02496
1481.26375,0.02506
1479.20358,0.02515
1477.14341,0.02534
1475.08324,0.02564
1473.02306,0.02584
1470.96289,0.02572
1468.90272,0.02551
1466.84255,0.02558
1464.78238,0.02573
1462.72220,0.02569
1460.66203,0.02587
1458.60186,0.02618
1456.54169,0.02595
1454.48151,0.02563
1452.42134,0.02564
1450.36117,0.02599
1448.30100,0.02637
1446.24083,0.02651
1444.18065,0.02653
1442.12048,0.02664
1440.06031,0.02684
1438.00014,0.02690
1435.93997,0.02675
1433.87979,0.02675
1431.81962,0.02704
1429.75945,0.02740
1427.69928,0.02759
1425.63910,0.02771
1423.57893,0.02787
1421.51876,0.02801
1419.45859,0.02805
1417.39842,0.02811
1415.33824,0.02843
1413.27807,0.02893
1411.21790,0.02936
1409.15773,0.02965
1407.09756,0.02987
1405.03738,0.02997
1402.97721,0.03000
1400.91704,0.03000
1398.85687,0.02982
1396.79670,0.02963
1394.73652,0.02972
1392.67635,0.02988
1390.61618,0.02998
1388.55601,0.03007
1386.49583,0.03013
1384.43566,0.03019
1382.37549,0.03028
1380.31532,0.03038
1378.25515,0.03057
1376.19497,0.03085
1374.13480,0.03089
1372.07463,0.03072
1370.01446,0.03069
1367.95429,0.03085
1365.89411,0.03101
1363.83394,0.03096
1361.77377,0.03074
1359.71360,0.03073
1357.65343,0.03092
1355.59325,0.03102
1353.53308,0.03095
1351.47291,0.03084
1349.41274,0.03069
1347.35256,0.03041
1345.29239,0.03007
1343.23222,0.02972
1341.17205,0.02928
1339.11188,0.02878
1337.05170,0.02859
1334.99153,0.02873
1332.93136,0.02881
1330.87119,0.02869
1328.81102,0.02849
1326.75084,0.02830
1324.69067,0.02811
1322.63050,0.02791
1320.57033,0.02772
1318.51015,0.02753
1316.44998,0.02740
1314.38981,0.02734
1312.32964,0.02732
1310.26947,0.02730
1308.20929,0.02723
1306.14912,0.02710
1304.08895,0.02702
1302.02878,0.02699
1299.96861,0.02696
1297.90843,0.02692
1295.84826,0.02692
1293.78809,0.02691
1291.72792,0.02676
1289.66775,0.02653
1287.60757,0.02642
1285.54740,0.02643
1283.48723,0.02645
1281.42706,0.02644
1279.36688,0.02640
1277.30671,0.02637
1275.24654,0.02640
1273.18637,0.02642
1271.12620,0.02639
1269.06602,0.02630
1267.00585,0.02619
1264.94568,0.02613
1262.88551,0.02614
1260.82534,0.02615
1258.76516,0.02619
1256.70499,0.02625
1254.64482,0.02623
1252.58465,0.02617
1250.52447,0.02611
1248.46430,0.02601
1246.40413,0.02581
1244.34396,0.02563
1242.28379,0.02558
1240.22361,0.02557
1238.16344,0.02553
1236.10327,0.02552
1234.04310,0.02551
1231.98293,0.02544
1229.92275,0.02531
1227.86258,0.02510
1225.80241,0.02495
1223.74224,0.02490
1221.68207,0.02480
1219.62189,0.02472
1217.56172,0.02474
1215.50155,0.02462
1213.44138,0.02437
1211.38120,0.02421
1209.32103,0.02425
1207.26086,0.02442
1205.20069,0.02462
1203.14052,0.02481
1201.08034,0.02506
1199.02017,0.02539
1196.96000,0.02591
1194.89983,0.02648
1192.83966,0.02701
1190.77948,0.02751
1188.71931,0.02813
1186.65914,0.02895
1184.59897,0.02993
1182.53880,0.03089
1180.47862,0.03181
1178.41845,0.03277
1176.35828,0.03360
1174.29811,0.03434
1172.23793,0.03528
1170.17776,0.03629
1168.11759,0.03708
1166.05742,0.03780
1163.99725,0.03871
1161.93707,0.03968
1159.87690,0.04059
1157.81673,0.04142
1155.75656,0.04218
1153.69639,0.04286
1151.63621,0.04353
1149.57604,0.04430
1147.51587,0.04511
1145.45570,0.04574
1143.39552,0.04613
1141.33535,0.04645
1139.27518,0.04677
1137.21501,0.04705
1135.15484,0.04725
1133.09466,0.04737
1131.03449,0.04746
1128.97432,0.04755
1126.91415,0.04770
1124.85398,0.04800
1122.79380,0.04854
1120.73363,0.04913
1118.67346,0.04956
1116.61329,0.04991
1114.55312,0.05052
1112.49294,0.05140
1110.43277,0.05218
1108.37260,0.05283
1106.31243,0.05358
1104.25225,0.05440
1102.19208,0.05518
1100.13191,0.05599
1098.07174,0.05691
1096.01157,0.05781
1093.95139,0.05866
1091.89122,0.05956
1089.83105,0.06053
1087.77088,0.06155
1085.71071,0.06254
1083.65053,0.06348
1081.59036,0.06439
1079.53019,0.06530
1077.47002,0.06630
1075.40985,0.06729
1073.34967,0.06813
1071.28950,0.06879
1069.22933,0.06919
1067.16916,0.06934
1065.10898,0.06943
1063.04881,0.06954
1060.98864,0.06955
1058.92847,0.06940
1056.86830,0.06903
1054.80812,0.06835
1052.74795,0.06745
1050.68778,0.06641
1048.62761,0.06528
1046.56744,0.06419
1044.50726,0.06312
1042.44709,0.06179
1040.38692,0.06020
1038.32675,0.05861
1036.26657,0.05707
1034.20640,0.05550
1032.14623,0.05398
1030.08606,0.05266
1028.02589,0.05144
1025.96571,0.05026
1023.90554,0.04915
1021.84537,0.04817
1019.78520,0.04723
1017.72503,0.04636
1015.66485,0.04579
1013.60468,0.04554
1011.54451,0.04543
1009.48434,0.04546
1007.42417,0.04563
1005.36399,0.04592
1003.30382,0.04646
1001.24365,0.04728
999.18348,0.04822
997.12330,0.04917
995.06313,0.05000
993.00296,0.05064
990.94279,0.05128
988.88262,0.05196
986.82244,0.05257
984.76227,0.05310
982.70210,0.05355
980.64193,0.05390
978.58176,0.05417
976.52158,0.05437
974.46141,0.05452
972.40124,0.05467
970.34107,0.05463
968.28089,0.05427
966.22072,0.05378
964.16055,0.05344
962.10038,0.05335
960.04021,0.05334
957.98003,0.05325
955.91986,0.05304
953.85969,0.05270
951.79952,0.05230
949.73935,0.05187
947.67917,0.05152
945.61900,0.05129
943.55883,0.05100
941.49866,0.05061
939.43849,0.05005
937.37831,0.04939
935.31814,0.04871
933.25797,0.04791
931.19780,0.04701
929.13762,0.04609
927.07745,0.04526
925.01728,0.04456
922.95711,0.04383
920.89694,0.04301
918.83676,0.04221
916.77659,0.04147
914.71642,0.04065
912.65625,0.03978
910.59608,0.03900
908.53590,0.03827
906.47573,0.03760
904.41556,0.03710
902.35539,0.03678
900.29522,0.03656
898.23504,0.03638
896.17487,0.03641
894.11470,0.03664
892.05453,0.03687
889.99435,0.03711
887.93418,0.03740
885.87401,0.03785
883.81384,0.03853
881.75367,0.03938
879.69349,0.04034
877.63332,0.04138
875.57315,0.04242
873.51298,0.04368
871.45281,0.04538
869.39263,0.04708
867.33246,0.04842
865.27229,0.04961
863.21212,0.05091
861.15194,0.05212
859.09177,0.05290
857.03160,0.05328
854.97143,0.05359
852.91126,0.05392
850.85108,0.05391
848.79091,0.05353
846.73074,0.05301
844.67057,0.05236
842.61040,0.05142
840.55022,0.05028
838.49005,0.04915
836.42988,0.04802
834.36971,0.04703
832.30954,0.04631
830.24936,0.04572
828.18919,0.04519
826.12902,0.04453
824.06885,0.04370
822.00867,0.04298
819.94850,0.04226
817.88833,0.04145
815.82816,0.04073
813.76799,0.04009
811.70781,0.03932
809.64764,0.03843
807.58747,0.03782
805.52730,0.03766
803.46713,0.03755
801.40695,0.03705
799.34678,0.03635
797.28661,0.03590
795.22644,0.03579
793.16627,0.03555
791.10609,0.03499
789.04592,0.03446
786.98575,0.03410
784.92558,0.03382
782.86540,0.03348
780.80523,0.03305
778.74506,0.03281
776.68489,0.03291
774.62472,0.03280
772.56454,0.03234
770.50437,0.03202
768.44420,0.03184
766.38403,0.03161
764.32386,0.03137
762.26368,0.03105
760.20351,0.03069
758.14334,0.03034
756.08317,0.03007
754.02299,0.02990
751.96282,0.02986
749.90265,0.02991
747.84248,0.02968
745.78231,0.02904
743.72213,0.02854
741.66196,0.02820
739.60179,0.02764
737.54162,0.02720
735.48145,0.02752
733.42127,0.02829
731.36110,0.02854
729.30093,0.02823
727.24076,0.02798
725.18059,0.02781
723.12041,0.02776
721.06024,0.02643
719.00007,0.02865
716.93990,0.02851
714.87972,0.02772
712.81955,0.02713
710.75938,0.02665
708.69921,0.02655
706.63904,0.02674
704.57886,0.02731
702.51869,0.02812
700.45852,0.02883
698.39835,0.02901
696.33818,0.02887
694.27800,0.02900
692.21783,0.02948
690.15766,0.03011
688.09749,0.03094
686.03731,0.03202
683.97714,0.03306
681.91697,0.03354
679.85680,0.03315
677.79663,0.03184
675.73645,0.02979
673.67628,0.03190
671.61611,0.04774
669.55594,0.04722
667.49577,0.00000
665.43559,0.03643
663.37542,0.03458
661.31525,0.02645
659.25508,0.02611
657.19491,0.02650
655.13473,0.02529
653.07456,0.02423
651.01439,0.02339
648.95422,0.02147
646.89404,0.02152
644.83387,0.02036
642.77370,0.01862
640.71353,0.01718
638.65336,0.01586
636.59318,0.01465
634.53301,0.01379
632.47284,0.01257
630.41267,0.01072
628.35250,0.00947
626.29232,0.01017
624.23215,0.01058
622.17198,0.00969
620.11181,0.00818
618.05164,0.00739
615.99146,0.00763
613.93129,0.00731
611.87112,0.00587
609.81095,0.00421
607.75077,0.00304
605.69060,0.00233
603.63043,0.00136
601.57026,0.00031
599.51009,0.00000
