3996.73391,0.00089
3994.67373,0.00093
3992.61356,0.00078
3990.55339,0.00067
3988.49322,0.00080
3986.43305,0.00083
3984.37287,0.00066
3982.31270,0.00063
3980.25253,0.00060
3978.19236,0.00029
3976.13219,0.00000
3974.07201,0.00011
3972.01184,0.00044
3969.95167,0.00066
3967.89150,0.00071
3965.83133,0.00068
3963.77115,0.00082
3961.71098,0.00111
3959.65081,0.00125
3957.59064,0.00119
3955.53046,0.00111
3953.47029,0.00099
3951.41012,0.00077
3949.34995,0.00065
3947.28978,0.00057
3945.22960,0.00038
3943.16943,0.00028
3941.10926,0.00048
3939.04909,0.00073
3936.98892,0.00087
3934.92874,0.00104
3932.86857,0.00109
3930.80840,0.00087
3928.74823,0.00068
3926.68805,0.00073
3924.62788,0.00086
3922.56771,0.00095
3920.50754,0.00090
3918.44737,0.00080
3916.38719,0.00084
3914.32702,0.00090
3912.26685,0.00085
3910.20668,0.00094
3908.14651,0.00140
3906.08633,0.00177
3904.02616,0.00155
3901.96599,0.00115
3899.90582,0.00109
3897.84565,0.00132
3895.78547,0.00161
3893.72530,0.00168
3891.66513,0.00142
3889.60496,0.00117
3887.54478,0.00090
3885.48461,0.00035
3883.42444,0.00017
3881.36427,0.00069
3879.30410,0.00105
3877.24392,0.00092
3875.18375,0.00085
3873.12358,0.00115
3871.06341,0.00152
3869.00324,0.00151
3866.94306,0.00142
3864.88289,0.00153
3862.82272,0.00162
3860.76255,0.00161
3858.70237,0.00151
3856.64220,0.00145
3854.58203,0.00130
3852.52186,0.00070
3850.46169,0.00017
3848.40151,0.00024
3846.34134,0.00059
3844.28117,0.00083
3842.22100,0.00080
3840.16083,0.00048
3838.10065,0.00008
3836.04048,0.00004
3833.98031,0.00029
3831.92014,0.00038
3829.85997,0.00037
3827.79979,0.00051
3825.73962,0.00090
3823.67945,0.00155
3821.61928,0.00198
3819.55910,0.00161
3817.49893,0.00081
3815.43876,0.00016
3813.37859,0.00024
3811.31842,0.00098
3809.25824,0.00161
3807.19807,0.00166
3805.13790,0.00142
3803.07773,0.00125
3801.01756,0.00101
3798.95738,0.00071
3796.89721,0.00065
3794.83704,0.00081
3792.77687,0.00096
3790.71670,0.00100
3788.65652,0.00097
3786.59635,0.00090
3784.53618,0.00084
3782.47601,0.00089
3780.41583,0.00090
3778.35566,0.00075
3776.29549,0.00069
3774.23532,0.00090
3772.17515,0.00124
3770.11497,0.00145
3768.05480,0.00145
3765.99463,0.00138
3763.93446,0.00148
3761.87429,0.00156
3759.81411,0.00128
3757.75394,0.00092
3755.69377,0.00086
3753.63360,0.00088
3751.57342,0.00073
3749.51325,0.00075
3747.45308,0.00116
3745.39291,0.00152
3743.33274,0.00148
3741.27256,0.00139
3739.21239,0.00160
3737.15222,0.00197
3735.09205,0.00223
3733.03188,0.00217
3730.97170,0.00193
3728.91153,0.00167
3726.85136,0.00170
3724.79119,0.00218
3722.73102,0.00253
3720.67084,0.00225
3718.61067,0.00161
3716.55050,0.00129
3714.49033,0.00144
3712.43015,0.00147
3710.36998,0.00123
3708.30981,0.00117
3706.24964,0.00135
3704.18947,0.00134
3702.12929,0.00123
3700.06912,0.00148
3698.00895,0.00192
3695.94878,0.00210
3693.88861,0.00198
3691.82843,0.00199
3689.76826,0.00202
3687.70809,0.00186
3685.64792,0.00192
3683.58775,0.00217
3681.52757,0.00236
3679.46740,0.00263
3677.40723,0.00283
3675.34706,0.00262
3673.28688,0.00228
3671.22671,0.00229
3669.16654,0.00257
3667.10637,0.00302
3665.04620,0.00344
3662.98602,0.00374
3660.92585,0.00403
3658.86568,0.00445
3656.80551,0.00477
3654.74534,0.00471
3652.68516,0.00443
3650.62499,0.00408
3648.56482,0.00395
3646.50465,0.00438
3644.44447,0.00499
3642.38430,0.00529
3640.32413,0.00530
3638.26396,0.00550
3636.20379,0.00614
3634.14361,0.00707
3632.08344,0.00798
3630.02327,0.00819
3627.96310,0.00760
3625.90293,0.00739
3623.84275,0.00794
3621.78258,0.00858
3619.72241,0.00889
3617.66224,0.00906
3615.60207,0.00933
3613.54189,0.00973
3611.48172,0.01003
3609.42155,0.01019
3607.36138,0.01014
3605.30120,0.01005
3603.24103,0.01035
3601.18086,0.01088
3599.12069,0.01134
3597.06052,0.01170
3595.00034,0.01201
3592.94017,0.01245
3590.88000,0.01313
3588.81983,0.01350
3586.75966,0.01318
3584.69948,0.01290
3582.63931,0.01327
3580.57914,0.01397
3578.51897,0.01458
3576.45879,0.01492
3574.39862,0.01499
3572.33845,0.01510
3570.27828,0.01562
3568.21811,0.01634
3566.15793,0.01670
3564.09776,0.01682
3562.03759,0.01704
3559.97742,0.01736
3557.91725,0.01788
3555.85707,0.01849
3553.79690,0.01874
3551.73673,0.01864
3549.67656,0.01878
3547.61639,0.01921
3545.55621,0.01952
3543.49604,0.01971
3541.43587,0.02005
3539.37570,0.02057
3537.31552,0.02095
3535.25535,0.02101
3533.19518,0.02102
3531.13501,0.02129
3529.07484,0.02181
3527.01466,0.02217
3524.95449,0.02220
3522.89432,0.02228
3520.83415,0.02267
3518.77398,0.02327
3516.71380,0.02382
3514.65363,0.02415
3512.59346,0.02441
3510.53329,0.02467
3508.47312,0.02489
3506.41294,0.02521
3504.35277,0.02555
3502.29260,0.02555
3500.23243,0.02550
3498.17225,0.02576
3496.11208,0.02607
3494.05191,0.02620
3491.99174,0.02632
3489.93157,0.02652
3487.87139,0.02681
3485.81122,0.02722
3483.75105,0.02760
3481.69088,0.02786
3479.63071,0.02809
3477.57053,0.02831
3475.51036,0.02859
3473.45019,0.02903
3471.39002,0.02946
3469.32984,0.02969
3467.26967,0.02982
3465.20950,0.02995
3463.14933,0.03004
3461.08916,0.03014
3459.02898,0.03033
3456.96881,0.03057
3454.90864,0.03087
3452.84847,0.03129
3450.78830,0.03157
3448.72812,0.03156
3446.66795,0.03146
3444.60778,0.03158
3442.54761,0.03191
3440.48744,0.03221
3438.42726,0.03251
3436.36709,0.03287
3434.30692,0.03297
3432.24675,0.03293
3430.18657,0.03311
3428.12640,0.03331
3426.06623,0.03337
3424.00606,0.03361
3421.94589,0.03383
3419.88571,0.03359
3417.82554,0.03338
3415.76537,0.03372
3413.70520,0.03434
3411.64503,0.03478
3409.58485,0.03499
3407.52468,0.03525
3405.46451,0.03545
3403.40434,0.03541
3401.34416,0.03539
3399.28399,0.03562
3397.22382,0.03564
3395.16365,0.03553
3393.10348,0.03580
3391.04330,0.03600
3388.98313,0.03590
3386.92296,0.03616
3384.86279,0.03659
3382.80262,0.03652
3380.74244,0.03619
3378.68227,0.03614
3376.62210,0.03643
3374.56193,0.03682
3372.50176,0.03689
3370.44158,0.03667
3368.38141,0.03676
3366.32124,0.03711
3364.26107,0.03721
3362.20089,0.03723
3360.14072,0.03753
3358.08055,0.03792
3356.02038,0.03811
3353.96021,0.03793
3351.90003,0.03752
3349.83986,0.03739
3347.77969,0.03766
3345.71952,0.03788
3343.65935,0.03779
3341.59917,0.03766
3339.53900,0.03756
3337.47883,0.03738
3335.41866,0.03720
3333.35849,0.03722
3331.29831,0.03748
3329.23814,0.03775
3327.17797,0.03801
3325.11780,0.03825
3323.05762,0.03820
3320.99745,0.03791
3318.93728,0.03768
3316.87711,0.03772
3314.81694,0.03791
3312.75676,0.03787
3310.69659,0.03773
3308.63642,0.03784
3306.57625,0.03816
3304.51608,0.03846
3302.45590,0.03861
3300.39573,0.03861
3298.33556,0.03862
3296.27539,0.03881
3294.21521,0.03906
3292.15504,0.03904
3290.09487,0.03873
3288.03470,0.03850
3285.97453,0.03859
3283.91435,0.03880
3281.85418,0.03888
3279.79401,0.03884
3277.73384,0.03894
3275.67367,0.03918
3273.61349,0.03920
3271.55332,0.03893
3269.49315,0.03870
3267.43298,0.03873
3265.37281,0.03891
3263.31263,0.03922
3261.25246,0.03951
3259.19229,0.03940
3257.13212,0.03905
3255.07194,0.03882
3253.01177,0.03868
3250.95160,0.03857
3248.89143,0.03849
3246.83126,0.03838
3244.77108,0.03833
3242.71091,0.03849
3240.65074,0.03865
3238.59057,0.03852
3236.53040,0.03834
3234.47022,0.03859
3232.41005,0.03910
3230.34988,0.03927
3228.28971,0.03896
3226.22954,0.03854
3224.16936,0.03825
3222.10919,0.03808
3220.04902,0.03800
3217.98885,0.03794
3215.92867,0.03777
3213.86850,0.03767
3211.80833,0.03781
3209.74816,0.03805
3207.68799,0.03822
3205.62781,0.03817
3203.56764,0.03794
3201.50747,0.03776
3199.44730,0.03782
3197.38713,0.03799
3195.32695,0.03795
3193.26678,0.03776
3191.20661,0.03773
3189.14644,0.03777
3187.08626,0.03762
3185.02609,0.03732
3182.96592,0.03704
3180.90575,0.03683
3178.84558,0.03665
3176.78540,0.03657
3174.72523,0.03661
3172.66506,0.03663
3170.60489,0.03657
3168.54472,0.03649
3166.48454,0.03645
3164.42437,0.03642
3162.36420,0.03633
3160.30403,0.03611
3158.24386,0.03580
3156.18368,0.03562
3154.12351,0.03563
3152.06334,0.03558
3150.00317,0.03541
3147.94299,0.03534
3145.88282,0.03548
3143.82265,0.03556
3141.76248,0.03528
3139.70231,0.03477
3137.64213,0.03443
3135.58196,0.03437
3133.52179,0.03431
3131.46162,0.03418
3129.40145,0.03425
3127.34127,0.03440
3125.28110,0.03438
3123.22093,0.03432
3121.16076,0.03412
3119.10058,0.03382
3117.04041,0.03362
3114.98024,0.03349
3112.92007,0.03343
3110.85990,0.03342
3108.79972,0.03324
3106.73955,0.03289
3104.67938,0.03260
3102.61921,0.03251
3100.55904,0.03240
3098.49886,0.03215
3096.43869,0.03199
3094.37852,0.03204
3092.31835,0.03210
3090.25818,0.03214
3088.19800,0.03223
3086.13783,0.03230
3084.07766,0.03224
3082.01749,0.03205
3079.95731,0.03181
3077.89714,0.03165
3075.83697,0.03144
3073.77680,0.03104
3071.71663,0.03068
3069.65645,0.03046
3067.59628,0.03029
3065.53611,0.03012
3063.47594,0.02991
3061.41577,0.02970
3059.35559,0.02954
3057.29542,0.02954
3055.23525,0.02960
3053.17508,0.02961
3051.11491,0.02959
3049.05473,0.02950
3046.99456,0.02930
3044.93439,0.02900
3042.87422,0.02864
3040.81404,0.02840
3038.75387,0.02836
3036.69370,0.02834
3034.63353,0.02821
3032.57336,0.02811
3030.51318,0.02809
3028.45301,0.02785
3026.39284,0.02743
3024.33267,0.02723
3022.27250,0.02723
3020.21232,0.02722
3018.15215,0.02712
3016.09198,0.02692
3014.03181,0.02672
3011.97163,0.02655
3009.91146,0.02627
3007.85129,0.02591
3005.79112,0.02571
3003.73095,0.02577
3001.67077,0.02592
2999.61060,0.02604
2997.55043,0.02616
2995.49026,0.02616
2993.43009,0.02601
2991.36991,0.02578
2989.30974,0.02564
2987.24957,0.02567
2985.18940,0.02569
2983.12923,0.02551
2981.06905,0.02519
2979.00888,0.02493
2976.94871,0.02494
2974.88854,0.02517
2972.82836,0.02526
2970.76819,0.02514
2968.70802,0.02498
2966.64785,0.02476
2964.58768,0.02467
2962.52750,0.02483
2960.46733,0.02495
2958.40716,0.02495
2956.34699,0.02491
2954.28682,0.02483
2952.22664,0.02476
2950.16647,0.02477
2948.10630,0.02489
2946.04613,0.02496
2943.98596,0.02482
2941.92578,0.02460
2939.86561,0.02458
2937.80544,0.02476
2935.74527,0.02492
2933.68509,0.02489
2931.62492,0.02486
2929.56475,0.02489
2927.50458,0.02487
2925.44441,0.02476
2923.38423,0.02460
2921.32406,0.02447
2919.26389,0.02444
2917.20372,0.02425
2915.14355,0.02381
2913.08337,0.02337
2911.02320,0.02324
2908.96303,0.02324
2906.90286,0.02300
2904.84268,0.02268
2902.78251,0.02251
2900.72234,0.02230
2898.66217,0.02191
2896.60200,0.02160
2894.54182,0.02151
2892.48165,0.02146
2890.42148,0.02146
2888.36131,0.02141
2886.30114,0.02126
2884.24096,0.02112
2882.18079,0.02109
2880.12062,0.02121
2878.06045,0.02130
2876.00028,0.02116
2873.94010,0.02084
2871.87993,0.02057
2869.81976,0.02058
2867.75959,0.02068
2865.69941,0.02048
2863.63924,0.02015
2861.57907,0.01996
2859.51890,0.01977
2857.45873,0.01943
2855.39855,0.01910
2853.33838,0.01915
2851.27821,0.01929
2849.21804,0.01904
2847.15787,0.01860
2845.09769,0.01819
2843.03752,0.01791
2840.97735,0.01772
2838.91718,0.01752
2836.85700,0.01738
2834.79683,0.01724
2832.73666,0.01704
2830.67649,0.01690
2828.61632,0.01685
2826.55614,0.01687
2824.49597,0.01681
2822.43580,0.01665
2820.37563,0.01648
2818.31546,0.01634
2816.25528,0.01623
2814.19511,0.01604
2812.13494,0.01569
2810.07477,0.01547
2808.01460,0.01555
2805.95442,0.01558
2803.89425,0.01535
2801.83408,0.01508
2799.77391,0.01499
2797.71373,0.01504
2795.65356,0.01497
2793.59339,0.01490
2791.53322,0.01499
2789.47305,0.01489
2787.41287,0.01456
2785.35270,0.01433
2783.29253,0.01422
2781.23236,0.01417
2779.17219,0.01418
2777.11201,0.01422
2775.05184,0.01423
2772.99167,0.01416
2770.93150,0.01403
2768.87133,0.01390
2766.81115,0.01380
2764.75098,0.01359
2762.69081,0.01334
2760.63064,0.01328
2758.57046,0.01323
2756.51029,0.01299
2754.45012,0.01276
2752.38995,0.01275
2750.32978,0.01283
2748.26960,0.01284
2746.20943,0.01284
2744.14926,0.01273
2742.08909,0.01248
2740.02892,0.01234
2737.96874,0.01239
2735.90857,0.01241
2733.84840,0.01232
2731.78823,0.01221
2729.72805,0.01218
2727.66788,0.01225
2725.60771,0.01224
2723.54754,0.01197
2721.48737,0.01165
2719.42719,0.01161
2717.36702,0.01177
2715.30685,0.01184
2713.24668,0.01171
2711.18651,0.01144
2709.12633,0.01130
2707.06616,0.01137
2705.00599,0.01138
2702.94582,0.01126
2700.88565,0.01118
2698.82547,0.01115
2696.76530,0.01099
2694.70513,0.01078
2692.64496,0.01074
2690.58478,0.01074
2688.52461,0.01055
2686.46444,0.01035
2684.40427,0.01036
2682.34410,0.01041
2680.28392,0.01046
2678.22375,0.01055
2676.16358,0.01058
2674.10341,0.01040
2672.04324,0.01010
2669.98306,0.00989
2667.92289,0.00974
2665.86272,0.00959
2663.80255,0.00947
2661.74238,0.00944
2659.68220,0.00945
2657.62203,0.00941
2655.56186,0.00931
2653.50169,0.00923
2651.44151,0.00912
2649.38134,0.00898
2647.32117,0.00892
2645.26100,0.00885
2643.20083,0.00876
2641.14065,0.00880
2639.08048,0.00894
2637.02031,0.00895
2634.96014,0.00894
2632.89997,0.00901
2630.83979,0.00896
2628.77962,0.00871
2626.71945,0.00838
2624.65928,0.00813
2622.59910,0.00811
2620.53893,0.00833
2618.47876,0.00844
2616.41859,0.00826
2614.35842,0.00794
2612.29824,0.00764
2610.23807,0.00746
2608.17790,0.00740
2606.11773,0.00747
2604.05756,0.00754
2601.99738,0.00754
2599.93721,0.00753
2597.87704,0.00758
2595.81687,0.00761
2593.75670,0.00745
2591.69652,0.00711
2589.63635,0.00678
2587.57618,0.00665
2585.51601,0.00669
2583.45583,0.00690
2581.39566,0.00703
2579.33549,0.00691
2577.27532,0.00687
2575.21515,0.00699
2573.15497,0.00699
2571.09480,0.00670
2569.03463,0.00645
2566.97446,0.00660
2564.91429,0.00701
2562.85411,0.00717
2560.79394,0.00675
2558.73377,0.00646
2556.67360,0.00694
2554.61342,0.00739
2552.55325,0.00714
2550.49308,0.00675
2548.43291,0.00665
2546.37274,0.00664
2544.31256,0.00657
2542.25239,0.00655
2540.19222,0.00663
2538.13205,0.00673
2536.07188,0.00673
2534.01170,0.00666
2531.95153,0.00651
2529.89136,0.00638
2527.83119,0.00641
2525.77102,0.00647
2523.71084,0.00656
2521.65067,0.00656
2519.59050,0.00641
2517.53033,0.00646
2515.47015,0.00675
2513.40998,0.00673
2511.34981,0.00644
2509.28964,0.00626
2507.22947,0.00631
2505.16929,0.00662
2503.10912,0.00675
2501.04895,0.00659
2498.98878,0.00657
2496.92861,0.00668
2494.86843,0.00684
2492.80826,0.00706
2490.74809,0.00719
2488.68792,0.00711
2486.62775,0.00703
2484.56757,0.00710
2482.50740,0.00712
2480.44723,0.00693
2478.38706,0.00669
2476.32688,0.00665
2474.26671,0.00677
2472.20654,0.00685
2470.14637,0.00701
2468.08620,0.00737
2466.02602,0.00754
2463.96585,0.00736
2461.90568,0.00740
2459.84551,0.00794
2457.78534,0.00839
2455.72516,0.00820
2453.66499,0.00775
2451.60482,0.00750
2449.54465,0.00727
2447.48447,0.00719
2445.42430,0.00721
2443.36413,0.00704
2441.30396,0.00704
2439.24379,0.00735
2437.18361,0.00729
2435.12344,0.00687
2433.06327,0.00666
2431.00310,0.00665
2428.94293,0.00682
2426.88275,0.00706
2424.82258,0.00703
2422.76241,0.00687
2420.70224,0.00674
2418.64207,0.00656
2416.58189,0.00653
2414.52172,0.00684
2412.46155,0.00718
2410.40138,0.00720
2408.34120,0.00702
2406.28103,0.00683
2404.22086,0.00670
2402.16069,0.00680
2400.10052,0.00698
2398.04034,0.00657
2395.98017,0.00633
2393.92000,0.00637
2391.85983,0.00661
2389.79966,0.00697
2387.73948,0.00737
2385.67931,0.00774
2383.61914,0.00780
2381.55897,0.00755
2379.49880,0.00742
2377.43862,0.00755
2375.37845,0.00735
2373.31828,0.00756
2371.25811,0.00881
2369.19793,0.00987
2367.13776,0.01026
2365.07759,0.01024
2363.01742,0.00879
2360.95725,0.00797
2358.89707,0.00687
2356.83690,0.00675
2354.77673,0.00733
2352.71656,0.00824
2350.65639,0.01135
2348.59621,0.01355
2346.53604,0.01063
2344.47587,0.00948
2342.41570,0.00892
2340.35552,0.00798
2338.29535,0.00814
2336.23518,0.00885
2334.17501,0.00938
2332.11484,0.00925
2330.05466,0.00921
2327.99449,0.00917
2325.93432,0.00979
2323.87415,0.00952
2321.81398,0.00895
2319.75380,0.00815
2317.69363,0.00826
2315.63346,0.00823
2313.57329,0.00807
2311.51312,0.00795
2309.45294,0.00773
2307.39277,0.00774
2305.33260,0.00799
2303.27243,0.00823
2301.21225,0.00815
2299.15208,0.00787
2297.09191,0.00740
2295.03174,0.00704
2292.97157,0.00709
2290.91139,0.00734
2288.85122,0.00750
2286.79105,0.00748
2284.73088,0.00732
2282.67071,0.00713
2280.61053,0.00681
2278.55036,0.00638
2276.49019,0.00640
2274.43002,0.00691
2272.36984,0.00700
2270.30967,0.00679
2268.24950,0.00696
2266.18933,0.00695
2264.12916,0.00633
2262.06898,0.00602
2260.00881,0.00619
2257.94864,0.00620
2255.88847,0.00628
2253.82830,0.00682
2251.76812,0.00689
2249.70795,0.00596
2247.64778,0.00512
2245.58761,0.00489
2243.52744,0.00563
2241.46726,0.00659
2239.40709,0.00656
2237.34692,0.00599
2235.28675,0.00576
2233.22657,0.00617
2231.16640,0.00635
2229.10623,0.00561
2227.04606,0.00493
2224.98589,0.00506
2222.92571,0.00565
2220.86554,0.00598
2218.80537,0.00602
2216.74520,0.00589
2214.68503,0.00569
2212.62485,0.00590
2210.56468,0.00617
2208.50451,0.00577
2206.44434,0.00500
2204.38417,0.00497
2202.32399,0.00584
2200.26382,0.00590
2198.20365,0.00495
2196.14348,0.00463
2194.08330,0.00489
2192.02313,0.00486
2189.96296,0.00500
2187.90279,0.00593
2185.84262,0.00702
2183.78244,0.00705
2181.72227,0.00609
2179.66210,0.00473
2177.60193,0.00372
2175.54176,0.00458
2173.48158,0.00635
2171.42141,0.00654
2169.36124,0.00575
2167.30107,0.00508
2165.24089,0.00457
2163.18072,0.00427
2161.12055,0.00334
2159.06038,0.00223
2157.00021,0.00260
2154.94003,0.00372
2152.87986,0.00412
2150.81969,0.00374
2148.75952,0.00323
2146.69935,0.00291
2144.63917,0.00300
2142.57900,0.00328
2140.51883,0.00304
2138.45866,0.00250
2136.39849,0.00246
2134.33831,0.00297
2132.27814,0.00308
2130.21797,0.00247
2128.15780,0.00238
2126.09762,0.00319
2124.03745,0.00406
2121.97728,0.00441
2119.91711,0.00417
2117.85694,0.00387
2115.79676,0.00409
2113.73659,0.00455
2111.67642,0.00448
2109.61625,0.00378
2107.55608,0.00326
2105.49590,0.00356
2103.43573,0.00430
2101.37556,0.00453
2099.31539,0.00448
2097.25521,0.00471
2095.19504,0.00471
2093.13487,0.00423
2091.07470,0.00384
2089.01453,0.00409
2086.95435,0.00464
2084.89418,0.00472
2082.83401,0.00441
2080.77384,0.00412
2078.71367,0.00385
2076.65349,0.00364
2074.59332,0.00376
2072.53315,0.00412
2070.47298,0.00413
2068.41281,0.00356
2066.35263,0.00306
2064.29246,0.00302
2062.23229,0.00322
2060.17212,0.00367
2058.11194,0.00433
2056.05177,0.00461
2053.99160,0.00457
2051.93143,0.00427
2049.87126,0.00319
2047.81108,0.00228
2045.75091,0.00239
2043.69074,0.00272
2041.63057,0.00325
2039.57040,0.00353
2037.51022,0.00241
2035.45005,0.00138
2033.38988,0.00177
2031.32971,0.00181
2029.26954,0.00063
2027.20936,0.00000
2025.14919,0.00055
2023.08902,0.00106
2021.02885,0.00090
2018.96867,0.00083
2016.90850,0.00186
2014.84833,0.00336
2012.78816,0.00324
2010.72799,0.00138
2008.66781,0.00029
2006.60764,0.00086
2004.54747,0.00148
2002.48730,0.00150
2000.42713,0.00158
1998.36695,0.00179
1996.30678,0.00175
1994.24661,0.00195
1992.18644,0.00319
1990.12626,0.00443
1988.06609,0.00398
1986.00592,0.00259
1983.94575,0.00164
1981.88558,0.00178
1979.82540,0.00334
1977.76523,0.00433
1975.70506,0.00299
1973.64489,0.00144
1971.58472,0.00201
1969.52454,0.00352
1967.46437,0.00380
1965.40420,0.00278
1963.34403,0.00162
1961.28386,0.00120
1959.22368,0.00155
1957.16351,0.00203
1955.10334,0.00263
1953.04317,0.00331
1950.98299,0.00321
1948.92282,0.00193
1946.86265,0.00059
1944.80248,0.00029
1942.74231,0.00055
1940.68213,0.00059
1938.62196,0.00066
1936.56179,0.00110
1934.50162,0.00156
1932.44145,0.00177
1930.38127,0.00195
1928.32110,0.00214
1926.26093,0.00217
1924.20076,0.00219
1922.14059,0.00243
1920.08041,0.00264
1918.02024,0.00246
1915.96007,0.00210
1913.89990,0.00200
1911.83972,0.00198
1909.77955,0.00168
1907.71938,0.00158
1905.65921,0.00186
1903.59904,0.00207
1901.53886,0.00196
1899.47869,0.00187
1897.41852,0.00216
1895.35835,0.00238
1893.29818,0.00194
1891.23800,0.00132
1889.17783,0.00099
1887.11766,0.00084
1885.05749,0.00077
1882.99731,0.00068
1880.93714,0.00072
1878.87697,0.00117
1876.81680,0.00180
1874.75663,0.00207
1872.69645,0.00187
1870.63628,0.00156
1868.57611,0.00143
1866.51594,0.00140
1864.45577,0.00130
1862.39559,0.00131
1860.33542,0.00150
1858.27525,0.00152
1856.21508,0.00123
1854.15491,0.00101
1852.09473,0.00114
1850.03456,0.00152
1847.97439,0.00176
1845.91422,0.00156
1843.85404,0.00118
1841.79387,0.00119
1839.73370,0.00155
1837.67353,0.00180
1835.61336,0.00173
1833.55318,0.00139
1831.49301,0.00095
1829.43284,0.00072
1827.37267,0.00082
1825.31250,0.00099
1823.25232,0.00099
1821.19215,0.00092
1819.13198,0.00103
1817.07181,0.00136
1815.01163,0.00156
1812.95146,0.00140
1810.89129,0.00111
1808.83112,0.00112
1806.77095,0.00145
1804.71077,0.00171
1802.65060,0.00176
1800.59043,0.00165
1798.53026,0.00153
1796.47009,0.00161
1794.40991,0.00172
1792.34974,0.00152
1790.28957,0.00132
1788.22940,0.00148
1786.16923,0.00174
1784.10905,0.00189
1782.04888,0.00199
1779.98871,0.00196
1777.92854,0.00180
1775.86836,0.00163
1773.80819,0.00142
1771.74802,0.00120
1769.68785,0.00128
1767.62768,0.00169
1765.56750,0.00226
1763.50733,0.00268
1761.44716,0.00281
1759.38699,0.00294
1757.32682,0.00318
1755.26664,0.00346
1753.20647,0.00371
1751.14630,0.00381
1749.08613,0.00380
1747.02596,0.00385
1744.96578,0.00396
1742.90561,0.00413
1740.84544,0.00439
1738.78527,0.00483
1736.72509,0.00528
1734.66492,0.00527
1732.60475,0.00483
1730.54458,0.00461
1728.48441,0.00464
1726.42423,0.00475
1724.36406,0.00495
1722.30389,0.00527
1720.24372,0.00552
1718.18355,0.00534
1716.12337,0.00513
1714.06320,0.00544
1712.00303,0.00594
1709.94286,0.00637
1707.88268,0.00676
1705.82251,0.00713
1703.76234,0.00754
1701.70217,0.00791
1699.64200,0.00803
1697.58182,0.00815
1695.52165,0.00871
1693.46148,0.00972
1691.40131,0.01076
1689.34114,0.01165
1687.28096,0.01249
1685.22079,0.01329
1683.16062,0.01399
1681.10045,0.01475
1679.04028,0.01569
1676.98010,0.01670
1674.91993,0.01765
1672.85976,0.01841
1670.79959,0.01893
1668.73941,0.01949
1666.67924,0.02041
1664.61907,0.02140
1662.55890,0.02214
1660.49873,0.02289
1658.43855,0.02388
1656.37838,0.02480
1654.31821,0.02492
1652.25804,0.02417
1650.19787,0.02398
1648.13769,0.02405
1646.07752,0.02365
1644.01735,0.02349
1641.95718,0.02374
1639.89701,0.02380
1637.83683,0.02320
1635.77666,0.02200
1633.71649,0.02140
1631.65632,0.02159
1629.59614,0.02159
1627.53597,0.02113
1625.47580,0.02054
1623.41563,0.01984
1621.35546,0.01929
1619.29528,0.01910
1617.23511,0.01863
1615.17494,0.01787
1613.11477,0.01767
1611.05460,0.01784
1608.99442,0.01776
1606.93425,0.01740
1604.87408,0.01707
1602.81391,0.01688
1600.75373,0.01669
1598.69356,0.01643
1596.63339,0.01614
1594.57322,0.01583
1592.51305,0.01556
1590.45287,0.01531
1588.39270,0.01506
1586.33253,0.01485
1584.27236,0.01463
1582.21219,0.01434
1580.15201,0.01411
1578.09184,0.01391
1576.03167,0.01348
1573.97150,0.01316
1571.91133,0.01311
1569.85115,0.01281
1567.79098,0.01232
1565.73081,0.01220
1563.67064,0.01254
1561.61046,0.01310
1559.55029,0.01318
1557.49012,0.01243
1555.42995,0.01192
1553.36978,0.01192
1551.30960,0.01199
1549.24943,0.01189
1547.18926,0.01174
1545.12909,0.01164
1543.06892,0.01135
1541.00874,0.01053
1538.94857,0.00958
1536.88840,0.00953
1534.82823,0.00984
1532.76805,0.00962
1530.70788,0.00924
1528.64771,0.00903
1526.58754,0.00862
1524.52737,0.00803
1522.46719,0.00761
1520.40702,0.00752
1518.34685,0.00759
1516.28668,0.00745
1514.22651,0.00716
1512.16633,0.00703
1510.10616,0.00691
1508.04599,0.00631
1505.98582,0.00547
1503.92565,0.00531
1501.86547,0.00556
1499.80530,0.00574
1497.74513,0.00572
1495.68496,0.00552
1493.62478,0.00537
1491.56461,0.00519
1489.50444,0.00474
1487.44427,0.00428
1485.38410,0.00411
1483.32392,0.00416
1481.26375,0.00433
1479.20358,0.00457
1477.14341,0.00474
1475.08324,0.00469
1473.02306,0.00455
1470.96289,0.00471
1468.90272,0.00521
1466.84255,0.00573
1464.78238,0.00607
1462.72220,0.00632
1460.66203,0.00654
1458.60186,0.00643
1456.54169,0.00590
1454.48151,0.00569
1452.42134,0.00595
1450.36117,0.00622
1448.30100,0.00631
1446.24083,0.00637
1444.18065,0.00646
1442.12048,0.00650
1440.06031,0.00648
1438.00014,0.00639
1435.93997,0.00625
1433.87979,0.00625
1431.81962,0.00635
1429.75945,0.00638
1427.69928,0.00649
1425.63910,0.00678
1423.57893,0.00708
1421.51876,0.00726
1419.45859,0.00727
1417.39842,0.00730
1415.33824,0.00761
1413.27807,0.00804
1411.21790,0.00827
1409.15773,0.00828
1407.09756,0.00812
1405.03738,0.00786
1402.97721,0.00764
1400.91704,0.00753
1398.85687,0.00738
1396.79670,0.00704
1394.73652,0.00664
1392.67635,0.00647
1390.61618,0.00653
1388.55601,0.00652
1386.49583,0.00626
1384.43566,0.00601
1382.37549,0.00596
1380.31532,0.00596
1378.25515,0.00584
1376.19497,0.00558
1374.13480,0.00536
1372.07463,0.00531
1370.01446,0.00531
1367.95429,0.00524
1365.89411,0.00523
1363.83394,0.00524
1361.77377,0.00515
1359.71360,0.00504
1357.65343,0.00490
1355.59325,0.00467
1353.53308,0.00447
1351.47291,0.00443
1349.41274,0.00449
1347.35256,0.00445
1345.29239,0.00430
1343.23222,0.00416
1341.17205,0.00405
1339.11188,0.00392
1337.05170,0.00380
1334.99153,0.00379
1332.93136,0.00392
1330.87119,0.00408
1328.81102,0.00413
1326.75084,0.00405
1324.69067,0.00391
1322.63050,0.00388
1320.57033,0.00395
1318.51015,0.00399
1316.44998,0.00395
1314.38981,0.00389
1312.32964,0.00382
1310.26947,0.00377
1308.20929,0.00382
1306.14912,0.00396
1304.08895,0.00411
1302.02878,0.00428
1299.96861,0.00445
1297.90843,0.00457
1295.84826,0.00468
1293.78809,0.00477
1291.72792,0.00472
1289.66775,0.00462
1287.60757,0.00461
1285.54740,0.00464
1283.48723,0.00452
1281.42706,0.00429
1279.36688,0.00427
1277.30671,0.00448
1275.24654,0.00465
1273.18637,0.00474
1271.12620,0.00473
1269.06602,0.00461
1267.00585,0.00448
1264.94568,0.00439
1262.88551,0.00442
1260.82534,0.00468
1258.76516,0.00510
1256.70499,0.00538
1254.64482,0.00531
1252.58465,0.00510
1250.52447,0.00504
1248.46430,0.00509
1246.40413,0.00507
1244.34396,0.00495
1242.28379,0.00480
1240.22361,0.00460
1238.16344,0.00445
1236.10327,0.00451
1234.04310,0.00451
1231.98293,0.00425
1229.92275,0.00396
1227.86258,0.00378
1225.80241,0.00362
1223.74224,0.00338
1221.68207,0.00305
1219.62189,0.00270
1217.56172,0.00234
1215.50155,0.00199
1213.44138,0.00175
1211.38120,0.00156
1209.32103,0.00134
1207.26086,0.00106
1205.20069,0.00074
1203.14052,0.00054
1201.08034,0.00050
1199.02017,0.00036
1196.96000,0.00009
1194.89983,0.00000
1192.83966,0.00013
1190.77948,0.00017
1188.71931,0.00005
1186.65914,-0.00003
1184.59897,-0.00004
1182.53880,0.00017
1180.47862,0.00053
1178.41845,0.00073
1176.35828,0.00090
1174.29811,0.00118
1172.23793,0.00145
1170.17776,0.00163
1168.11759,0.00184
1166.05742,0.00211
1163.99725,0.00241
1161.93707,0.00267
1159.87690,0.00304
1157.81673,0.00361
1155.75656,0.00422
1153.69639,0.00473
1151.63621,0.00524
1149.57604,0.00590
1147.51587,0.00663
1145.45570,0.00738
1143.39552,0.00810
1141.33535,0.00870
1139.27518,0.00928
1137.21501,0.01007
1135.15484,0.01097
1133.09466,0.01186
1131.03449,0.01274
1128.97432,0.01365
1126.91415,0.01473
1124.85398,0.01600
1122.79380,0.01724
1120.73363,0.01843
1118.67346,0.01972
1116.61329,0.02116
1114.55312,0.02252
1112.49294,0.02368
1110.43277,0.02489
1108.37260,0.02623
1106.31243,0.02758
1104.25225,0.02900
1102.19208,0.03029
1100.13191,0.03124
1098.07174,0.03216
1096.01157,0.03327
1093.95139,0.03432
1091.89122,0.03522
1089.83105,0.03611
1087.77088,0.03705
1085.71071,0.03790
1083.65053,0.03862
1081.59036,0.03939
1079.53019,0.04015
1077.47002,0.04070
1075.40985,0.04116
1073.34967,0.04170
1071.28950,0.04212
1069.22933,0.04223
1067.16916,0.04229
1065.10898,0.04238
1063.04881,0.04223
1060.98864,0.04190
1058.92847,0.04159
1056.86830,0.04125
1054.80812,0.04067
1052.74795,0.03988
1050.68778,0.03898
1048.62761,0.03796
1046.56744,0.03689
1044.50726,0.03579
1042.44709,0.03451
1040.38692,0.03295
1038.32675,0.03138
1036.26657,0.03000
1034.20640,0.02866
1032.14623,0.02707
1030.08606,0.02544
1028.02589,0.02403
1025.96571,0.02265
1023.90554,0.02150
1021.84537,0.02077
1019.78520,0.02007
1017.72503,0.01920
1015.66485,0.01842
1013.60468,0.01797
1011.54451,0.01771
1009.48434,0.01749
1007.42417,0.01734
1005.36399,0.01742
1003.30382,0.01802
1001.24365,0.01898
999.18348,0.01990
997.12330,0.02069
995.06313,0.02156
993.00296,0.02255
990.94279,0.02351
988.88262,0.02440
986.82244,0.02515
984.76227,0.02548
982.70210,0.02546
980.64193,0.02532
978.58176,0.02511
976.52158,0.02497
974.46141,0.02483
972.40124,0.02417
970.34107,0.02282
968.28089,0.02135
966.22072,0.02024
964.16055,0.01930
962.10038,0.01810
960.04021,0.01670
957.98003,0.01539
955.91986,0.01416
953.85969,0.01287
951.79952,0.01182
949.73935,0.01092
947.67917,0.00970
945.61900,0.00852
943.55883,0.00772
941.49866,0.00693
939.43849,0.00595
937.37831,0.00507
935.31814,0.00453
933.25797,0.00413
931.19780,0.00358
929.13762,0.00309
927.07745,0.00280
925.01728,0.00240
922.95711,0.00194
920.89694,0.00172
918.83676,0.00155
916.77659,0.00106
914.71642,0.00053
912.65625,0.00029
910.59608,0.00030
908.53590,0.00038
906.47573,0.00037
904.41556,0.00018
902.35539,0.00000
900.29522,0.00011
898.23504,0.00042
896.17487,0.00061
894.11470,0.00071
892.05453,0.00107
889.99435,0.00171
887.93418,0.00226
885.87401,0.00246
883.81384,0.00257
881.75367,0.00309
879.69349,0.00389
877.63332,0.00462
875.57315,0.00517
873.51298,0.00552
871.45281,0.00598
869.39263,0.00661
867.33246,0.00696
865.27229,0.00707
863.21212,0.00704
861.15194,0.00678
859.09177,0.00680
857.03160,0.00741
854.97143,0.00787
852.91126,0.00789
850.85108,0.00789
848.79091,0.00794
846.73074,0.00774
844.67057,0.00733
842.61040,0.00724
840.55022,0.00709
838.49005,0.00650
836.42988,0.00600
834.36971,0.00554
832.30954,0.00498
830.24936,0.00462
828.18919,0.00433
826.12902,0.00413
824.06885,0.00401
822.00867,0.00368
819.94850,0.00313
817.88833,0.00231
815.82816,0.00146
813.76799,0.00125
811.70781,0.00155
809.64764,0.00171
807.58747,0.00153
805.52730,0.00104
803.46713,0.00040
801.40695,0.00020
799.34678,0.00052
797.28661,0.00077
795.22644,0.00057
793.16627,0.00046
791.10609,0.00097
789.04592,0.00137
786.98575,0.00093
784.92558,0.00019
782.86540,-0.00014
780.80523,0.00006
778.74506,0.00048
776.68489,0.00078
774.62472,0.00128
772.56454,0.00154
770.50437,0.00093
768.44420,0.00049
766.38403,0.00061
764.32386,0.00057
762.26368,0.00037
760.20351,0.00033
758.14334,0.00051
756.08317,0.00071
754.02299,0.00055
751.96282,0.00033
749.90265,0.00059
747.84248,0.00062
745.78231,0.00009
743.72213,0.00000
741.66196,0.00040
739.60179,0.00073
737.54162,0.00099
735.48145,0.00133
733.42127,0.00138
731.36110,0.00087
729.30093,0.00020
727.24076,-0.00015
725.18059,0.00040
723.12041,0.00165
721.06024,0.00160
719.00007,0.00172
716.93990,0.00171
714.87972,0.00157
712.81955,0.00176
710.75938,0.00192
708.69921,0.00203
706.63904,0.00223
704.57886,0.00228
702.51869,0.00226
700.45852,0.00238
698.39835,0.00234
696.33818,0.00218
694.27800,0.00244
692.21783,0.00295
690.15766,0.00313
688.09749,0.00309
686.03731,0.00317
683.97714,0.00337
681.91697,0.00359
679.85680,0.00361
677.79663,0.00351
675.73645,0.00380
673.67628,0.00551
671.61611,0.00809
669.55594,0.00475
667.49577,0.00000
665.43559,0.00754
663.37542,0.00734
661.31525,0.00580
659.25508,0.00531
657.19491,0.00494
655.13473,0.00482
653.07456,0.00512
651.01439,0.00533
648.95422,0.00499
646.89404,0.00468
644.83387,0.00427
642.77370,0.00330
640.71353,0.00138
638.65336,0.00000
636.59318,0.00058
634.53301,0.00200
632.47284,0.00265
630.41267,0.00266
628.35250,0.00252
626.29232,0.00198
624.23215,0.00094
622.17198,0.00067
620.11181,0.00160
618.05164,0.00288
615.99146,0.00288
613.93129,0.00198
611.87112,0.00236
609.81095,0.00227
607.75077,-0.00014
605.69060,-0.00119
603.63043,0.00064
601.57026,0.00140
599.51009,0.00000
