3996.73391,0.00000
3994.67373,0.00008
3992.61356,0.00073
3990.55339,0.00114
3988.49322,0.00099
3986.43305,0.00084
3984.37287,0.00093
3982.31270,0.00116
3980.25253,0.00158
3978.19236,0.00201
3976.13219,0.00200
3974.07201,0.00167
3972.01184,0.00143
3969.95167,0.00141
3967.89150,0.00144
3965.83133,0.00149
3963.77115,0.00172
3961.71098,0.00195
3959.65081,0.00175
3957.59064,0.00122
3955.53046,0.00094
3953.47029,0.00121
3951.41012,0.00182
3949.34995,0.00217
3947.28978,0.00191
3945.22960,0.00140
3943.16943,0.00099
3941.10926,0.00087
3939.04909,0.00119
3936.98892,0.00172
3934.92874,0.00207
3932.86857,0.00187
3930.80840,0.00125
3928.74823,0.00084
3926.68805,0.00081
3924.62788,0.00106
3922.56771,0.00166
3920.50754,0.00222
3918.44737,0.00212
3916.38719,0.00150
3914.32702,0.00119
3912.26685,0.00151
3910.20668,0.00202
3908.14651,0.00240
3906.08633,0.00256
3904.02616,0.00233
3901.96599,0.00166
3899.90582,0.00062
3897.84565,0.00000
3895.78547,0.00050
3893.72530,0.00133
3891.66513,0.00155
3889.60496,0.00162
3887.54478,0.00181
3885.48461,0.00147
3883.42444,0.00105
3881.36427,0.00115
3879.30410,0.00136
3877.24392,0.00166
3875.18375,0.00200
3873.12358,0.00197
3871.06341,0.00150
3869.00324,0.00108
3866.94306,0.00130
3864.88289,0.00149
3862.82272,0.00128
3860.76255,0.00138
3858.70237,0.00207
3856.64220,0.00311
3854.58203,0.00329
3852.52186,0.00155
3850.46169,0.00019
3848.40151,0.00063
3846.34134,0.00164
3844.28117,0.00233
3842.22100,0.00272
3840.16083,0.00293
3838.10065,0.00267
3836.04048,0.00209
3833.98031,0.00172
3831.92014,0.00166
3829.85997,0.00180
3827.79979,0.00198
3825.73962,0.00215
3823.67945,0.00248
3821.61928,0.00249
3819.55910,0.00212
3817.49893,0.00189
3815.43876,0.00144
3813.37859,0.00125
3811.31842,0.00175
3809.25824,0.00218
3807.19807,0.00194
3805.13790,0.00152
3803.07773,0.00136
3801.01756,0.00100
3798.95738,0.00066
3796.89721,0.00062
3794.83704,0.00066
3792.77687,0.00084
3790.71670,0.00113
3788.65652,0.00146
3786.59635,0.00173
3784.53618,0.00182
3782.47601,0.00193
3780.41583,0.00189
3778.35566,0.00148
3776.29549,0.00139
3774.23532,0.00183
3772.17515,0.00213
3770.11497,0.00189
3768.05480,0.00160
3765.99463,0.00172
3763.93446,0.00210
3761.87429,0.00245
3759.81411,0.00248
3757.75394,0.00240
3755.69377,0.00281
3753.63360,0.00354
3751.57342,0.00353
3749.51325,0.00256
3747.45308,0.00234
3745.39291,0.00269
3743.33274,0.00223
3741.27256,0.00192
3739.21239,0.00255
3737.15222,0.00285
3735.09205,0.00170
3733.03188,0.00031
3730.97170,0.00032
3728.91153,0.00136
3726.85136,0.00253
3724.79119,0.00322
3722.73102,0.00300
3720.67084,0.00222
3718.61067,0.00169
3716.55050,0.00195
3714.49033,0.00275
3712.43015,0.00310
3710.36998,0.00241
3708.30981,0.00189
3706.24964,0.00227
3704.18947,0.00260
3702.12929,0.00207
3700.06912,0.00148
3698.00895,0.00177
3695.94878,0.00263
3693.88861,0.00344
3691.82843,0.00360
3689.76826,0.00277
3687.70809,0.00187
3685.64792,0.00185
3683.58775,0.00246
3681.52757,0.00318
3679.46740,0.00359
3677.40723,0.00333
3675.34706,0.00264
3673.28688,0.00271
3671.22671,0.00333
3669.16654,0.00316
3667.10637,0.00276
3665.04620,0.00299
3662.98602,0.00341
3660.92585,0.00366
3658.86568,0.00390
3656.80551,0.00420
3654.74534,0.00459
3652.68516,0.00529
3650.62499,0.00565
3648.56482,0.00481
3646.50465,0.00362
3644.44447,0.00330
3642.38430,0.00373
3640.32413,0.00433
3638.26396,0.00489
3636.20379,0.00554
3634.14361,0.00633
3632.08344,0.00703
3630.02327,0.00690
3627.96310,0.00587
3625.90293,0.00554
3623.84275,0.00635
3621.78258,0.00752
3619.72241,0.00833
3617.66224,0.00838
3615.60207,0.00807
3613.54189,0.00804
3611.48172,0.00835
3609.42155,0.00861
3607.36138,0.00858
3605.30120,0.00872
3603.24103,0.00910
3601.18086,0.00921
3599.12069,0.00910
3597.06052,0.00940
3595.00034,0.00997
3592.94017,0.01017
3590.88000,0.01014
3588.81983,0.00999
3586.75966,0.00961
3584.69948,0.00961
3582.63931,0.01023
3580.57914,0.01089
3578.51897,0.01119
3576.45879,0.01115
3574.39862,0.01113
3572.33845,0.01143
3570.27828,0.01180
3568.21811,0.01165
3566.15793,0.01107
3564.09776,0.01115
3562.03759,0.01197
3559.97742,0.01264
3557.91725,0.01295
3555.85707,0.01313
3553.79690,0.01307
3551.73673,0.01306
3549.67656,0.01351
3547.61639,0.01392
3545.55621,0.01382
3543.49604,0.01364
3541.43587,0.01381
3539.37570,0.01414
3537.31552,0.01442
3535.25535,0.01462
3533.19518,0.01482
3531.13501,0.01528
3529.07484,0.01599
3527.01466,0.01644
3524.95449,0.01613
3522.89432,0.01554
3520.83415,0.01544
3518.77398,0.01578
3516.71380,0.01617
3514.65363,0.01645
3512.59346,0.01653
3510.53329,0.01654
3508.47312,0.01667
3506.41294,0.01682
3504.35277,0.01685
3502.29260,0.01686
3500.23243,0.01700
3498.17225,0.01729
3496.11208,0.01770
3494.05191,0.01805
3491.99174,0.01820
3489.93157,0.01835
3487.87139,0.01872
3485.81122,0.01916
3483.75105,0.01932
3481.69088,0.01927
3479.63071,0.01934
3477.57053,0.01963
3475.51036,0.01999
3473.45019,0.02031
3471.39002,0.02056
3469.32984,0.02079
3467.26967,0.02100
3465.20950,0.02095
3463.14933,0.02087
3461.08916,0.02111
3459.02898,0.02130
3456.96881,0.02111
3454.90864,0.02094
3452.84847,0.02112
3450.78830,0.02142
3448.72812,0.02156
3446.66795,0.02166
3444.60778,0.02172
3442.54761,0.02182
3440.48744,0.02218
3438.42726,0.02250
3436.36709,0.02237
3434.30692,0.02207
3432.24675,0.02211
3430.18657,0.02246
3428.12640,0.02277
3426.06623,0.02302
3424.00606,0.02327
3421.94589,0.02331
3419.88571,0.02324
3417.82554,0.02329
3415.76537,0.02354
3413.70520,0.02382
3411.64503,0.02382
3409.58485,0.02372
3407.52468,0.02388
3405.46451,0.02411
3403.40434,0.02405
3401.34416,0.02387
3399.28399,0.02408
3397.22382,0.02451
3395.16365,0.02480
3393.10348,0.02462
3391.04330,0.02427
3388.98313,0.02432
3386.92296,0.02480
3384.86279,0.02523
3382.80262,0.02526
3380.74244,0.02509
3378.68227,0.02500
3376.62210,0.02493
3374.56193,0.02501
3372.50176,0.02534
3370.44158,0.02563
3368.38141,0.02567
3366.32124,0.02555
3364.26107,0.02558
3362.20089,0.02572
3360.14072,0.02573
3358.08055,0.02566
3356.02038,0.02561
3353.96021,0.02559
3351.90003,0.02569
3349.83986,0.02586
3347.77969,0.02582
3345.71952,0.02561
3343.65935,0.02569
3341.59917,0.02588
3339.53900,0.02582
3337.47883,0.02586
3335.41866,0.02610
3333.35849,0.02622
3331.29831,0.02628
3329.23814,0.02634
3327.17797,0.02641
3325.11780,0.02650
3323.05762,0.02642
3320.99745,0.02607
3318.93728,0.02584
3316.87711,0.02599
3314.81694,0.02630
3312.75676,0.02635
3310.69659,0.02616
3308.63642,0.02614
3306.57625,0.02614
3304.51608,0.02593
3302.45590,0.02581
3300.39573,0.02583
3298.33556,0.02572
3296.27539,0.02558
3294.21521,0.02563
3292.15504,0.02578
3290.09487,0.02597
3288.03470,0.02611
3285.97453,0.02617
3283.91435,0.02626
3281.85418,0.02633
3279.79401,0.02645
3277.73384,0.02663
3275.67367,0.02673
3273.61349,0.02666
3271.55332,0.02641
3269.49315,0.02613
3267.43298,0.02594
3265.37281,0.02572
3263.31263,0.02560
3261.25246,0.02575
3259.19229,0.02603
3257.13212,0.02613
3255.07194,0.02603
3253.01177,0.02605
3250.95160,0.02609
3248.89143,0.02587
3246.83126,0.02537
3244.77108,0.02503
3242.71091,0.02513
3240.65074,0.02534
3238.59057,0.02549
3236.53040,0.02561
3234.47022,0.02545
3232.41005,0.02494
3230.34988,0.02461
3228.28971,0.02468
3226.22954,0.02485
3224.16936,0.02496
3222.10919,0.02496
3220.04902,0.02485
3217.98885,0.02475
3215.92867,0.02468
3213.86850,0.02454
3211.80833,0.02446
3209.74816,0.02443
3207.68799,0.02434
3205.62781,0.02440
3203.56764,0.02462
3201.50747,0.02477
3199.44730,0.02472
3197.38713,0.02442
3195.32695,0.02411
3193.26678,0.02405
3191.20661,0.02411
3189.14644,0.02414
3187.08626,0.02415
3185.02609,0.02400
3182.96592,0.02364
3180.90575,0.02340
3178.84558,0.02338
3176.78540,0.02341
3174.72523,0.02345
3172.66506,0.02345
3170.60489,0.02336
3168.54472,0.02329
3166.48454,0.02325
3164.42437,0.02311
3162.36420,0.02298
3160.30403,0.02298
3158.24386,0.02282
3156.18368,0.02246
3154.12351,0.02233
3152.06334,0.02237
3150.00317,0.02232
3147.94299,0.02229
3145.88282,0.02234
3143.82265,0.02236
3141.76248,0.02224
3139.70231,0.02204
3137.64213,0.02191
3135.58196,0.02188
3133.52179,0.02187
3131.46162,0.02198
3129.40145,0.02214
3127.34127,0.02209
3125.28110,0.02181
3123.22093,0.02153
3121.16076,0.02132
3119.10058,0.02127
3117.04041,0.02142
3114.98024,0.02147
3112.92007,0.02136
3110.85990,0.02112
3108.79972,0.02074
3106.73955,0.02051
3104.67938,0.02056
3102.61921,0.02058
3100.55904,0.02047
3098.49886,0.02046
3096.43869,0.02049
3094.37852,0.02036
3092.31835,0.02012
3090.25818,0.01994
3088.19800,0.02000
3086.13783,0.02022
3084.07766,0.02022
3082.01749,0.01990
3079.95731,0.01952
3077.89714,0.01938
3075.83697,0.01952
3073.77680,0.01970
3071.71663,0.01973
3069.65645,0.01945
3067.59628,0.01908
3065.53611,0.01895
3063.47594,0.01900
3061.41577,0.01901
3059.35559,0.01880
3057.29542,0.01854
3055.23525,0.01832
3053.17508,0.01809
3051.11491,0.01801
3049.05473,0.01808
3046.99456,0.01816
3044.93439,0.01830
3042.87422,0.01843
3040.81404,0.01840
3038.75387,0.01827
3036.69370,0.01810
3034.63353,0.01796
3032.57336,0.01794
3030.51318,0.01787
3028.45301,0.01767
3026.39284,0.01751
3024.33267,0.01753
3022.27250,0.01761
3020.21232,0.01743
3018.15215,0.01709
3016.09198,0.01701
3014.03181,0.01703
3011.97163,0.01681
3009.91146,0.01645
3007.85129,0.01628
3005.79112,0.01637
3003.73095,0.01641
3001.67077,0.01634
2999.61060,0.01621
2997.55043,0.01608
2995.49026,0.01605
2993.43009,0.01619
2991.36991,0.01638
2989.30974,0.01646
2987.24957,0.01639
2985.18940,0.01618
2983.12923,0.01606
2981.06905,0.01620
2979.00888,0.01641
2976.94871,0.01642
2974.88854,0.01632
2972.82836,0.01629
2970.76819,0.01631
2968.70802,0.01634
2966.64785,0.01643
2964.58768,0.01653
2962.52750,0.01660
2960.46733,0.01664
2958.40716,0.01668
2956.34699,0.01664
2954.28682,0.01645
2952.22664,0.01632
2950.16647,0.01628
2948.10630,0.01624
2946.04613,0.01641
2943.98596,0.01672
2941.92578,0.01678
2939.86561,0.01660
2937.80544,0.01635
2935.74527,0.01614
2933.68509,0.01604
2931.62492,0.01607
2929.56475,0.01625
2927.50458,0.01647
2925.44441,0.01651
2923.38423,0.01645
2921.32406,0.01638
2919.26389,0.01620
2917.20372,0.01594
2915.14355,0.01567
2913.08337,0.01546
2911.02320,0.01544
2908.96303,0.01540
2906.90286,0.01511
2904.84268,0.01476
2902.78251,0.01461
2900.72234,0.01465
2898.66217,0.01468
2896.60200,0.01460
2894.54182,0.01453
2892.48165,0.01454
2890.42148,0.01447
2888.36131,0.01437
2886.30114,0.01432
2884.24096,0.01418
2882.18079,0.01408
2880.12062,0.01421
2878.06045,0.01433
2876.00028,0.01424
2873.94010,0.01401
2871.87993,0.01378
2869.81976,0.01362
2867.75959,0.01341
2865.69941,0.01317
2863.63924,0.01305
2861.57907,0.01300
2859.51890,0.01306
2857.45873,0.01312
2855.39855,0.01292
2853.33838,0.01264
2851.27821,0.01241
2849.21804,0.01210
2847.15787,0.01184
2845.09769,0.01172
2843.03752,0.01163
2840.97735,0.01150
2838.91718,0.01132
2836.85700,0.01115
2834.79683,0.01112
2832.73666,0.01116
2830.67649,0.01107
2828.61632,0.01096
2826.55614,0.01097
2824.49597,0.01087
2822.43580,0.01063
2820.37563,0.01058
2818.31546,0.01062
2816.25528,0.01046
2814.19511,0.01022
2812.13494,0.01009
2810.07477,0.01002
2808.01460,0.01008
2805.95442,0.01026
2803.89425,0.01029
2801.83408,0.01010
2799.77391,0.00993
2797.71373,0.00990
2795.65356,0.00988
2793.59339,0.00977
2791.53322,0.00965
2789.47305,0.00953
2787.41287,0.00944
2785.35270,0.00933
2783.29253,0.00926
2781.23236,0.00932
2779.17219,0.00933
2777.11201,0.00918
2775.05184,0.00897
2772.99167,0.00883
2770.93150,0.00878
2768.87133,0.00883
2766.81115,0.00885
2764.75098,0.00873
2762.69081,0.00858
2760.63064,0.00854
2758.57046,0.00865
2756.51029,0.00873
2754.45012,0.00878
2752.38995,0.00867
2750.32978,0.00843
2748.26960,0.00840
2746.20943,0.00858
2744.14926,0.00862
2742.08909,0.00845
2740.02892,0.00819
2737.96874,0.00801
2735.90857,0.00798
2733.84840,0.00800
2731.78823,0.00799
2729.72805,0.00799
2727.66788,0.00801
2725.60771,0.00792
2723.54754,0.00767
2721.48737,0.00748
2719.42719,0.00753
2717.36702,0.00767
2715.30685,0.00769
2713.24668,0.00774
2711.18651,0.00788
2709.12633,0.00789
2707.06616,0.00779
2705.00599,0.00759
2702.94582,0.00738
2700.88565,0.00730
2698.82547,0.00728
2696.76530,0.00719
2694.70513,0.00711
2692.64496,0.00709
2690.58478,0.00705
2688.52461,0.00691
2686.46444,0.00680
2684.40427,0.00688
2682.34410,0.00702
2680.28392,0.00708
2678.22375,0.00696
2676.16358,0.00675
2674.10341,0.00667
2672.04324,0.00675
2669.98306,0.00687
2667.92289,0.00698
2665.86272,0.00699
2663.80255,0.00694
2661.74238,0.00692
2659.68220,0.00688
2657.62203,0.00696
2655.56186,0.00718
2653.50169,0.00730
2651.44151,0.00731
2649.38134,0.00722
2647.32117,0.00700
2645.26100,0.00686
2643.20083,0.00693
2641.14065,0.00705
2639.08048,0.00717
2637.02031,0.00725
2634.96014,0.00712
2632.89997,0.00681
2630.83979,0.00662
2628.77962,0.00669
2626.71945,0.00670
2624.65928,0.00660
2622.59910,0.00667
2620.53893,0.00666
2618.47876,0.00633
2616.41859,0.00625
2614.35842,0.00666
2612.29824,0.00707
2610.23807,0.00718
2608.17790,0.00699
2606.11773,0.00661
2604.05756,0.00634
2601.99738,0.00627
2599.93721,0.00616
2597.87704,0.00589
2595.81687,0.00568
2593.75670,0.00571
2591.69652,0.00592
2589.63635,0.00612
2587.57618,0.00618
2585.51601,0.00612
2583.45583,0.00613
2581.39566,0.00633
2579.33549,0.00640
2577.27532,0.00619
2575.21515,0.00604
2573.15497,0.00602
2571.09480,0.00591
2569.03463,0.00581
2566.97446,0.00593
2564.91429,0.00602
2562.85411,0.00594
2560.79394,0.00591
2558.73377,0.00590
2556.67360,0.00574
2554.61342,0.00548
2552.55325,0.00546
2550.49308,0.00569
2548.43291,0.00587
2546.37274,0.00589
2544.31256,0.00566
2542.25239,0.00544
2540.19222,0.00540
2538.13205,0.00538
2536.07188,0.00549
2534.01170,0.00569
2531.95153,0.00588
2529.89136,0.00589
2527.83119,0.00567
2525.77102,0.00574
2523.71084,0.00625
2521.65067,0.00649
2519.59050,0.00620
2517.53033,0.00593
2515.47015,0.00590
2513.40998,0.00596
2511.34981,0.00597
2509.28964,0.00591
2507.22947,0.00586
2505.16929,0.00583
2503.10912,0.00574
2501.04895,0.00578
2498.98878,0.00595
2496.92861,0.00599
2494.86843,0.00598
2492.80826,0.00590
2490.74809,0.00585
2488.68792,0.00598
2486.62775,0.00585
2484.56757,0.00557
2482.50740,0.00562
2480.44723,0.00572
2478.38706,0.00559
2476.32688,0.00566
2474.26671,0.00599
2472.20654,0.00612
2470.14637,0.00619
2468.08620,0.00624
2466.02602,0.00600
2463.96585,0.00600
2461.90568,0.00645
2459.84551,0.00677
2457.78534,0.00688
2455.72516,0.00692
2453.66499,0.00673
2451.60482,0.00642
2449.54465,0.00617
2447.48447,0.00597
2445.42430,0.00587
2443.36413,0.00577
2441.30396,0.00572
2439.24379,0.00587
2437.18361,0.00613
2435.12344,0.00627
2433.06327,0.00621
2431.00310,0.00611
2428.94293,0.00607
2426.88275,0.00586
2424.82258,0.00569
2422.76241,0.00597
2420.70224,0.00630
2418.64207,0.00634
2416.58189,0.00635
2414.52172,0.00631
2412.46155,0.00610
2410.40138,0.00590
2408.34120,0.00596
2406.28103,0.00618
2404.22086,0.00621
2402.16069,0.00588
2400.10052,0.00567
2398.04034,0.00530
2395.98017,0.00562
2393.92000,0.00595
2391.85983,0.00605
2389.79966,0.00619
2387.73948,0.00651
2385.67931,0.00686
2383.61914,0.00709
2381.55897,0.00718
2379.49880,0.00715
2377.43862,0.00696
2375.37845,0.00680
2373.31828,0.00691
2371.25811,0.00717
2369.19793,0.00744
2367.13776,0.00804
2365.07759,0.00918
2363.01742,0.01035
2360.95725,0.01068
2358.89707,0.00984
2356.83690,0.00860
2354.77673,0.00828
2352.71656,0.00885
2350.65639,0.00958
2348.59621,0.00993
2346.53604,0.00973
2344.47587,0.00941
2342.41570,0.00941
2340.35552,0.00956
2338.29535,0.00970
2336.23518,0.00986
2334.17501,0.01007
2332.11484,0.01016
2330.05466,0.01045
2327.99449,0.01097
2325.93432,0.01114
2323.87415,0.01065
2321.81398,0.01003
2319.75380,0.00978
2317.69363,0.00954
2315.63346,0.00917
2313.57329,0.00889
2311.51312,0.00856
2309.45294,0.00822
2307.39277,0.00824
2305.33260,0.00850
2303.27243,0.00851
2301.21225,0.00822
2299.15208,0.00813
2297.09191,0.00835
2295.03174,0.00853
2292.97157,0.00851
2290.91139,0.00852
2288.85122,0.00876
2286.79105,0.00883
2284.73088,0.00823
2282.67071,0.00723
2280.61053,0.00668
2278.55036,0.00675
2276.49019,0.00706
2274.43002,0.00744
2272.36984,0.00770
2270.30967,0.00747
2268.24950,0.00678
2266.18933,0.00624
2264.12916,0.00634
2262.06898,0.00677
2260.00881,0.00698
2257.94864,0.00704
2255.88847,0.00708
2253.82830,0.00707
2251.76812,0.00695
2249.70795,0.00667
2247.64778,0.00691
2245.58761,0.00738
2243.52744,0.00761
2241.46726,0.00732
2239.40709,0.00661
2237.34692,0.00629
2235.28675,0.00687
2233.22657,0.00758
2231.16640,0.00764
2229.10623,0.00712
2227.04606,0.00667
2224.98589,0.00687
2222.92571,0.00746
2220.86554,0.00745
2218.80537,0.00630
2216.74520,0.00523
2214.68503,0.00541
2212.62485,0.00583
2210.56468,0.00546
2208.50451,0.00499
2206.44434,0.00526
2204.38417,0.00585
2202.32399,0.00621
2200.26382,0.00689
2198.20365,0.00786
2196.14348,0.00732
2194.08330,0.00531
2192.02313,0.00450
2189.96296,0.00500
2187.90279,0.00486
2185.84262,0.00461
2183.78244,0.00491
2181.72227,0.00504
2179.66210,0.00513
2177.60193,0.00554
2175.54176,0.00628
2173.48158,0.00699
2171.42141,0.00737
2169.36124,0.00717
2167.30107,0.00607
2165.24089,0.00572
2163.18072,0.00609
2161.12055,0.00418
2159.06038,0.00115
2157.00021,0.00000
2154.94003,0.00024
2152.87986,0.00143
2150.81969,0.00316
2148.75952,0.00407
2146.69935,0.00436
2144.63917,0.00511
2142.57900,0.00533
2140.51883,0.00428
2138.45866,0.00334
2136.39849,0.00355
2134.33831,0.00439
2132.27814,0.00467
2130.21797,0.00433
2128.15780,0.00407
2126.09762,0.00391
2124.03745,0.00388
2121.97728,0.00384
2119.91711,0.00379
2117.85694,0.00409
2115.79676,0.00453
2113.73659,0.00482
2111.67642,0.00505
2109.61625,0.00556
2107.55608,0.00598
2105.49590,0.00548
2103.43573,0.00465
2101.37556,0.00461
2099.31539,0.00496
2097.25521,0.00487
2095.19504,0.00455
2093.13487,0.00488
2091.07470,0.00539
2089.01453,0.00522
2086.95435,0.00457
2084.89418,0.00443
2082.83401,0.00489
2080.77384,0.00526
2078.71367,0.00548
2076.65349,0.00511
2074.59332,0.00426
2072.53315,0.00408
2070.47298,0.00452
2068.41281,0.00497
2066.35263,0.00502
2064.29246,0.00458
2062.23229,0.00427
2060.17212,0.00422
2058.11194,0.00394
2056.05177,0.00396
2053.99160,0.00478
2051.93143,0.00546
2049.87126,0.00468
2047.81108,0.00299
2045.75091,0.00200
2043.69074,0.00242
2041.63057,0.00362
2039.57040,0.00445
2037.51022,0.00409
2035.45005,0.00291
2033.38988,0.00266
2031.32971,0.00312
2029.26954,0.00284
2027.20936,0.00276
2025.14919,0.00363
2023.08902,0.00424
2021.02885,0.00384
2018.96867,0.00316
2016.90850,0.00247
2014.84833,0.00187
2012.78816,0.00216
2010.72799,0.00276
2008.66781,0.00228
2006.60764,0.00148
2004.54747,0.00143
2002.48730,0.00180
2000.42713,0.00223
1998.36695,0.00244
1996.30678,0.00269
1994.24661,0.00362
1992.18644,0.00457
1990.12626,0.00444
1988.06609,0.00384
1986.00592,0.00380
1983.94575,0.00410
1981.88558,0.00399
1979.82540,0.00338
1977.76523,0.00268
1975.70506,0.00216
1973.64489,0.00171
1971.58472,0.00117
1969.52454,0.00124
1967.46437,0.00211
1965.40420,0.00245
1963.34403,0.00188
1961.28386,0.00142
1959.22368,0.00159
1957.16351,0.00173
1955.10334,0.00101
1953.04317,0.00000
1950.98299,0.00007
1948.92282,0.00136
1946.86265,0.00235
1944.80248,0.00192
1942.74231,0.00081
1940.68213,0.00076
1938.62196,0.00181
1936.56179,0.00238
1934.50162,0.00198
1932.44145,0.00173
1930.38127,0.00212
1928.32110,0.00212
1926.26093,0.00156
1924.20076,0.00141
1922.14059,0.00170
1920.08041,0.00172
1918.02024,0.00157
1915.96007,0.00157
1913.89990,0.00161
1911.83972,0.00161
1909.77955,0.00164
1907.71938,0.00173
1905.65921,0.00174
1903.59904,0.00168
1901.53886,0.00171
1899.47869,0.00176
1897.41852,0.00168
1895.35835,0.00150
1893.29818,0.00140
1891.23800,0.00129
1889.17783,0.00103
1887.11766,0.00101
1885.05749,0.00127
1882.99731,0.00135
1880.93714,0.00129
1878.87697,0.00152
1876.81680,0.00201
1874.75663,0.00232
1872.69645,0.00229
1870.63628,0.00197
1868.57611,0.00149
1866.51594,0.00122
1864.45577,0.00123
1862.39559,0.00121
1860.33542,0.00116
1858.27525,0.00115
1856.21508,0.00111
1854.15491,0.00106
1852.09473,0.00116
1850.03456,0.00133
1847.97439,0.00158
1845.91422,0.00187
1843.85404,0.00194
1841.79387,0.00178
1839.73370,0.00163
1837.67353,0.00146
1835.61336,0.00127
1833.55318,0.00124
1831.49301,0.00135
1829.43284,0.00147
1827.37267,0.00165
1825.31250,0.00178
1823.25232,0.00168
1821.19215,0.00144
1819.13198,0.00122
1817.07181,0.00109
1815.01163,0.00100
1812.95146,0.00095
1810.89129,0.00103
1808.83112,0.00118
1806.77095,0.00124
1804.71077,0.00125
1802.65060,0.00135
1800.59043,0.00144
1798.53026,0.00142
1796.47009,0.00144
1794.40991,0.00152
1792.34974,0.00148
1790.28957,0.00142
1788.22940,0.00154
1786.16923,0.00179
1784.10905,0.00192
1782.04888,0.00172
1779.98871,0.00129
1777.92854,0.00107
1775.86836,0.00112
1773.80819,0.00115
1771.74802,0.00123
1769.68785,0.00156
1767.62768,0.00186
1765.56750,0.00202
1763.50733,0.00210
1761.44716,0.00212
1759.38699,0.00225
1757.32682,0.00257
1755.26664,0.00291
1753.20647,0.00313
1751.14630,0.00318
1749.08613,0.00309
1747.02596,0.00306
1744.96578,0.00318
1742.90561,0.00338
1740.84544,0.00348
1738.78527,0.00344
1736.72509,0.00344
1734.66492,0.00346
1732.60475,0.00340
1730.54458,0.00344
1728.48441,0.00361
1726.42423,0.00378
1724.36406,0.00389
1722.30389,0.00396
1720.24372,0.00406
1718.18355,0.00419
1716.12337,0.00435
1714.06320,0.00451
1712.00303,0.00468
1709.94286,0.00490
1707.88268,0.00517
1705.82251,0.00549
1703.76234,0.00584
1701.70217,0.00624
1699.64200,0.00666
1697.58182,0.00715
1695.52165,0.00770
1693.46148,0.00810
1691.40131,0.00845
1689.34114,0.00886
1687.28096,0.00926
1685.22079,0.00968
1683.16062,0.01046
1681.10045,0.01149
1679.04028,0.01243
1676.98010,0.01311
1674.91993,0.01361
1672.85976,0.01417
1670.79959,0.01494
1668.73941,0.01576
1666.67924,0.01640
1664.61907,0.01684
1662.55890,0.01728
1660.49873,0.01778
1658.43855,0.01816
1656.37838,0.01840
1654.31821,0.01869
1652.25804,0.01911
1650.19787,0.01916
1648.13769,0.01895
1646.07752,0.01882
1644.01735,0.01864
1641.95718,0.01828
1639.89701,0.01783
1637.83683,0.01743
1635.77666,0.01707
1633.71649,0.01675
1631.65632,0.01647
1629.59614,0.01604
1627.53597,0.01545
1625.47580,0.01495
1623.41563,0.01455
1621.35546,0.01421
1619.29528,0.01391
1617.23511,0.01349
1615.17494,0.01291
1613.11477,0.01241
1611.05460,0.01204
1608.99442,0.01174
1606.93425,0.01150
1604.87408,0.01129
1602.81391,0.01108
1600.75373,0.01080
1598.69356,0.01050
1596.63339,0.01030
1594.57322,0.01016
1592.51305,0.00994
1590.45287,0.00957
1588.39270,0.00916
1586.33253,0.00887
1584.27236,0.00877
1582.21219,0.00878
1580.15201,0.00880
1578.09184,0.00872
1576.03167,0.00859
1573.97150,0.00854
1571.91133,0.00849
1569.85115,0.00835
1567.79098,0.00820
1565.73081,0.00813
1563.67064,0.00821
1561.61046,0.00846
1559.55029,0.00869
1557.49012,0.00884
1555.42995,0.00886
1553.36978,0.00871
1551.30960,0.00847
1549.24943,0.00825
1547.18926,0.00802
1545.12909,0.00774
1543.06892,0.00759
1541.00874,0.00763
1538.94857,0.00754
1536.88840,0.00729
1534.82823,0.00705
1532.76805,0.00675
1530.70788,0.00649
1528.64771,0.00634
1526.58754,0.00629
1524.52737,0.00631
1522.46719,0.00617
1520.40702,0.00585
1518.34685,0.00572
1516.28668,0.00580
1514.22651,0.00575
1512.16633,0.00548
1510.10616,0.00526
1508.04599,0.00508
1505.98582,0.00475
1503.92565,0.00449
1501.86547,0.00440
1499.80530,0.00425
1497.74513,0.00394
1495.68496,0.00363
1493.62478,0.00346
1491.56461,0.00330
1489.50444,0.00312
1487.44427,0.00315
1485.38410,0.00333
1483.32392,0.00338
1481.26375,0.00331
1479.20358,0.00327
1477.14341,0.00332
1475.08324,0.00345
1473.02306,0.00375
1470.96289,0.00407
1468.90272,0.00425
1466.84255,0.00437
1464.78238,0.00453
1462.72220,0.00468
1460.66203,0.00469
1458.60186,0.00459
1456.54169,0.00456
1454.48151,0.00460
1452.42134,0.00456
1450.36117,0.00446
1448.30100,0.00442
1446.24083,0.00444
1444.18065,0.00451
1442.12048,0.00459
1440.06031,0.00463
1438.00014,0.00463
1435.93997,0.00454
1433.87979,0.00438
1431.81962,0.00429
1429.75945,0.00429
1427.69928,0.00437
1425.63910,0.00447
1423.57893,0.00456
1421.51876,0.00468
1419.45859,0.00486
1417.39842,0.00499
1415.33824,0.00501
1413.27807,0.00496
1411.21790,0.00487
1409.15773,0.00479
1407.09756,0.00472
1405.03738,0.00468
1402.97721,0.00466
1400.91704,0.00463
1398.85687,0.00451
1396.79670,0.00429
1394.73652,0.00412
1392.67635,0.00410
1390.61618,0.00412
1388.55601,0.00409
1386.49583,0.00401
1384.43566,0.00394
1382.37549,0.00390
1380.31532,0.00391
1378.25515,0.00393
1376.19497,0.00394
1374.13480,0.00394
1372.07463,0.00393
1370.01446,0.00383
1367.95429,0.00370
1365.89411,0.00362
1363.83394,0.00352
1361.77377,0.00339
1359.71360,0.00330
1357.65343,0.00324
1355.59325,0.00320
1353.53308,0.00315
1351.47291,0.00304
1349.41274,0.00292
1347.35256,0.00282
1345.29239,0.00270
1343.23222,0.00267
1341.17205,0.00272
1339.11188,0.00273
1337.05170,0.00272
1334.99153,0.00282
1332.93136,0.00296
1330.87119,0.00297
1328.81102,0.00292
1326.75084,0.00296
1324.69067,0.00307
1322.63050,0.00310
1320.57033,0.00304
1318.51015,0.00301
1316.44998,0.00303
1314.38981,0.00298
1312.32964,0.00289
1310.26947,0.00287
1308.20929,0.00283
1306.14912,0.00267
1304.08895,0.00258
1302.02878,0.00274
1299.96861,0.00297
1297.90843,0.00304
1295.84826,0.00304
1293.78809,0.00313
1291.72792,0.00323
1289.66775,0.00322
1287.60757,0.00312
1285.54740,0.00306
1283.48723,0.00305
1281.42706,0.00318
1279.36688,0.00338
1277.30671,0.00337
1275.24654,0.00317
1273.18637,0.00304
1271.12620,0.00306
1269.06602,0.00316
1267.00585,0.00316
1264.94568,0.00305
1262.88551,0.00300
1260.82534,0.00305
1258.76516,0.00313
1256.70499,0.00320
1254.64482,0.00322
1252.58465,0.00323
1250.52447,0.00320
1248.46430,0.00315
1246.40413,0.00313
1244.34396,0.00310
1242.28379,0.00303
1240.22361,0.00301
1238.16344,0.00300
1236.10327,0.00278
1234.04310,0.00245
1231.98293,0.00221
1229.92275,0.00210
1227.86258,0.00206
1225.80241,0.00197
1223.74224,0.00184
1221.68207,0.00170
1219.62189,0.00154
1217.56172,0.00140
1215.50155,0.00127
1213.44138,0.00111
1211.38120,0.00100
1209.32103,0.00086
1207.26086,0.00067
1205.20069,0.00057
1203.14052,0.00061
1201.08034,0.00057
1199.02017,0.00043
1196.96000,0.00037
1194.89983,0.00033
1192.83966,0.00020
1190.77948,0.00017
1188.71931,0.00023
1186.65914,0.00009
1184.59897,0.00000
1182.53880,0.00015
1180.47862,0.00029
1178.41845,0.00038
1176.35828,0.00057
1174.29811,0.00086
1172.23793,0.00125
1170.17776,0.00160
1168.11759,0.00180
1166.05742,0.00197
1163.99725,0.00213
1161.93707,0.00235
1159.87690,0.00269
1157.81673,0.00302
1155.75656,0.00315
1153.69639,0.00325
1151.63621,0.00364
1149.57604,0.00406
1147.51587,0.00418
1145.45570,0.00426
1143.39552,0.00455
1141.33535,0.00496
1139.27518,0.00540
1137.21501,0.00578
1135.15484,0.00601
1133.09466,0.00631
1131.03449,0.00690
1128.97432,0.00765
1126.91415,0.00836
1124.85398,0.00907
1122.79380,0.00990
1120.73363,0.01080
1118.67346,0.01172
1116.61329,0.01263
1114.55312,0.01350
1112.49294,0.01436
1110.43277,0.01514
1108.37260,0.01573
1106.31243,0.01620
1104.25225,0.01670
1102.19208,0.01726
1100.13191,0.01793
1098.07174,0.01874
1096.01157,0.01944
1093.95139,0.01994
1091.89122,0.02030
1089.83105,0.02058
1087.77088,0.02099
1085.71071,0.02165
1083.65053,0.02234
1081.59036,0.02274
1079.53019,0.02292
1077.47002,0.02324
1075.40985,0.02371
1073.34967,0.02415
1071.28950,0.02452
1069.22933,0.02480
1067.16916,0.02494
1065.10898,0.02497
1063.04881,0.02499
1060.98864,0.02500
1058.92847,0.02494
1056.86830,0.02489
1054.80812,0.02485
1052.74795,0.02470
1050.68778,0.02444
1048.62761,0.02396
1046.56744,0.02324
1044.50726,0.02249
1042.44709,0.02178
1040.38692,0.02113
1038.32675,0.02056
1036.26657,0.01990
1034.20640,0.01903
1032.14623,0.01827
1030.08606,0.01762
1028.02589,0.01670
1025.96571,0.01570
1023.90554,0.01494
1021.84537,0.01432
1019.78520,0.01378
1017.72503,0.01337
1015.66485,0.01305
1013.60468,0.01261
1011.54451,0.01212
1009.48434,0.01207
1007.42417,0.01241
1005.36399,0.01260
1003.30382,0.01262
1001.24365,0.01299
999.18348,0.01360
997.12330,0.01402
995.06313,0.01433
993.00296,0.01476
990.94279,0.01521
988.88262,0.01564
986.82244,0.01614
984.76227,0.01638
982.70210,0.01625
980.64193,0.01607
978.58176,0.01579
976.52158,0.01540
974.46141,0.01496
972.40124,0.01441
970.34107,0.01376
968.28089,0.01300
966.22072,0.01215
964.16055,0.01134
962.10038,0.01065
960.04021,0.01005
957.98003,0.00938
955.91986,0.00857
953.85969,0.00773
951.79952,0.00692
949.73935,0.00619
947.67917,0.00551
945.61900,0.00490
943.55883,0.00436
941.49866,0.00385
939.43849,0.00346
937.37831,0.00318
935.31814,0.00285
933.25797,0.00253
931.19780,0.00211
929.13762,0.00155
927.07745,0.00125
925.01728,0.00127
922.95711,0.00116
920.89694,0.00103
918.83676,0.00107
916.77659,0.00094
914.71642,0.00069
912.65625,0.00069
910.59608,0.00067
908.53590,0.00025
906.47573,0.00000
904.41556,0.00017
902.35539,0.00030
900.29522,0.00038
898.23504,0.00059
896.17487,0.00076
894.11470,0.00086
892.05453,0.00106
889.99435,0.00114
887.93418,0.00101
885.87401,0.00099
883.81384,0.00126
881.75367,0.00165
879.69349,0.00197
877.63332,0.00231
875.57315,0.00266
873.51298,0.00294
871.45281,0.00318
869.39263,0.00334
867.33246,0.00338
865.27229,0.00350
863.21212,0.00369
861.15194,0.00369
859.09177,0.00363
857.03160,0.00394
854.97143,0.00433
852.91126,0.00428
850.85108,0.00414
848.79091,0.00424
846.73074,0.00429
844.67057,0.00407
842.61040,0.00392
840.55022,0.00405
838.49005,0.00399
836.42988,0.00344
834.36971,0.00292
832.30954,0.00258
830.24936,0.00218
828.18919,0.00199
826.12902,0.00198
824.06885,0.00184
822.00867,0.00186
819.94850,0.00203
817.88833,0.00190
815.82816,0.00156
813.76799,0.00135
811.70781,0.00131
809.64764,0.00136
807.58747,0.00139
805.52730,0.00146
803.46713,0.00160
801.40695,0.00158
799.34678,0.00141
797.28661,0.00106
795.22644,0.00041
793.16627,0.00000
791.10609,0.00015
789.04592,0.00013
786.98575,-0.00018
784.92558,-0.00001
782.86540,0.00071
780.80523,0.00137
778.74506,0.00137
776.68489,0.00070
774.62472,0.00008
772.56454,-0.00001
770.50437,0.00029
768.44420,0.00066
766.38403,0.00096
764.32386,0.00107
762.26368,0.00072
760.20351,0.00022
758.14334,0.00039
756.08317,0.00102
754.02299,0.00142
751.96282,0.00178
749.90265,0.00198
747.84248,0.00175
745.78231,0.00156
743.72213,0.00161
741.66196,0.00144
739.60179,0.00109
737.54162,0.00091
735.48145,0.00089
733.42127,0.00086
731.36110,0.00069
729.30093,0.00065
727.24076,0.00098
725.18059,0.00110
723.12041,0.00134
721.06024,0.00096
719.00007,0.00063
716.93990,0.00071
714.87972,0.00104
712.81955,0.00145
710.75938,0.00175
708.69921,0.00171
706.63904,0.00154
704.57886,0.00163
702.51869,0.00175
700.45852,0.00177
698.39835,0.00207
696.33818,0.00271
694.27800,0.00313
692.21783,0.00311
690.15766,0.00293
688.09749,0.00290
686.03731,0.00278
683.97714,0.00210
681.91697,0.00162
679.85680,0.00198
677.79663,0.00260
675.73645,0.00335
673.67628,0.00379
671.61611,0.00271
669.55594,0.00103
667.49577,0.00112
665.43559,0.00215
663.37542,0.00404
661.31525,0.00495
659.25508,0.00422
657.19491,0.00309
655.13473,0.00292
653.07456,0.00372
651.01439,0.00429
648.95422,0.00423
646.89404,0.00411
644.83387,0.00382
642.77370,0.00355
640.71353,0.00402
638.65336,0.00417
636.59318,0.00280
634.53301,0.00124
632.47284,0.00119
630.41267,0.00218
628.35250,0.00267
626.29232,0.00227
624.23215,0.00208
622.17198,0.00184
620.11181,0.00224
618.05164,0.00443
615.99146,0.00584
613.93129,0.00393
611.87112,0.00101
609.81095,0.00000
607.75077,0.00065
605.69060,0.00108
603.63043,0.00136
601.57026,0.00163
599.51009,0.00000
