3996.73391,0.00032
3994.67373,0.00000
3992.61356,0.00021
3990.55339,0.00041
3988.49322,0.00020
3986.43305,0.00002
3984.37287,0.00011
3982.31270,0.00039
3980.25253,0.00071
3978.19236,0.00086
3976.13219,0.00080
3974.07201,0.00077
3972.01184,0.00084
3969.95167,0.00086
3967.89150,0.00083
3965.83133,0.00081
3963.77115,0.00083
3961.71098,0.00095
3959.65081,0.00106
3957.59064,0.00100
3955.53046,0.00082
3953.47029,0.00077
3951.41012,0.00081
3949.34995,0.00072
3947.28978,0.00067
3945.22960,0.00078
3943.16943,0.00083
3941.10926,0.00082
3939.04909,0.00087
3936.98892,0.00109
3934.92874,0.00145
3932.86857,0.00146
3930.80840,0.00088
3928.74823,0.00025
3926.68805,0.00000
3924.62788,0.00024
3922.56771,0.00083
3920.50754,0.00132
3918.44737,0.00136
3916.38719,0.00097
3914.32702,0.00063
3912.26685,0.00071
3910.20668,0.00090
3908.14651,0.00091
3906.08633,0.00099
3904.02616,0.00139
3901.96599,0.00152
3899.90582,0.00085
3897.84565,0.00028
3895.78547,0.00049
3893.72530,0.00090
3891.66513,0.00112
3889.60496,0.00143
3887.54478,0.00163
3885.48461,0.00136
3883.42444,0.00104
3881.36427,0.00104
3879.30410,0.00116
3877.24392,0.00118
3875.18375,0.00106
3873.12358,0.00098
3871.06341,0.00112
3869.00324,0.00137
3866.94306,0.00153
3864.88289,0.00159
3862.82272,0.00178
3860.76255,0.00198
3858.70237,0.00191
3856.64220,0.00171
3854.58203,0.00148
3852.52186,0.00108
3850.46169,0.00070
3848.40151,0.00069
3846.34134,0.00095
3844.28117,0.00118
3842.22100,0.00129
3840.16083,0.00152
3838.10065,0.00169
3836.04048,0.00142
3833.98031,0.00107
3831.92014,0.00111
3829.85997,0.00138
3827.79979,0.00141
3825.73962,0.00119
3823.67945,0.00109
3821.61928,0.00098
3819.55910,0.00072
3817.49893,0.00056
3815.43876,0.00053
3813.37859,0.00084
3811.31842,0.00144
3809.25824,0.00172
3807.19807,0.00144
3805.13790,0.00094
3803.07773,0.00045
3801.01756,0.00001
3798.95738,0.00000
3796.89721,0.00046
3794.83704,0.00089
3792.77687,0.00104
3790.71670,0.00101
3788.65652,0.00093
3786.59635,0.00091
3784.53618,0.00098
3782.47601,0.00103
3780.41583,0.00100
3778.35566,0.00108
3776.29549,0.00153
3774.23532,0.00191
3772.17515,0.00157
3770.11497,0.00076
3768.05480,0.00050
3765.99463,0.00091
3763.93446,0.00138
3761.87429,0.00171
3759.81411,0.00184
3757.75394,0.00185
3755.69377,0.00197
3753.63360,0.00217
3751.57342,0.00210
3749.51325,0.00164
3747.45308,0.00133
3745.39291,0.00128
3743.33274,0.00116
3741.27256,0.00114
3739.21239,0.00134
3737.15222,0.00149
3735.09205,0.00147
3733.03188,0.00138
3730.97170,0.00141
3728.91153,0.00175
3726.85136,0.00233
3724.79119,0.00266
3722.73102,0.00241
3720.67084,0.00191
3718.61067,0.00160
3716.55050,0.00160
3714.49033,0.00199
3712.43015,0.00235
3710.36998,0.00206
3708.30981,0.00192
3706.24964,0.00228
3704.18947,0.00229
3702.12929,0.00172
3700.06912,0.00150
3698.00895,0.00191
3695.94878,0.00246
3693.88861,0.00291
3691.82843,0.00306
3689.76826,0.00284
3687.70809,0.00244
3685.64792,0.00215
3683.58775,0.00218
3681.52757,0.00241
3679.46740,0.00234
3677.40723,0.00186
3675.34706,0.00159
3673.28688,0.00211
3671.22671,0.00287
3669.16654,0.00305
3667.10637,0.00271
3665.04620,0.00253
3662.98602,0.00276
3660.92585,0.00322
3658.86568,0.00356
3656.80551,0.00365
3654.74534,0.00366
3652.68516,0.00379
3650.62499,0.00399
3648.56482,0.00423
3646.50465,0.00436
3644.44447,0.00441
3642.38430,0.00444
3640.32413,0.00454
3638.26396,0.00493
3636.20379,0.00573
3634.14361,0.00672
3632.08344,0.00758
3630.02327,0.00790
3627.96310,0.00759
3625.90293,0.00735
3623.84275,0.00743
3621.78258,0.00774
3619.72241,0.00820
3617.66224,0.00874
3615.60207,0.00922
3613.54189,0.00961
3611.48172,0.01001
3609.42155,0.01020
3607.36138,0.01007
3605.30120,0.01008
3603.24103,0.01031
3601.18086,0.01049
3599.12069,0.01074
3597.06052,0.01138
3595.00034,0.01213
3592.94017,0.01251
3590.88000,0.01241
3588.81983,0.01206
3586.75966,0.01173
3584.69948,0.01193
3582.63931,0.01252
3580.57914,0.01296
3578.51897,0.01326
3576.45879,0.01362
3574.39862,0.01396
3572.33845,0.01422
3570.27828,0.01451
3568.21811,0.01490
3566.15793,0.01522
3564.09776,0.01545
3562.03759,0.01585
3559.97742,0.01625
3557.91725,0.01637
3555.85707,0.01631
3553.79690,0.01622
3551.73673,0.01633
3549.67656,0.01677
3547.61639,0.01720
3545.55621,0.01744
3543.49604,0.01773
3541.43587,0.01815
3539.37570,0.01853
3537.31552,0.01868
3535.25535,0.01867
3533.19518,0.01875
3531.13501,0.01907
3529.07484,0.01954
3527.01466,0.01999
3524.95449,0.02011
3522.89432,0.02000
3520.83415,0.02011
3518.77398,0.02050
3516.71380,0.02092
3514.65363,0.02129
3512.59346,0.02158
3510.53329,0.02165
3508.47312,0.02162
3506.41294,0.02193
3504.35277,0.02254
3502.29260,0.02289
3500.23243,0.02292
3498.17225,0.02311
3496.11208,0.02363
3494.05191,0.02412
3491.99174,0.02433
3489.93157,0.02438
3487.87139,0.02448
3485.81122,0.02476
3483.75105,0.02521
3481.69088,0.02568
3479.63071,0.02596
3477.57053,0.02600
3475.51036,0.02594
3473.45019,0.02602
3471.39002,0.02630
3469.32984,0.02670
3467.26967,0.02719
3465.20950,0.02752
3463.14933,0.02754
3461.08916,0.02747
3459.02898,0.02758
3456.96881,0.02778
3454.90864,0.02789
3452.84847,0.02786
3450.78830,0.02782
3448.72812,0.02800
3446.66795,0.02833
3444.60778,0.02851
3442.54761,0.02864
3440.48744,0.02899
3438.42726,0.02951
3436.36709,0.02979
3434.30692,0.02961
3432.24675,0.02944
3430.18657,0.02968
3428.12640,0.03007
3426.06623,0.03048
3424.00606,0.03079
3421.94589,0.03086
3419.88571,0.03092
3417.82554,0.03095
3415.76537,0.03096
3413.70520,0.03110
3411.64503,0.03123
3409.58485,0.03143
3407.52468,0.03197
3405.46451,0.03241
3403.40434,0.03240
3401.34416,0.03226
3399.28399,0.03242
3397.22382,0.03277
3395.16365,0.03311
3393.10348,0.03306
3391.04330,0.03272
3388.98313,0.03265
3386.92296,0.03304
3384.86279,0.03352
3382.80262,0.03376
3380.74244,0.03367
3378.68227,0.03339
3376.62210,0.03320
3374.56193,0.03332
3372.50176,0.03358
3370.44158,0.03377
3368.38141,0.03395
3366.32124,0.03400
3364.26107,0.03399
3362.20089,0.03423
3360.14072,0.03446
3358.08055,0.03438
3356.02038,0.03417
3353.96021,0.03410
3351.90003,0.03419
3349.83986,0.03425
3347.77969,0.03410
3345.71952,0.03390
3343.65935,0.03405
3341.59917,0.03438
3339.53900,0.03453
3337.47883,0.03470
3335.41866,0.03497
3333.35849,0.03504
3331.29831,0.03502
3329.23814,0.03502
3327.17797,0.03500
3325.11780,0.03502
3323.05762,0.03496
3320.99745,0.03475
3318.93728,0.03467
3316.87711,0.03482
3314.81694,0.03499
3312.75676,0.03498
3310.69659,0.03488
3308.63642,0.03501
3306.57625,0.03520
3304.51608,0.03514
3302.45590,0.03500
3300.39573,0.03498
3298.33556,0.03506
3296.27539,0.03517
3294.21521,0.03509
3292.15504,0.03476
3290.09487,0.03462
3288.03470,0.03474
3285.97453,0.03497
3283.91435,0.03524
3281.85418,0.03535
3279.79401,0.03533
3277.73384,0.03545
3275.67367,0.03559
3273.61349,0.03562
3271.55332,0.03558
3269.49315,0.03558
3267.43298,0.03568
3265.37281,0.03576
3263.31263,0.03571
3261.25246,0.03572
3259.19229,0.03584
3257.13212,0.03581
3255.07194,0.03575
3253.01177,0.03589
3250.95160,0.03600
3248.89143,0.03585
3246.83126,0.03565
3244.77108,0.03556
3242.71091,0.03540
3240.65074,0.03528
3238.59057,0.03536
3236.53040,0.03543
3234.47022,0.03540
3232.41005,0.03526
3230.34988,0.03509
3228.28971,0.03513
3226.22954,0.03534
3224.16936,0.03554
3222.10919,0.03561
3220.04902,0.03556
3217.98885,0.03551
3215.92867,0.03540
3213.86850,0.03524
3211.80833,0.03528
3209.74816,0.03535
3207.68799,0.03517
3205.62781,0.03498
3203.56764,0.03500
3201.50747,0.03507
3199.44730,0.03505
3197.38713,0.03492
3195.32695,0.03476
3193.26678,0.03462
3191.20661,0.03462
3189.14644,0.03473
3187.08626,0.03477
3185.02609,0.03458
3182.96592,0.03418
3180.90575,0.03390
3178.84558,0.03390
3176.78540,0.03392
3174.72523,0.03381
3172.66506,0.03375
3170.60489,0.03393
3168.54472,0.03405
3166.48454,0.03381
3164.42437,0.03357
3162.36420,0.03362
3160.30403,0.03376
3158.24386,0.03386
3156.18368,0.03390
3154.12351,0.03384
3152.06334,0.03355
3150.00317,0.03319
3147.94299,0.03311
3145.88282,0.03317
3143.82265,0.03304
3141.76248,0.03288
3139.70231,0.03292
3137.64213,0.03299
3135.58196,0.03275
3133.52179,0.03230
3131.46162,0.03213
3129.40145,0.03228
3127.34127,0.03240
3125.28110,0.03231
3123.22093,0.03215
3121.16076,0.03197
3119.10058,0.03160
3117.04041,0.03122
3114.98024,0.03129
3112.92007,0.03168
3110.85990,0.03176
3108.79972,0.03140
3106.73955,0.03113
3104.67938,0.03117
3102.61921,0.03116
3100.55904,0.03096
3098.49886,0.03081
3096.43869,0.03067
3094.37852,0.03041
3092.31835,0.03020
3090.25818,0.03010
3088.19800,0.03014
3086.13783,0.03032
3084.07766,0.03032
3082.01749,0.03005
3079.95731,0.02972
3077.89714,0.02953
3075.83697,0.02960
3073.77680,0.02976
3071.71663,0.02964
3069.65645,0.02924
3067.59628,0.02892
3065.53611,0.02880
3063.47594,0.02889
3061.41577,0.02901
3059.35559,0.02886
3057.29542,0.02852
3055.23525,0.02823
3053.17508,0.02789
3051.11491,0.02750
3049.05473,0.02726
3046.99456,0.02725
3044.93439,0.02746
3042.87422,0.02770
3040.81404,0.02765
3038.75387,0.02743
3036.69370,0.02726
3034.63353,0.02711
3032.57336,0.02694
3030.51318,0.02684
3028.45301,0.02681
3026.39284,0.02678
3024.33267,0.02675
3022.27250,0.02660
3020.21232,0.02620
3018.15215,0.02577
3016.09198,0.02566
3014.03181,0.02560
3011.97163,0.02538
3009.91146,0.02514
3007.85129,0.02501
3005.79112,0.02490
3003.73095,0.02473
3001.67077,0.02459
2999.61060,0.02448
2997.55043,0.02434
2995.49026,0.02423
2993.43009,0.02418
2991.36991,0.02406
2989.30974,0.02388
2987.24957,0.02367
2985.18940,0.02347
2983.12923,0.02339
2981.06905,0.02348
2979.00888,0.02357
2976.94871,0.02352
2974.88854,0.02337
2972.82836,0.02328
2970.76819,0.02329
2968.70802,0.02337
2966.64785,0.02338
2964.58768,0.02335
2962.52750,0.02341
2960.46733,0.02353
2958.40716,0.02356
2956.34699,0.02332
2954.28682,0.02292
2952.22664,0.02273
2950.16647,0.02273
2948.10630,0.02270
2946.04613,0.02266
2943.98596,0.02259
2941.92578,0.02244
2939.86561,0.02230
2937.80544,0.02223
2935.74527,0.02219
2933.68509,0.02222
2931.62492,0.02230
2929.56475,0.02228
2927.50458,0.02213
2925.44441,0.02189
2923.38423,0.02164
2921.32406,0.02143
2919.26389,0.02139
2917.20372,0.02147
2915.14355,0.02139
2913.08337,0.02108
2911.02320,0.02073
2908.96303,0.02056
2906.90286,0.02050
2904.84268,0.02032
2902.78251,0.02010
2900.72234,0.01996
2898.66217,0.01982
2896.60200,0.01964
2894.54182,0.01943
2892.48165,0.01935
2890.42148,0.01945
2888.36131,0.01949
2886.30114,0.01938
2884.24096,0.01920
2882.18079,0.01902
2880.12062,0.01894
2878.06045,0.01885
2876.00028,0.01859
2873.94010,0.01843
2871.87993,0.01846
2869.81976,0.01840
2867.75959,0.01825
2865.69941,0.01805
2863.63924,0.01779
2861.57907,0.01755
2859.51890,0.01743
2857.45873,0.01742
2855.39855,0.01727
2853.33838,0.01701
2851.27821,0.01679
2849.21804,0.01659
2847.15787,0.01643
2845.09769,0.01633
2843.03752,0.01623
2840.97735,0.01617
2838.91718,0.01608
2836.85700,0.01596
2834.79683,0.01591
2832.73666,0.01580
2830.67649,0.01549
2828.61632,0.01527
2826.55614,0.01522
2824.49597,0.01506
2822.43580,0.01479
2820.37563,0.01454
2818.31546,0.01434
2816.25528,0.01419
2814.19511,0.01415
2812.13494,0.01427
2810.07477,0.01437
2808.01460,0.01436
2805.95442,0.01430
2803.89425,0.01420
2801.83408,0.01414
2799.77391,0.01410
2797.71373,0.01396
2795.65356,0.01375
2793.59339,0.01355
2791.53322,0.01345
2789.47305,0.01331
2787.41287,0.01308
2785.35270,0.01290
2783.29253,0.01283
2781.23236,0.01282
2779.17219,0.01275
2777.11201,0.01258
2775.05184,0.01238
2772.99167,0.01225
2770.93150,0.01225
2768.87133,0.01230
2766.81115,0.01216
2764.75098,0.01177
2762.69081,0.01153
2760.63064,0.01166
2758.57046,0.01193
2756.51029,0.01208
2754.45012,0.01201
2752.38995,0.01176
2750.32978,0.01143
2748.26960,0.01121
2746.20943,0.01124
2744.14926,0.01135
2742.08909,0.01125
2740.02892,0.01102
2737.96874,0.01094
2735.90857,0.01092
2733.84840,0.01086
2731.78823,0.01090
2729.72805,0.01090
2727.66788,0.01069
2725.60771,0.01048
2723.54754,0.01040
2721.48737,0.01035
2719.42719,0.01033
2717.36702,0.01035
2715.30685,0.01032
2713.24668,0.01022
2711.18651,0.01012
2709.12633,0.01003
2707.06616,0.00999
2705.00599,0.00990
2702.94582,0.00963
2700.88565,0.00944
2698.82547,0.00948
2696.76530,0.00951
2694.70513,0.00944
2692.64496,0.00942
2690.58478,0.00936
2688.52461,0.00911
2686.46444,0.00887
2684.40427,0.00883
2682.34410,0.00896
2680.28392,0.00914
2678.22375,0.00910
2676.16358,0.00882
2674.10341,0.00852
2672.04324,0.00832
2669.98306,0.00840
2667.92289,0.00865
2665.86272,0.00877
2663.80255,0.00876
2661.74238,0.00857
2659.68220,0.00830
2657.62203,0.00828
2655.56186,0.00844
2653.50169,0.00851
2651.44151,0.00859
2649.38134,0.00856
2647.32117,0.00822
2645.26100,0.00789
2643.20083,0.00790
2641.14065,0.00801
2639.08048,0.00796
2637.02031,0.00780
2634.96014,0.00760
2632.89997,0.00755
2630.83979,0.00775
2628.77962,0.00790
2626.71945,0.00768
2624.65928,0.00740
2622.59910,0.00741
2620.53893,0.00744
2618.47876,0.00734
2616.41859,0.00716
2614.35842,0.00693
2612.29824,0.00683
2610.23807,0.00687
2608.17790,0.00687
2606.11773,0.00679
2604.05756,0.00674
2601.99738,0.00683
2599.93721,0.00689
2597.87704,0.00678
2595.81687,0.00662
2593.75670,0.00656
2591.69652,0.00667
2589.63635,0.00681
2587.57618,0.00692
2585.51601,0.00695
2583.45583,0.00695
2581.39566,0.00700
2579.33549,0.00683
2577.27532,0.00643
2575.21515,0.00622
2573.15497,0.00632
2571.09480,0.00645
2569.03463,0.00643
2566.97446,0.00645
2564.91429,0.00657
2562.85411,0.00666
2560.79394,0.00676
2558.73377,0.00680
2556.67360,0.00665
2554.61342,0.00641
2552.55325,0.00622
2550.49308,0.00604
2548.43291,0.00607
2546.37274,0.00613
2544.31256,0.00601
2542.25239,0.00594
2540.19222,0.00576
2538.13205,0.00566
2536.07188,0.00593
2534.01170,0.00620
2531.95153,0.00618
2529.89136,0.00595
2527.83119,0.00577
2525.77102,0.00583
2523.71084,0.00610
2521.65067,0.00639
2519.59050,0.00641
2517.53033,0.00611
2515.47015,0.00593
2513.40998,0.00612
2511.34981,0.00639
2509.28964,0.00651
2507.22947,0.00661
2505.16929,0.00669
2503.10912,0.00653
2501.04895,0.00630
2498.98878,0.00627
2496.92861,0.00635
2494.86843,0.00639
2492.80826,0.00635
2490.74809,0.00636
2488.68792,0.00652
2486.62775,0.00661
2484.56757,0.00644
2482.50740,0.00629
2480.44723,0.00626
2478.38706,0.00630
2476.32688,0.00654
2474.26671,0.00669
2472.20654,0.00667
2470.14637,0.00677
2468.08620,0.00684
2466.02602,0.00666
2463.96585,0.00663
2461.90568,0.00701
2459.84551,0.00737
2457.78534,0.00744
2455.72516,0.00718
2453.66499,0.00679
2451.60482,0.00668
2449.54465,0.00667
2447.48447,0.00656
2445.42430,0.00659
2443.36413,0.00670
2441.30396,0.00692
2439.24379,0.00733
2437.18361,0.00732
2435.12344,0.00689
2433.06327,0.00681
2431.00310,0.00706
2428.94293,0.00704
2426.88275,0.00670
2424.82258,0.00657
2422.76241,0.00685
2420.70224,0.00713
2418.64207,0.00720
2416.58189,0.00714
2414.52172,0.00704
2412.46155,0.00696
2410.40138,0.00709
2408.34120,0.00739
2406.28103,0.00740
2404.22086,0.00701
2402.16069,0.00647
2400.10052,0.00599
2398.04034,0.00531
2395.98017,0.00570
2393.92000,0.00629
2391.85983,0.00650
2389.79966,0.00669
2387.73948,0.00709
2385.67931,0.00741
2383.61914,0.00748
2381.55897,0.00743
2379.49880,0.00733
2377.43862,0.00689
2375.37845,0.00645
2373.31828,0.00648
2371.25811,0.00717
2369.19793,0.00835
2367.13776,0.00929
2365.07759,0.00985
2363.01742,0.01059
2360.95725,0.00969
2358.89707,0.00840
2356.83690,0.00741
2354.77673,0.00787
2352.71656,0.00904
2350.65639,0.00873
2348.59621,0.00860
2346.53604,0.01103
2344.47587,0.01087
2342.41570,0.00964
2340.35552,0.00912
2338.29535,0.00897
2336.23518,0.00899
2334.17501,0.00899
2332.11484,0.00933
2330.05466,0.00995
2327.99449,0.01054
2325.93432,0.00995
2323.87415,0.00925
2321.81398,0.00864
2319.75380,0.00873
2317.69363,0.00838
2315.63346,0.00830
2313.57329,0.00858
2311.51312,0.00862
2309.45294,0.00838
2307.39277,0.00820
2305.33260,0.00836
2303.27243,0.00854
2301.21225,0.00873
2299.15208,0.00901
2297.09191,0.00920
2295.03174,0.00894
2292.97157,0.00835
2290.91139,0.00798
2288.85122,0.00790
2286.79105,0.00763
2284.73088,0.00691
2282.67071,0.00607
2280.61053,0.00568
2278.55036,0.00587
2276.49019,0.00627
2274.43002,0.00663
2272.36984,0.00686
2270.30967,0.00666
2268.24950,0.00613
2266.18933,0.00582
2264.12916,0.00622
2262.06898,0.00688
2260.00881,0.00698
2257.94864,0.00667
2255.88847,0.00666
2253.82830,0.00686
2251.76812,0.00684
2249.70795,0.00668
2247.64778,0.00696
2245.58761,0.00702
2243.52744,0.00677
2241.46726,0.00647
2239.40709,0.00621
2237.34692,0.00625
2235.28675,0.00642
2233.22657,0.00599
2231.16640,0.00514
2229.10623,0.00482
2227.04606,0.00555
2224.98589,0.00653
2222.92571,0.00692
2220.86554,0.00688
2218.80537,0.00635
2216.74520,0.00547
2214.68503,0.00491
2212.62485,0.00476
2210.56468,0.00457
2208.50451,0.00458
2206.44434,0.00480
2204.38417,0.00464
2202.32399,0.00463
2200.26382,0.00558
2198.20365,0.00682
2196.14348,0.00650
2194.08330,0.00444
2192.02313,0.00292
2189.96296,0.00339
2187.90279,0.00447
2185.84262,0.00482
2183.78244,0.00484
2181.72227,0.00474
2179.66210,0.00431
2177.60193,0.00410
2175.54176,0.00510
2173.48158,0.00651
2171.42141,0.00670
2169.36124,0.00579
2167.30107,0.00455
2165.24089,0.00421
2163.18072,0.00456
2161.12055,0.00324
2159.06038,0.00095
2157.00021,0.00000
2154.94003,0.00009
2152.87986,0.00072
2150.81969,0.00139
2148.75952,0.00146
2146.69935,0.00162
2144.63917,0.00234
2142.57900,0.00260
2140.51883,0.00213
2138.45866,0.00165
2136.39849,0.00167
2134.33831,0.00231
2132.27814,0.00287
2130.21797,0.00283
2128.15780,0.00258
2126.09762,0.00264
2124.03745,0.00302
2121.97728,0.00311
2119.91711,0.00286
2117.85694,0.00309
2115.79676,0.00375
2113.73659,0.00435
2111.67642,0.00476
2109.61625,0.00500
2107.55608,0.00518
2105.49590,0.00482
2103.43573,0.00408
2101.37556,0.00395
2099.31539,0.00401
2097.25521,0.00353
2095.19504,0.00316
2093.13487,0.00357
2091.07470,0.00399
2089.01453,0.00404
2086.95435,0.00404
2084.89418,0.00433
2082.83401,0.00426
2080.77384,0.00332
2078.71367,0.00268
2076.65349,0.00275
2074.59332,0.00317
2072.53315,0.00402
2070.47298,0.00466
2068.41281,0.00444
2066.35263,0.00357
2064.29246,0.00260
2062.23229,0.00219
2060.17212,0.00229
2058.11194,0.00262
2056.05177,0.00328
2053.99160,0.00419
2051.93143,0.00474
2049.87126,0.00395
2047.81108,0.00236
2045.75091,0.00190
2043.69074,0.00246
2041.63057,0.00242
2039.57040,0.00233
2037.51022,0.00306
2035.45005,0.00293
2033.38988,0.00171
2031.32971,0.00140
2029.26954,0.00163
2027.20936,0.00095
2025.14919,0.00002
2023.08902,0.00041
2021.02885,0.00168
2018.96867,0.00232
2016.90850,0.00233
2014.84833,0.00215
2012.78816,0.00203
2010.72799,0.00189
2008.66781,0.00141
2006.60764,0.00108
2004.54747,0.00151
2002.48730,0.00318
2000.42713,0.00518
1998.36695,0.00528
1996.30678,0.00387
1994.24661,0.00336
1992.18644,0.00424
1990.12626,0.00449
1988.06609,0.00320
1986.00592,0.00175
1983.94575,0.00116
1981.88558,0.00110
1979.82540,0.00104
1977.76523,0.00125
1975.70506,0.00168
1973.64489,0.00159
1971.58472,0.00081
1969.52454,0.00000
1967.46437,0.00010
1965.40420,0.00108
1963.34403,0.00189
1961.28386,0.00189
1959.22368,0.00138
1957.16351,0.00095
1955.10334,0.00079
1953.04317,0.00055
1950.98299,0.00031
1948.92282,0.00079
1946.86265,0.00131
1944.80248,0.00075
1942.74231,-0.00013
1940.68213,-0.00008
1938.62196,0.00054
1936.56179,0.00074
1934.50162,0.00035
1932.44145,0.00010
1930.38127,0.00044
1928.32110,0.00085
1926.26093,0.00106
1924.20076,0.00130
1922.14059,0.00162
1920.08041,0.00167
1918.02024,0.00133
1915.96007,0.00111
1913.89990,0.00114
1911.83972,0.00104
1909.77955,0.00095
1907.71938,0.00128
1905.65921,0.00181
1903.59904,0.00206
1901.53886,0.00203
1899.47869,0.00192
1897.41852,0.00165
1895.35835,0.00120
1893.29818,0.00092
1891.23800,0.00090
1889.17783,0.00071
1887.11766,0.00048
1885.05749,0.00071
1882.99731,0.00133
1880.93714,0.00174
1878.87697,0.00166
1876.81680,0.00145
1874.75663,0.00140
1872.69645,0.00151
1870.63628,0.00165
1868.57611,0.00162
1866.51594,0.00135
1864.45577,0.00093
1862.39559,0.00068
1860.33542,0.00083
1858.27525,0.00123
1856.21508,0.00152
1854.15491,0.00152
1852.09473,0.00140
1850.03456,0.00136
1847.97439,0.00145
1845.91422,0.00158
1843.85404,0.00159
1841.79387,0.00146
1839.73370,0.00136
1837.67353,0.00148
1835.61336,0.00173
1833.55318,0.00173
1831.49301,0.00143
1829.43284,0.00131
1827.37267,0.00166
1825.31250,0.00199
1823.25232,0.00187
1821.19215,0.00146
1819.13198,0.00119
1817.07181,0.00127
1815.01163,0.00142
1812.95146,0.00130
1810.89129,0.00113
1808.83112,0.00128
1806.77095,0.00154
1804.71077,0.00151
1802.65060,0.00135
1800.59043,0.00134
1798.53026,0.00142
1796.47009,0.00143
1794.40991,0.00131
1792.34974,0.00118
1790.28957,0.00128
1788.22940,0.00155
1786.16923,0.00174
1784.10905,0.00174
1782.04888,0.00163
1779.98871,0.00151
1777.92854,0.00150
1775.86836,0.00158
1773.80819,0.00165
1771.74802,0.00173
1769.68785,0.00203
1767.62768,0.00240
1765.56750,0.00262
1763.50733,0.00264
1761.44716,0.00254
1759.38699,0.00259
1757.32682,0.00285
1755.26664,0.00304
1753.20647,0.00301
1751.14630,0.00306
1749.08613,0.00328
1747.02596,0.00342
1744.96578,0.00343
1742.90561,0.00343
1740.84544,0.00345
1738.78527,0.00348
1736.72509,0.00352
1734.66492,0.00357
1732.60475,0.00371
1730.54458,0.00401
1728.48441,0.00443
1726.42423,0.00475
1724.36406,0.00490
1722.30389,0.00490
1720.24372,0.00465
1718.18355,0.00431
1716.12337,0.00452
1714.06320,0.00526
1712.00303,0.00591
1709.94286,0.00624
1707.88268,0.00642
1705.82251,0.00671
1703.76234,0.00716
1701.70217,0.00767
1699.64200,0.00830
1697.58182,0.00889
1695.52165,0.00933
1693.46148,0.00967
1691.40131,0.00995
1689.34114,0.01017
1687.28096,0.01034
1685.22079,0.01066
1683.16062,0.01149
1681.10045,0.01242
1679.04028,0.01306
1676.98010,0.01349
1674.91993,0.01396
1672.85976,0.01454
1670.79959,0.01515
1668.73941,0.01583
1666.67924,0.01640
1664.61907,0.01686
1662.55890,0.01751
1660.49873,0.01824
1658.43855,0.01862
1656.37838,0.01863
1654.31821,0.01876
1652.25804,0.01924
1650.19787,0.01926
1648.13769,0.01898
1646.07752,0.01911
1644.01735,0.01938
1641.95718,0.01931
1639.89701,0.01900
1637.83683,0.01857
1635.77666,0.01815
1633.71649,0.01792
1631.65632,0.01772
1629.59614,0.01734
1627.53597,0.01694
1625.47580,0.01669
1623.41563,0.01652
1621.35546,0.01631
1619.29528,0.01598
1617.23511,0.01554
1615.17494,0.01510
1613.11477,0.01466
1611.05460,0.01429
1608.99442,0.01405
1606.93425,0.01376
1604.87408,0.01332
1602.81391,0.01292
1600.75373,0.01264
1598.69356,0.01237
1596.63339,0.01213
1594.57322,0.01195
1592.51305,0.01177
1590.45287,0.01152
1588.39270,0.01117
1586.33253,0.01080
1584.27236,0.01053
1582.21219,0.01031
1580.15201,0.01000
1578.09184,0.00965
1576.03167,0.00944
1573.97150,0.00941
1571.91133,0.00928
1569.85115,0.00909
1567.79098,0.00901
1565.73081,0.00896
1563.67064,0.00880
1561.61046,0.00858
1559.55029,0.00855
1557.49012,0.00891
1555.42995,0.00911
1553.36978,0.00908
1551.30960,0.00901
1549.24943,0.00884
1547.18926,0.00845
1545.12909,0.00793
1543.06892,0.00757
1541.00874,0.00750
1538.94857,0.00758
1536.88840,0.00746
1534.82823,0.00716
1532.76805,0.00698
1530.70788,0.00701
1528.64771,0.00699
1526.58754,0.00682
1524.52737,0.00666
1522.46719,0.00659
1520.40702,0.00649
1518.34685,0.00629
1516.28668,0.00605
1514.22651,0.00585
1512.16633,0.00557
1510.10616,0.00522
1508.04599,0.00492
1505.98582,0.00476
1503.92565,0.00476
1501.86547,0.00471
1499.80530,0.00437
1497.74513,0.00392
1495.68496,0.00369
1493.62478,0.00366
1491.56461,0.00355
1489.50444,0.00333
1487.44427,0.00325
1485.38410,0.00332
1483.32392,0.00336
1481.26375,0.00331
1479.20358,0.00323
1477.14341,0.00313
1475.08324,0.00310
1473.02306,0.00332
1470.96289,0.00364
1468.90272,0.00378
1466.84255,0.00381
1464.78238,0.00396
1462.72220,0.00414
1460.66203,0.00398
1458.60186,0.00359
1456.54169,0.00357
1454.48151,0.00391
1452.42134,0.00413
1450.36117,0.00412
1448.30100,0.00401
1446.24083,0.00390
1444.18065,0.00385
1442.12048,0.00385
1440.06031,0.00383
1438.00014,0.00379
1435.93997,0.00381
1433.87979,0.00387
1431.81962,0.00388
1429.75945,0.00394
1427.69928,0.00410
1425.63910,0.00422
1423.57893,0.00423
1421.51876,0.00423
1419.45859,0.00439
1417.39842,0.00464
1415.33824,0.00482
1413.27807,0.00483
1411.21790,0.00474
1409.15773,0.00463
1407.09756,0.00460
1405.03738,0.00465
1402.97721,0.00459
1400.91704,0.00433
1398.85687,0.00397
1396.79670,0.00369
1394.73652,0.00363
1392.67635,0.00371
1390.61618,0.00371
1388.55601,0.00363
1386.49583,0.00364
1384.43566,0.00368
1382.37549,0.00371
1380.31532,0.00379
1378.25515,0.00384
1376.19497,0.00375
1374.13480,0.00367
1372.07463,0.00365
1370.01446,0.00355
1367.95429,0.00339
1365.89411,0.00327
1363.83394,0.00321
1361.77377,0.00320
1359.71360,0.00316
1357.65343,0.00300
1355.59325,0.00277
1353.53308,0.00262
1351.47291,0.00254
1349.41274,0.00246
1347.35256,0.00235
1345.29239,0.00221
1343.23222,0.00214
1341.17205,0.00218
1339.11188,0.00228
1337.05170,0.00234
1334.99153,0.00239
1332.93136,0.00244
1330.87119,0.00246
1328.81102,0.00250
1326.75084,0.00256
1324.69067,0.00256
1322.63050,0.00250
1320.57033,0.00242
1318.51015,0.00236
1316.44998,0.00234
1314.38981,0.00233
1312.32964,0.00236
1310.26947,0.00250
1308.20929,0.00259
1306.14912,0.00251
1304.08895,0.00236
1302.02878,0.00230
1299.96861,0.00235
1297.90843,0.00241
1295.84826,0.00247
1293.78809,0.00259
1291.72792,0.00273
1289.66775,0.00277
1287.60757,0.00277
1285.54740,0.00289
1283.48723,0.00299
1281.42706,0.00302
1279.36688,0.00302
1277.30671,0.00296
1275.24654,0.00285
1273.18637,0.00286
1271.12620,0.00298
1269.06602,0.00305
1267.00585,0.00297
1264.94568,0.00290
1262.88551,0.00295
1260.82534,0.00307
1258.76516,0.00321
1256.70499,0.00329
1254.64482,0.00324
1252.58465,0.00320
1250.52447,0.00318
1248.46430,0.00315
1246.40413,0.00320
1244.34396,0.00330
1242.28379,0.00331
1240.22361,0.00324
1238.16344,0.00314
1236.10327,0.00304
1234.04310,0.00293
1231.98293,0.00280
1229.92275,0.00264
1227.86258,0.00250
1225.80241,0.00238
1223.74224,0.00225
1221.68207,0.00204
1219.62189,0.00177
1217.56172,0.00154
1215.50155,0.00134
1213.44138,0.00114
1211.38120,0.00090
1209.32103,0.00067
1207.26086,0.00052
1205.20069,0.00048
1203.14052,0.00057
1201.08034,0.00060
1199.02017,0.00047
1196.96000,0.00034
1194.89983,0.00023
1192.83966,0.00005
1190.77948,0.00000
1188.71931,0.00003
1186.65914,-0.00007
1184.59897,-0.00012
1182.53880,-0.00002
1180.47862,0.00008
1178.41845,0.00021
1176.35828,0.00042
1174.29811,0.00061
1172.23793,0.00086
1170.17776,0.00117
1168.11759,0.00142
1166.05742,0.00168
1163.99725,0.00193
1161.93707,0.00229
1159.87690,0.00279
1157.81673,0.00313
1155.75656,0.00334
1153.69639,0.00366
1151.63621,0.00411
1149.57604,0.00458
1147.51587,0.00507
1145.45570,0.00558
1143.39552,0.00610
1141.33535,0.00663
1139.27518,0.00722
1137.21501,0.00791
1135.15484,0.00864
1133.09466,0.00943
1131.03449,0.01025
1128.97432,0.01108
1126.91415,0.01209
1124.85398,0.01328
1122.79380,0.01464
1120.73363,0.01608
1118.67346,0.01741
1116.61329,0.01869
1114.55312,0.01997
1112.49294,0.02122
1110.43277,0.02248
1108.37260,0.02377
1106.31243,0.02503
1104.25225,0.02631
1102.19208,0.02758
1100.13191,0.02876
1098.07174,0.02995
1096.01157,0.03115
1093.95139,0.03220
1091.89122,0.03312
1089.83105,0.03398
1087.77088,0.03472
1085.71071,0.03542
1083.65053,0.03634
1081.59036,0.03744
1079.53019,0.03843
1077.47002,0.03910
1075.40985,0.03953
1073.34967,0.04001
1071.28950,0.04066
1069.22933,0.04136
1067.16916,0.04184
1065.10898,0.04204
1063.04881,0.04209
1060.98864,0.04197
1058.92847,0.04149
1056.86830,0.04081
1054.80812,0.04019
1052.74795,0.03959
1050.68778,0.03877
1048.62761,0.03756
1046.56744,0.03606
1044.50726,0.03444
1042.44709,0.03270
1040.38692,0.03092
1038.32675,0.02925
1036.26657,0.02781
1034.20640,0.02653
1032.14623,0.02526
1030.08606,0.02389
1028.02589,0.02250
1025.96571,0.02121
1023.90554,0.01998
1021.84537,0.01878
1019.78520,0.01790
1017.72503,0.01749
1015.66485,0.01714
1013.60468,0.01674
1011.54451,0.01658
1009.48434,0.01673
1007.42417,0.01717
1005.36399,0.01779
1003.30382,0.01845
1001.24365,0.01935
999.18348,0.02044
997.12330,0.02146
995.06313,0.02248
993.00296,0.02347
990.94279,0.02434
988.88262,0.02519
986.82244,0.02607
984.76227,0.02668
982.70210,0.02693
980.64193,0.02702
978.58176,0.02682
976.52158,0.02634
974.46141,0.02575
972.40124,0.02486
970.34107,0.02367
968.28089,0.02241
966.22072,0.02113
964.16055,0.01973
962.10038,0.01828
960.04021,0.01694
957.98003,0.01570
955.91986,0.01447
953.85969,0.01316
951.79952,0.01186
949.73935,0.01063
947.67917,0.00938
945.61900,0.00827
943.55883,0.00746
941.49866,0.00680
939.43849,0.00612
937.37831,0.00545
935.31814,0.00498
933.25797,0.00454
931.19780,0.00389
929.13762,0.00324
927.07745,0.00284
925.01728,0.00265
922.95711,0.00257
920.89694,0.00245
918.83676,0.00220
916.77659,0.00178
914.71642,0.00144
912.65625,0.00145
910.59608,0.00147
908.53590,0.00125
906.47573,0.00099
904.41556,0.00089
902.35539,0.00096
900.29522,0.00127
898.23504,0.00170
896.17487,0.00196
894.11470,0.00209
892.05453,0.00238
889.99435,0.00277
887.93418,0.00306
885.87401,0.00334
883.81384,0.00370
881.75367,0.00413
879.69349,0.00454
877.63332,0.00515
875.57315,0.00613
873.51298,0.00689
871.45281,0.00722
869.39263,0.00727
867.33246,0.00733
865.27229,0.00773
863.21212,0.00827
861.15194,0.00854
859.09177,0.00854
857.03160,0.00859
854.97143,0.00860
852.91126,0.00830
850.85108,0.00800
848.79091,0.00802
846.73074,0.00819
844.67057,0.00828
842.61040,0.00822
840.55022,0.00800
838.49005,0.00733
836.42988,0.00640
834.36971,0.00585
832.30954,0.00554
830.24936,0.00518
828.18919,0.00495
826.12902,0.00492
824.06885,0.00464
822.00867,0.00416
819.94850,0.00387
817.88833,0.00344
815.82816,0.00291
813.76799,0.00259
811.70781,0.00253
809.64764,0.00273
807.58747,0.00307
805.52730,0.00326
803.46713,0.00284
801.40695,0.00219
799.34678,0.00191
797.28661,0.00164
795.22644,0.00111
793.16627,0.00070
791.10609,0.00067
789.04592,0.00087
786.98575,0.00113
784.92558,0.00139
782.86540,0.00157
780.80523,0.00152
778.74506,0.00115
776.68489,0.00060
774.62472,0.00017
772.56454,0.00022
770.50437,0.00072
768.44420,0.00096
766.38403,0.00071
764.32386,0.00038
762.26368,0.00005
760.20351,0.00015
758.14334,0.00073
756.08317,0.00089
754.02299,0.00078
751.96282,0.00090
749.90265,0.00085
747.84248,0.00081
745.78231,0.00104
743.72213,0.00103
741.66196,0.00082
739.60179,0.00088
737.54162,0.00125
735.48145,0.00168
733.42127,0.00176
731.36110,0.00152
729.30093,0.00134
727.24076,0.00133
725.18059,0.00118
723.12041,0.00102
721.06024,0.00069
719.00007,0.00036
716.93990,0.00061
714.87972,0.00126
712.81955,0.00172
710.75938,0.00169
708.69921,0.00138
706.63904,0.00105
704.57886,0.00085
702.51869,0.00100
700.45852,0.00153
698.39835,0.00195
696.33818,0.00212
694.27800,0.00232
692.21783,0.00251
690.15766,0.00245
688.09749,0.00238
686.03731,0.00260
683.97714,0.00281
681.91697,0.00286
679.85680,0.00302
677.79663,0.00337
675.73645,0.00372
673.67628,0.00290
671.61611,0.00000
669.55594,0.00024
667.49577,0.00374
665.43559,0.00019
663.37542,0.00295
661.31525,0.00558
659.25508,0.00561
657.19491,0.00457
655.13473,0.00422
653.07456,0.00433
651.01439,0.00388
648.95422,0.00364
646.89404,0.00384
644.83387,0.00359
642.77370,0.00317
640.71353,0.00373
638.65336,0.00391
636.59318,0.00244
634.53301,0.00111
632.47284,0.00128
630.41267,0.00188
628.35250,0.00186
626.29232,0.00106
624.23215,0.00024
622.17198,0.00000
620.11181,-0.00005
618.05164,0.00111
615.99146,0.00229
613.93129,0.00127
611.87112,0.00004
609.81095,0.00084
607.75077,0.00170
605.69060,0.00038
603.63043,-0.00079
601.57026,-0.00003
599.51009,0.00000
