3996.73391,0.00042
3994.67373,0.00024
3992.61356,0.00008
3990.55339,0.00021
3988.49322,0.00048
3986.43305,0.00051
3984.37287,0.00035
3982.31270,0.00037
3980.25253,0.00067
3978.19236,0.00096
3976.13219,0.00095
3974.07201,0.00069
3972.01184,0.00045
3969.95167,0.00041
3967.89150,0.00064
3965.83133,0.00092
3963.77115,0.00094
3961.71098,0.00071
3959.65081,0.00056
3957.59064,0.00071
3955.53046,0.00094
3953.47029,0.00091
3951.41012,0.00056
3949.34995,0.00012
3947.28978,0.00000
3945.22960,0.00014
3943.16943,0.00025
3941.10926,0.00040
3939.04909,0.00063
3936.98892,0.00073
3934.92874,0.00068
3932.86857,0.00070
3930.80840,0.00090
3928.74823,0.00110
3926.68805,0.00130
3924.62788,0.00157
3922.56771,0.00154
3920.50754,0.00115
3918.44737,0.00073
3916.38719,0.00071
3914.32702,0.00096
3912.26685,0.00107
3910.20668,0.00094
3908.14651,0.00077
3906.08633,0.00071
3904.02616,0.00065
3901.96599,0.00057
3899.90582,0.00070
3897.84565,0.00087
3895.78547,0.00074
3893.72530,0.00049
3891.66513,0.00041
3889.60496,0.00040
3887.54478,0.00028
3885.48461,0.00020
3883.42444,0.00018
3881.36427,0.00031
3879.30410,0.00061
3877.24392,0.00072
3875.18375,0.00050
3873.12358,0.00021
3871.06341,0.00009
3869.00324,0.00011
3866.94306,0.00014
3864.88289,0.00026
3862.82272,0.00047
3860.76255,0.00054
3858.70237,0.00039
3856.64220,0.00004
3854.58203,0.00000
3852.52186,0.00064
3850.46169,0.00127
3848.40151,0.00124
3846.34134,0.00094
3844.28117,0.00074
3842.22100,0.00066
3840.16083,0.00057
3838.10065,0.00037
3836.04048,0.00033
3833.98031,0.00076
3831.92014,0.00135
3829.85997,0.00152
3827.79979,0.00126
3825.73962,0.00102
3823.67945,0.00101
3821.61928,0.00123
3819.55910,0.00145
3817.49893,0.00150
3815.43876,0.00155
3813.37859,0.00157
3811.31842,0.00145
3809.25824,0.00154
3807.19807,0.00195
3805.13790,0.00223
3803.07773,0.00239
3801.01756,0.00269
3798.95738,0.00281
3796.89721,0.00254
3794.83704,0.00227
3792.77687,0.00226
3790.71670,0.00224
3788.65652,0.00202
3786.59635,0.00192
3784.53618,0.00211
3782.47601,0.00232
3780.41583,0.00238
3778.35566,0.00235
3776.29549,0.00226
3774.23532,0.00207
3772.17515,0.00186
3770.11497,0.00184
3768.05480,0.00205
3765.99463,0.00216
3763.93446,0.00198
3761.87429,0.00178
3759.81411,0.00176
3757.75394,0.00166
3755.69377,0.00125
3753.63360,0.00070
3751.57342,0.00032
3749.51325,0.00023
3747.45308,0.00022
3745.39291,0.00000
3743.33274,0.00003
3741.27256,0.00031
3739.21239,0.00033
3737.15222,0.00032
3735.09205,0.00059
3733.03188,0.00116
3730.97170,0.00169
3728.91153,0.00192
3726.85136,0.00190
3724.79119,0.00171
3722.73102,0.00161
3720.67084,0.00186
3718.61067,0.00205
3716.55050,0.00177
3714.49033,0.00147
3712.43015,0.00173
3710.36998,0.00224
3708.30981,0.00257
3706.24964,0.00279
3704.18947,0.00284
3702.12929,0.00262
3700.06912,0.00228
3698.00895,0.00212
3695.94878,0.00227
3693.88861,0.00264
3691.82843,0.00287
3689.76826,0.00264
3687.70809,0.00219
3685.64792,0.00206
3683.58775,0.00229
3681.52757,0.00269
3679.46740,0.00290
3677.40723,0.00281
3675.34706,0.00263
3673.28688,0.00245
3671.22671,0.00226
3669.16654,0.00223
3667.10637,0.00230
3665.04620,0.00245
3662.98602,0.00275
3660.92585,0.00306
3658.86568,0.00316
3656.80551,0.00304
3654.74534,0.00286
3652.68516,0.00279
3650.62499,0.00307
3648.56482,0.00360
3646.50465,0.00391
3644.44447,0.00382
3642.38430,0.00369
3640.32413,0.00366
3638.26396,0.00360
3636.20379,0.00347
3634.14361,0.00333
3632.08344,0.00331
3630.02327,0.00363
3627.96310,0.00434
3625.90293,0.00488
3623.84275,0.00476
3621.78258,0.00435
3619.72241,0.00426
3617.66224,0.00448
3615.60207,0.00469
3613.54189,0.00490
3611.48172,0.00510
3609.42155,0.00523
3607.36138,0.00539
3605.30120,0.00556
3603.24103,0.00569
3601.18086,0.00583
3599.12069,0.00604
3597.06052,0.00632
3595.00034,0.00655
3592.94017,0.00644
3590.88000,0.00601
3588.81983,0.00584
3586.75966,0.00636
3584.69948,0.00703
3582.63931,0.00727
3580.57914,0.00734
3578.51897,0.00753
3576.45879,0.00776
3574.39862,0.00801
3572.33845,0.00832
3570.27828,0.00848
3568.21811,0.00824
3566.15793,0.00797
3564.09776,0.00824
3562.03759,0.00871
3559.97742,0.00905
3557.91725,0.00921
3555.85707,0.00919
3553.79690,0.00922
3551.73673,0.00948
3549.67656,0.00961
3547.61639,0.00945
3545.55621,0.00957
3543.49604,0.01018
3541.43587,0.01075
3539.37570,0.01093
3537.31552,0.01087
3535.25535,0.01085
3533.19518,0.01099
3531.13501,0.01122
3529.07484,0.01136
3527.01466,0.01139
3524.95449,0.01154
3522.89432,0.01179
3520.83415,0.01189
3518.77398,0.01190
3516.71380,0.01206
3514.65363,0.01236
3512.59346,0.01259
3510.53329,0.01263
3508.47312,0.01264
3506.41294,0.01277
3504.35277,0.01291
3502.29260,0.01301
3500.23243,0.01322
3498.17225,0.01342
3496.11208,0.01345
3494.05191,0.01354
3491.99174,0.01383
3489.93157,0.01403
3487.87139,0.01410
3485.81122,0.01423
3483.75105,0.01445
3481.69088,0.01481
3479.63071,0.01519
3477.57053,0.01529
3475.51036,0.01518
3473.45019,0.01517
3471.39002,0.01526
3469.32984,0.01537
3467.26967,0.01557
3465.20950,0.01579
3463.14933,0.01590
3461.08916,0.01604
3459.02898,0.01627
3456.96881,0.01639
3454.90864,0.01640
3452.84847,0.01647
3450.78830,0.01657
3448.72812,0.01671
3446.66795,0.01684
3444.60778,0.01680
3442.54761,0.01671
3440.48744,0.01685
3438.42726,0.01711
3436.36709,0.01725
3434.30692,0.01726
3432.24675,0.01728
3430.18657,0.01751
3428.12640,0.01791
3426.06623,0.01815
3424.00606,0.01811
3421.94589,0.01796
3419.88571,0.01794
3417.82554,0.01813
3415.76537,0.01839
3413.70520,0.01859
3411.64503,0.01872
3409.58485,0.01881
3407.52468,0.01891
3405.46451,0.01903
3403.40434,0.01911
3401.34416,0.01920
3399.28399,0.01896
3397.22382,0.01897
3395.16365,0.01889
3393.10348,0.01867
3391.04330,0.01864
3388.98313,0.01893
3386.92296,0.01919
3384.86279,0.01926
3382.80262,0.01928
3380.74244,0.01938
3378.68227,0.01959
3376.62210,0.01964
3374.56193,0.01947
3372.50176,0.01951
3370.44158,0.01977
3368.38141,0.01983
3366.32124,0.01981
3364.26107,0.01999
3362.20089,0.02013
3360.14072,0.02024
3358.08055,0.02049
3356.02038,0.02063
3353.96021,0.02054
3351.90003,0.02050
3349.83986,0.02044
3347.77969,0.02037
3345.71952,0.02043
3343.65935,0.02056
3341.59917,0.02074
3339.53900,0.02083
3337.47883,0.02067
3335.41866,0.02056
3333.35849,0.02069
3331.29831,0.02076
3329.23814,0.02061
3327.17797,0.02043
3325.11780,0.02048
3323.05762,0.02077
3320.99745,0.02095
3318.93728,0.02101
3316.87711,0.02120
3314.81694,0.02135
3312.75676,0.02120
3310.69659,0.02104
3308.63642,0.02115
3306.57625,0.02127
3304.51608,0.02126
3302.45590,0.02123
3300.39573,0.02122
3298.33556,0.02122
3296.27539,0.02126
3294.21521,0.02129
3292.15504,0.02133
3290.09487,0.02148
3288.03470,0.02160
3285.97453,0.02162
3283.91435,0.02162
3281.85418,0.02164
3279.79401,0.02164
3277.73384,0.02161
3275.67367,0.02160
3273.61349,0.02168
3271.55332,0.02178
3269.49315,0.02180
3267.43298,0.02175
3265.37281,0.02163
3263.31263,0.02152
3261.25246,0.02151
3259.19229,0.02160
3257.13212,0.02170
3255.07194,0.02157
3253.01177,0.02134
3250.95160,0.02136
3248.89143,0.02154
3246.83126,0.02174
3244.77108,0.02180
3242.71091,0.02161
3240.65074,0.02143
3238.59057,0.02141
3236.53040,0.02146
3234.47022,0.02151
3232.41005,0.02156
3230.34988,0.02168
3228.28971,0.02165
3226.22954,0.02135
3224.16936,0.02109
3222.10919,0.02099
3220.04902,0.02099
3217.98885,0.02111
3215.92867,0.02122
3213.86850,0.02117
3211.80833,0.02105
3209.74816,0.02094
3207.68799,0.02084
3205.62781,0.02090
3203.56764,0.02123
3201.50747,0.02147
3199.44730,0.02139
3197.38713,0.02127
3195.32695,0.02130
3193.26678,0.02121
3191.20661,0.02096
3189.14644,0.02087
3187.08626,0.02095
3185.02609,0.02092
3182.96592,0.02083
3180.90575,0.02075
3178.84558,0.02061
3176.78540,0.02037
3174.72523,0.02014
3172.66506,0.02013
3170.60489,0.02027
3168.54472,0.02039
3166.48454,0.02034
3164.42437,0.02025
3162.36420,0.02031
3160.30403,0.02041
3158.24386,0.02040
3156.18368,0.02034
3154.12351,0.02023
3152.06334,0.02005
3150.00317,0.01991
3147.94299,0.01989
3145.88282,0.01996
3143.82265,0.01996
3141.76248,0.01976
3139.70231,0.01955
3137.64213,0.01958
3135.58196,0.01979
3133.52179,0.01999
3131.46162,0.02007
3129.40145,0.01991
3127.34127,0.01966
3125.28110,0.01950
3123.22093,0.01929
3121.16076,0.01909
3119.10058,0.01897
3117.04041,0.01876
3114.98024,0.01863
3112.92007,0.01882
3110.85990,0.01902
3108.79972,0.01895
3106.73955,0.01884
3104.67938,0.01886
3102.61921,0.01890
3100.55904,0.01884
3098.49886,0.01871
3096.43869,0.01859
3094.37852,0.01858
3092.31835,0.01865
3090.25818,0.01866
3088.19800,0.01852
3086.13783,0.01833
3084.07766,0.01829
3082.01749,0.01835
3079.95731,0.01839
3077.89714,0.01834
3075.83697,0.01828
3073.77680,0.01828
3071.71663,0.01831
3069.65645,0.01829
3067.59628,0.01816
3065.53611,0.01792
3063.47594,0.01771
3061.41577,0.01760
3059.35559,0.01755
3057.29542,0.01758
3055.23525,0.01761
3053.17508,0.01755
3051.11491,0.01747
3049.05473,0.01738
3046.99456,0.01724
3044.93439,0.01709
3042.87422,0.01705
3040.81404,0.01713
3038.75387,0.01710
3036.69370,0.01679
3034.63353,0.01642
3032.57336,0.01624
3030.51318,0.01622
3028.45301,0.01622
3026.39284,0.01620
3024.33267,0.01617
3022.27250,0.01610
3020.21232,0.01596
3018.15215,0.01587
3016.09198,0.01582
3014.03181,0.01570
3011.97163,0.01560
3009.91146,0.01567
3007.85129,0.01577
3005.79112,0.01578
3003.73095,0.01571
3001.67077,0.01562
2999.61060,0.01563
2997.55043,0.01571
2995.49026,0.01563
2993.43009,0.01536
2991.36991,0.01517
2989.30974,0.01512
2987.24957,0.01508
2985.18940,0.01507
2983.12923,0.01518
2981.06905,0.01535
2979.00888,0.01541
2976.94871,0.01532
2974.88854,0.01521
2972.82836,0.01517
2970.76819,0.01523
2968.70802,0.01536
2966.64785,0.01541
2964.58768,0.01535
2962.52750,0.01536
2960.46733,0.01544
2958.40716,0.01538
2956.34699,0.01530
2954.28682,0.01533
2952.22664,0.01547
2950.16647,0.01561
2948.10630,0.01558
2946.04613,0.01547
2943.98596,0.01538
2941.92578,0.01527
2939.86561,0.01517
2937.80544,0.01510
2935.74527,0.01513
2933.68509,0.01531
2931.62492,0.01552
2929.56475,0.01555
2927.50458,0.01535
2925.44441,0.01516
2923.38423,0.01510
2921.32406,0.01501
2919.26389,0.01483
2917.20372,0.01467
2915.14355,0.01462
2913.08337,0.01471
2911.02320,0.01481
2908.96303,0.01476
2906.90286,0.01466
2904.84268,0.01460
2902.78251,0.01453
2900.72234,0.01451
2898.66217,0.01440
2896.60200,0.01421
2894.54182,0.01418
2892.48165,0.01419
2890.42148,0.01405
2888.36131,0.01394
2886.30114,0.01400
2884.24096,0.01422
2882.18079,0.01443
2880.12062,0.01448
2878.06045,0.01435
2876.00028,0.01420
2873.94010,0.01416
2871.87993,0.01406
2869.81976,0.01386
2867.75959,0.01371
2865.69941,0.01359
2863.63924,0.01356
2861.57907,0.01353
2859.51890,0.01341
2857.45873,0.01329
2855.39855,0.01324
2853.33838,0.01320
2851.27821,0.01311
2849.21804,0.01298
2847.15787,0.01281
2845.09769,0.01274
2843.03752,0.01273
2840.97735,0.01264
2838.91718,0.01254
2836.85700,0.01257
2834.79683,0.01260
2832.73666,0.01252
2830.67649,0.01239
2828.61632,0.01228
2826.55614,0.01216
2824.49597,0.01201
2822.43580,0.01184
2820.37563,0.01179
2818.31546,0.01187
2816.25528,0.01188
2814.19511,0.01185
2812.13494,0.01188
2810.07477,0.01185
2808.01460,0.01173
2805.95442,0.01168
2803.89425,0.01174
2801.83408,0.01172
2799.77391,0.01150
2797.71373,0.01127
2795.65356,0.01125
2793.59339,0.01141
2791.53322,0.01150
2789.47305,0.01144
2787.41287,0.01122
2785.35270,0.01101
2783.29253,0.01098
2781.23236,0.01092
2779.17219,0.01079
2777.11201,0.01076
2775.05184,0.01075
2772.99167,0.01066
2770.93150,0.01062
2768.87133,0.01059
2766.81115,0.01055
2764.75098,0.01064
2762.69081,0.01064
2760.63064,0.01045
2758.57046,0.01032
2756.51029,0.01033
2754.45012,0.01035
2752.38995,0.01036
2750.32978,0.01040
2748.26960,0.01037
2746.20943,0.01024
2744.14926,0.01005
2742.08909,0.00993
2740.02892,0.00991
2737.96874,0.00984
2735.90857,0.00973
2733.84840,0.00979
2731.78823,0.00996
2729.72805,0.00993
2727.66788,0.00973
2725.60771,0.00965
2723.54754,0.00971
2721.48737,0.00966
2719.42719,0.00950
2717.36702,0.00944
2715.30685,0.00949
2713.24668,0.00944
2711.18651,0.00925
2709.12633,0.00907
2707.06616,0.00908
2705.00599,0.00922
2702.94582,0.00932
2700.88565,0.00939
2698.82547,0.00930
2696.76530,0.00912
2694.70513,0.00904
2692.64496,0.00900
2690.58478,0.00894
2688.52461,0.00890
2686.46444,0.00888
2684.40427,0.00893
2682.34410,0.00894
2680.28392,0.00887
2678.22375,0.00879
2676.16358,0.00869
2674.10341,0.00861
2672.04324,0.00853
2669.98306,0.00842
2667.92289,0.00832
2665.86272,0.00837
2663.80255,0.00857
2661.74238,0.00868
2659.68220,0.00851
2657.62203,0.00829
2655.56186,0.00824
2653.50169,0.00831
2651.44151,0.00844
2649.38134,0.00845
2647.32117,0.00829
2645.26100,0.00819
2643.20083,0.00824
2641.14065,0.00828
2639.08048,0.00820
2637.02031,0.00801
2634.96014,0.00792
2632.89997,0.00793
2630.83979,0.00781
2628.77962,0.00768
2626.71945,0.00770
2624.65928,0.00770
2622.59910,0.00757
2620.53893,0.00744
2618.47876,0.00734
2616.41859,0.00725
2614.35842,0.00716
2612.29824,0.00699
2610.23807,0.00685
2608.17790,0.00686
2606.11773,0.00688
2604.05756,0.00692
2601.99738,0.00699
2599.93721,0.00699
2597.87704,0.00706
2595.81687,0.00712
2593.75670,0.00700
2591.69652,0.00683
2589.63635,0.00678
2587.57618,0.00682
2585.51601,0.00679
2583.45583,0.00667
2581.39566,0.00659
2579.33549,0.00655
2577.27532,0.00654
2575.21515,0.00654
2573.15497,0.00655
2571.09480,0.00663
2569.03463,0.00678
2566.97446,0.00682
2564.91429,0.00678
2562.85411,0.00675
2560.79394,0.00659
2558.73377,0.00634
2556.67360,0.00624
2554.61342,0.00625
2552.55325,0.00624
2550.49308,0.00631
2548.43291,0.00654
2546.37274,0.00668
2544.31256,0.00654
2542.25239,0.00632
2540.19222,0.00617
2538.13205,0.00607
2536.07188,0.00598
2534.01170,0.00606
2531.95153,0.00627
2529.89136,0.00641
2527.83119,0.00652
2525.77102,0.00648
2523.71084,0.00642
2521.65067,0.00656
2519.59050,0.00661
2517.53033,0.00651
2515.47015,0.00653
2513.40998,0.00668
2511.34981,0.00672
2509.28964,0.00659
2507.22947,0.00641
2505.16929,0.00635
2503.10912,0.00650
2501.04895,0.00675
2498.98878,0.00680
2496.92861,0.00675
2494.86843,0.00681
2492.80826,0.00688
2490.74809,0.00686
2488.68792,0.00684
2486.62775,0.00679
2484.56757,0.00661
2482.50740,0.00649
2480.44723,0.00656
2478.38706,0.00668
2476.32688,0.00675
2474.26671,0.00677
2472.20654,0.00680
2470.14637,0.00697
2468.08620,0.00711
2466.02602,0.00702
2463.96585,0.00690
2461.90568,0.00699
2459.84551,0.00711
2457.78534,0.00718
2455.72516,0.00725
2453.66499,0.00718
2451.60482,0.00690
2449.54465,0.00666
2447.48447,0.00674
2445.42430,0.00692
2443.36413,0.00692
2441.30396,0.00683
2439.24379,0.00676
2437.18361,0.00671
2435.12344,0.00675
2433.06327,0.00676
2431.00310,0.00656
2428.94293,0.00640
2426.88275,0.00664
2424.82258,0.00694
2422.76241,0.00692
2420.70224,0.00690
2418.64207,0.00693
2416.58189,0.00679
2414.52172,0.00677
2412.46155,0.00696
2410.40138,0.00710
2408.34120,0.00692
2406.28103,0.00651
2404.22086,0.00622
2402.16069,0.00626
2400.10052,0.00652
2398.04034,0.00668
2395.98017,0.00660
2393.92000,0.00650
2391.85983,0.00645
2389.79966,0.00632
2387.73948,0.00607
2385.67931,0.00583
2383.61914,0.00562
2381.55897,0.00540
2379.49880,0.00523
2377.43862,0.00524
2375.37845,0.00555
2373.31828,0.00592
2371.25811,0.00595
2369.19793,0.00569
2367.13776,0.00581
2365.07759,0.00660
2363.01742,0.00735
2360.95725,0.00765
2358.89707,0.00780
2356.83690,0.00765
2354.77673,0.00726
2352.71656,0.00686
2350.65639,0.00648
2348.59621,0.00624
2346.53604,0.00629
2344.47587,0.00651
2342.41570,0.00676
2340.35552,0.00697
2338.29535,0.00717
2336.23518,0.00713
2334.17501,0.00673
2332.11484,0.00633
2330.05466,0.00615
2327.99449,0.00615
2325.93432,0.00616
2323.87415,0.00595
2321.81398,0.00559
2319.75380,0.00540
2317.69363,0.00534
2315.63346,0.00523
2313.57329,0.00512
2311.51312,0.00518
2309.45294,0.00538
2307.39277,0.00553
2305.33260,0.00564
2303.27243,0.00579
2301.21225,0.00590
2299.15208,0.00590
2297.09191,0.00581
2295.03174,0.00575
2292.97157,0.00593
2290.91139,0.00639
2288.85122,0.00668
2286.79105,0.00646
2284.73088,0.00595
2282.67071,0.00565
2280.61053,0.00565
2278.55036,0.00561
2276.49019,0.00548
2274.43002,0.00558
2272.36984,0.00585
2270.30967,0.00602
2268.24950,0.00613
2266.18933,0.00614
2264.12916,0.00588
2262.06898,0.00557
2260.00881,0.00536
2257.94864,0.00508
2255.88847,0.00489
2253.82830,0.00519
2251.76812,0.00574
2249.70795,0.00599
2247.64778,0.00567
2245.58761,0.00506
2243.52744,0.00456
2241.46726,0.00458
2239.40709,0.00486
2237.34692,0.00475
2235.28675,0.00453
2233.22657,0.00479
2231.16640,0.00516
2229.10623,0.00520
2227.04606,0.00524
2224.98589,0.00535
2222.92571,0.00526
2220.86554,0.00482
2218.80537,0.00415
2216.74520,0.00384
2214.68503,0.00404
2212.62485,0.00399
2210.56468,0.00361
2208.50451,0.00362
2206.44434,0.00379
2204.38417,0.00334
2202.32399,0.00285
2200.26382,0.00324
2198.20365,0.00404
2196.14348,0.00452
2194.08330,0.00449
2192.02313,0.00379
2189.96296,0.00274
2187.90279,0.00215
2185.84262,0.00206
2183.78244,0.00229
2181.72227,0.00313
2179.66210,0.00413
2177.60193,0.00421
2175.54176,0.00333
2173.48158,0.00275
2171.42141,0.00275
2169.36124,0.00272
2167.30107,0.00286
2165.24089,0.00337
2163.18072,0.00357
2161.12055,0.00300
2159.06038,0.00203
2157.00021,0.00087
2154.94003,0.00019
2152.87986,0.00031
2150.81969,0.00027
2148.75952,0.00000
2146.69935,0.00043
2144.63917,0.00111
2142.57900,0.00146
2140.51883,0.00202
2138.45866,0.00249
2136.39849,0.00207
2134.33831,0.00124
2132.27814,0.00115
2130.21797,0.00178
2128.15780,0.00230
2126.09762,0.00264
2124.03745,0.00294
2121.97728,0.00307
2119.91711,0.00314
2117.85694,0.00329
2115.79676,0.00360
2113.73659,0.00388
2111.67642,0.00379
2109.61625,0.00337
2107.55608,0.00282
2105.49590,0.00242
2103.43573,0.00248
2101.37556,0.00265
2099.31539,0.00249
2097.25521,0.00221
2095.19504,0.00214
2093.13487,0.00213
2091.07470,0.00222
2089.01453,0.00269
2086.95435,0.00327
2084.89418,0.00345
2082.83401,0.00327
2080.77384,0.00305
2078.71367,0.00298
2076.65349,0.00289
2074.59332,0.00262
2072.53315,0.00245
2070.47298,0.00253
2068.41281,0.00270
2066.35263,0.00258
2064.29246,0.00185
2062.23229,0.00113
2060.17212,0.00124
2058.11194,0.00174
2056.05177,0.00208
2053.99160,0.00234
2051.93143,0.00259
2049.87126,0.00319
2047.81108,0.00406
2045.75091,0.00407
2043.69074,0.00297
2041.63057,0.00228
2039.57040,0.00284
2037.51022,0.00336
2035.45005,0.00275
2033.38988,0.00145
2031.32971,0.00064
2029.26954,0.00098
2027.20936,0.00174
2025.14919,0.00193
2023.08902,0.00143
2021.02885,0.00072
2018.96867,0.00027
2016.90850,0.00024
2014.84833,0.00089
2012.78816,0.00196
2010.72799,0.00226
2008.66781,0.00170
2006.60764,0.00148
2004.54747,0.00157
2002.48730,0.00133
2000.42713,0.00126
1998.36695,0.00167
1996.30678,0.00200
1994.24661,0.00183
1992.18644,0.00161
1990.12626,0.00168
1988.06609,0.00176
1986.00592,0.00205
1983.94575,0.00277
1981.88558,0.00340
1979.82540,0.00326
1977.76523,0.00246
1975.70506,0.00183
1973.64489,0.00151
1971.58472,0.00122
1969.52454,0.00143
1967.46437,0.00215
1965.40420,0.00217
1963.34403,0.00125
1961.28386,0.00070
1959.22368,0.00091
1957.16351,0.00100
1955.10334,0.00072
1953.04317,0.00079
1950.98299,0.00147
1948.92282,0.00176
1946.86265,0.00137
1944.80248,0.00137
1942.74231,0.00176
1940.68213,0.00147
1938.62196,0.00070
1936.56179,0.00042
1934.50162,0.00080
1932.44145,0.00124
1930.38127,0.00145
1928.32110,0.00156
1926.26093,0.00168
1924.20076,0.00177
1922.14059,0.00159
1920.08041,0.00117
1918.02024,0.00105
1915.96007,0.00128
1913.89990,0.00149
1911.83972,0.00146
1909.77955,0.00120
1907.71938,0.00105
1905.65921,0.00125
1903.59904,0.00152
1901.53886,0.00158
1899.47869,0.00155
1897.41852,0.00162
1895.35835,0.00179
1893.29818,0.00190
1891.23800,0.00185
1889.17783,0.00167
1887.11766,0.00154
1885.05749,0.00164
1882.99731,0.00187
1880.93714,0.00200
1878.87697,0.00200
1876.81680,0.00192
1874.75663,0.00170
1872.69645,0.00138
1870.63628,0.00110
1868.57611,0.00109
1866.51594,0.00136
1864.45577,0.00164
1862.39559,0.00171
1860.33542,0.00165
1858.27525,0.00159
1856.21508,0.00156
1854.15491,0.00159
1852.09473,0.00162
1850.03456,0.00153
1847.97439,0.00140
1845.91422,0.00141
1843.85404,0.00155
1841.79387,0.00173
1839.73370,0.00192
1837.67353,0.00201
1835.61336,0.00187
1833.55318,0.00172
1831.49301,0.00184
1829.43284,0.00203
1827.37267,0.00197
1825.31250,0.00180
1823.25232,0.00173
1821.19215,0.00181
1819.13198,0.00187
1817.07181,0.00177
1815.01163,0.00158
1812.95146,0.00149
1810.89129,0.00155
1808.83112,0.00168
1806.77095,0.00176
1804.71077,0.00175
1802.65060,0.00167
1800.59043,0.00162
1798.53026,0.00153
1796.47009,0.00138
1794.40991,0.00140
1792.34974,0.00155
1790.28957,0.00163
1788.22940,0.00172
1786.16923,0.00186
1784.10905,0.00190
1782.04888,0.00189
1779.98871,0.00196
1777.92854,0.00197
1775.86836,0.00192
1773.80819,0.00207
1771.74802,0.00226
1769.68785,0.00208
1767.62768,0.00182
1765.56750,0.00187
1763.50733,0.00208
1761.44716,0.00218
1759.38699,0.00210
1757.32682,0.00207
1755.26664,0.00223
1753.20647,0.00240
1751.14630,0.00255
1749.08613,0.00279
1747.02596,0.00299
1744.96578,0.00306
1742.90561,0.00307
1740.84544,0.00307
1738.78527,0.00304
1736.72509,0.00304
1734.66492,0.00322
1732.60475,0.00351
1730.54458,0.00360
1728.48441,0.00339
1726.42423,0.00312
1724.36406,0.00294
1722.30389,0.00286
1720.24372,0.00295
1718.18355,0.00310
1716.12337,0.00301
1714.06320,0.00287
1712.00303,0.00280
1709.94286,0.00290
1707.88268,0.00309
1705.82251,0.00311
1703.76234,0.00294
1701.70217,0.00311
1699.64200,0.00376
1697.58182,0.00438
1695.52165,0.00465
1693.46148,0.00475
1691.40131,0.00486
1689.34114,0.00515
1687.28096,0.00573
1685.22079,0.00672
1683.16062,0.00763
1681.10045,0.00789
1679.04028,0.00796
1676.98010,0.00823
1674.91993,0.00863
1672.85976,0.00907
1670.79959,0.00961
1668.73941,0.01019
1666.67924,0.01052
1664.61907,0.01074
1662.55890,0.01098
1660.49873,0.01106
1658.43855,0.01104
1656.37838,0.01114
1654.31821,0.01148
1652.25804,0.01175
1650.19787,0.01171
1648.13769,0.01171
1646.07752,0.01176
1644.01735,0.01142
1641.95718,0.01097
1639.89701,0.01077
1637.83683,0.01081
1635.77666,0.01092
1633.71649,0.01084
1631.65632,0.01054
1629.59614,0.01032
1627.53597,0.01019
1625.47580,0.00996
1623.41563,0.00968
1621.35546,0.00945
1619.29528,0.00941
1617.23511,0.00957
1615.17494,0.00955
1613.11477,0.00928
1611.05460,0.00909
1608.99442,0.00905
1606.93425,0.00897
1604.87408,0.00880
1602.81391,0.00861
1600.75373,0.00840
1598.69356,0.00818
1596.63339,0.00795
1594.57322,0.00773
1592.51305,0.00749
1590.45287,0.00723
1588.39270,0.00701
1586.33253,0.00685
1584.27236,0.00664
1582.21219,0.00637
1580.15201,0.00623
1578.09184,0.00627
1576.03167,0.00617
1573.97150,0.00570
1571.91133,0.00533
1569.85115,0.00531
1567.79098,0.00521
1565.73081,0.00486
1563.67064,0.00455
1561.61046,0.00461
1559.55029,0.00501
1557.49012,0.00507
1555.42995,0.00466
1553.36978,0.00420
1551.30960,0.00390
1549.24943,0.00374
1547.18926,0.00358
1545.12909,0.00345
1543.06892,0.00370
1541.00874,0.00447
1538.94857,0.00460
1536.88840,0.00373
1534.82823,0.00297
1532.76805,0.00278
1530.70788,0.00274
1528.64771,0.00265
1526.58754,0.00251
1524.52737,0.00235
1522.46719,0.00218
1520.40702,0.00192
1518.34685,0.00170
1516.28668,0.00159
1514.22651,0.00140
1512.16633,0.00111
1510.10616,0.00099
1508.04599,0.00135
1505.98582,0.00190
1503.92565,0.00181
1501.86547,0.00136
1499.80530,0.00123
1497.74513,0.00145
1495.68496,0.00165
1493.62478,0.00166
1491.56461,0.00166
1489.50444,0.00166
1487.44427,0.00162
1485.38410,0.00158
1483.32392,0.00159
1481.26375,0.00161
1479.20358,0.00163
1477.14341,0.00171
1475.08324,0.00197
1473.02306,0.00236
1470.96289,0.00252
1468.90272,0.00243
1466.84255,0.00244
1464.78238,0.00264
1462.72220,0.00280
1460.66203,0.00289
1458.60186,0.00298
1456.54169,0.00294
1454.48151,0.00288
1452.42134,0.00283
1450.36117,0.00293
1448.30100,0.00316
1446.24083,0.00339
1444.18065,0.00351
1442.12048,0.00349
1440.06031,0.00346
1438.00014,0.00346
1435.93997,0.00342
1433.87979,0.00340
1431.81962,0.00349
1429.75945,0.00368
1427.69928,0.00378
1425.63910,0.00385
1423.57893,0.00393
1421.51876,0.00396
1419.45859,0.00393
1417.39842,0.00395
1415.33824,0.00403
1413.27807,0.00416
1411.21790,0.00430
1409.15773,0.00441
1407.09756,0.00446
1405.03738,0.00447
1402.97721,0.00441
1400.91704,0.00430
1398.85687,0.00415
1396.79670,0.00403
1394.73652,0.00403
1392.67635,0.00408
1390.61618,0.00405
1388.55601,0.00404
1386.49583,0.00417
1384.43566,0.00434
1382.37549,0.00438
1380.31532,0.00431
1378.25515,0.00423
1376.19497,0.00422
1374.13480,0.00422
1372.07463,0.00419
1370.01446,0.00417
1367.95429,0.00413
1365.89411,0.00399
1363.83394,0.00376
1361.77377,0.00359
1359.71360,0.00360
1357.65343,0.00364
1355.59325,0.00367
1353.53308,0.00369
1351.47291,0.00365
1349.41274,0.00354
1347.35256,0.00343
1345.29239,0.00335
1343.23222,0.00322
1341.17205,0.00295
1339.11188,0.00262
1337.05170,0.00253
1334.99153,0.00270
1332.93136,0.00291
1330.87119,0.00305
1328.81102,0.00314
1326.75084,0.00322
1324.69067,0.00328
1322.63050,0.00332
1320.57033,0.00332
1318.51015,0.00322
1316.44998,0.00310
1314.38981,0.00311
1312.32964,0.00323
1310.26947,0.00334
1308.20929,0.00345
1306.14912,0.00357
1304.08895,0.00359
1302.02878,0.00353
1299.96861,0.00351
1297.90843,0.00354
1295.84826,0.00359
1293.78809,0.00369
1291.72792,0.00378
1289.66775,0.00379
1287.60757,0.00372
1285.54740,0.00368
1283.48723,0.00372
1281.42706,0.00375
1279.36688,0.00370
1277.30671,0.00365
1275.24654,0.00370
1273.18637,0.00378
1271.12620,0.00376
1269.06602,0.00362
1267.00585,0.00357
1264.94568,0.00370
1262.88551,0.00383
1260.82534,0.00393
1258.76516,0.00398
1256.70499,0.00399
1254.64482,0.00402
1252.58465,0.00406
1250.52447,0.00403
1248.46430,0.00387
1246.40413,0.00370
1244.34396,0.00366
1242.28379,0.00376
1240.22361,0.00380
1238.16344,0.00364
1236.10327,0.00345
1234.04310,0.00335
1231.98293,0.00326
1229.92275,0.00311
1227.86258,0.00293
1225.80241,0.00273
1223.74224,0.00251
1221.68207,0.00229
1219.62189,0.00214
1217.56172,0.00213
1215.50155,0.00208
1213.44138,0.00187
1211.38120,0.00162
1209.32103,0.00143
1207.26086,0.00138
1205.20069,0.00147
1203.14052,0.00148
1201.08034,0.00133
1199.02017,0.00120
1196.96000,0.00129
1194.89983,0.00151
1192.83966,0.00177
1190.77948,0.00203
1188.71931,0.00221
1186.65914,0.00241
1184.59897,0.00282
1182.53880,0.00333
1180.47862,0.00378
1178.41845,0.00411
1176.35828,0.00442
1174.29811,0.00486
1172.23793,0.00530
1170.17776,0.00561
1168.11759,0.00601
1166.05742,0.00651
1163.99725,0.00704
1161.93707,0.00763
1159.87690,0.00817
1157.81673,0.00867
1155.75656,0.00931
1153.69639,0.01011
1151.63621,0.01093
1149.57604,0.01171
1147.51587,0.01238
1145.45570,0.01297
1143.39552,0.01352
1141.33535,0.01403
1139.27518,0.01461
1137.21501,0.01528
1135.15484,0.01598
1133.09466,0.01667
1131.03449,0.01727
1128.97432,0.01786
1126.91415,0.01854
1124.85398,0.01928
1122.79380,0.01995
1120.73363,0.02054
1118.67346,0.02117
1116.61329,0.02187
1114.55312,0.02263
1112.49294,0.02332
1110.43277,0.02379
1108.37260,0.02420
1106.31243,0.02476
1104.25225,0.02537
1102.19208,0.02595
1100.13191,0.02648
1098.07174,0.02698
1096.01157,0.02748
1093.95139,0.02792
1091.89122,0.02832
1089.83105,0.02870
1087.77088,0.02911
1085.71071,0.02964
1083.65053,0.03011
1081.59036,0.03042
1079.53019,0.03069
1077.47002,0.03094
1075.40985,0.03116
1073.34967,0.03140
1071.28950,0.03166
1069.22933,0.03178
1067.16916,0.03162
1065.10898,0.03128
1063.04881,0.03105
1060.98864,0.03091
1058.92847,0.03060
1056.86830,0.03003
1054.80812,0.02933
1052.74795,0.02865
1050.68778,0.02794
1048.62761,0.02718
1046.56744,0.02624
1044.50726,0.02511
1042.44709,0.02412
1040.38692,0.02336
1038.32675,0.02254
1036.26657,0.02158
1034.20640,0.02061
1032.14623,0.01972
1030.08606,0.01892
1028.02589,0.01819
1025.96571,0.01750
1023.90554,0.01692
1021.84537,0.01645
1019.78520,0.01589
1017.72503,0.01516
1015.66485,0.01464
1013.60468,0.01453
1011.54451,0.01463
1009.48434,0.01481
1007.42417,0.01502
1005.36399,0.01513
1003.30382,0.01532
1001.24365,0.01583
999.18348,0.01656
997.12330,0.01723
995.06313,0.01781
993.00296,0.01834
990.94279,0.01890
988.88262,0.01947
986.82244,0.01983
984.76227,0.02001
982.70210,0.02014
980.64193,0.02022
978.58176,0.02020
976.52158,0.02007
974.46141,0.01985
972.40124,0.01955
970.34107,0.01918
968.28089,0.01880
966.22072,0.01850
964.16055,0.01819
962.10038,0.01775
960.04021,0.01719
957.98003,0.01652
955.91986,0.01572
953.85969,0.01492
951.79952,0.01419
949.73935,0.01360
947.67917,0.01310
945.61900,0.01265
943.55883,0.01215
941.49866,0.01156
939.43849,0.01100
937.37831,0.01055
935.31814,0.01008
933.25797,0.00953
931.19780,0.00908
929.13762,0.00865
927.07745,0.00825
925.01728,0.00802
922.95711,0.00772
920.89694,0.00721
918.83676,0.00686
916.77659,0.00683
914.71642,0.00679
912.65625,0.00658
910.59608,0.00633
908.53590,0.00609
906.47573,0.00583
904.41556,0.00565
902.35539,0.00565
900.29522,0.00577
898.23504,0.00603
896.17487,0.00634
894.11470,0.00651
892.05453,0.00669
889.99435,0.00704
887.93418,0.00734
885.87401,0.00764
883.81384,0.00810
881.75367,0.00862
879.69349,0.00912
877.63332,0.00944
875.57315,0.00957
873.51298,0.00982
871.45281,0.01043
869.39263,0.01102
867.33246,0.01110
865.27229,0.01104
863.21212,0.01118
861.15194,0.01143
859.09177,0.01184
857.03160,0.01223
854.97143,0.01226
852.91126,0.01208
850.85108,0.01196
848.79091,0.01186
846.73074,0.01165
844.67057,0.01136
842.61040,0.01100
840.55022,0.01041
838.49005,0.00970
836.42988,0.00922
834.36971,0.00901
832.30954,0.00881
830.24936,0.00855
828.18919,0.00819
826.12902,0.00766
824.06885,0.00727
822.00867,0.00712
819.94850,0.00678
817.88833,0.00648
815.82816,0.00652
813.76799,0.00633
811.70781,0.00586
809.64764,0.00562
807.58747,0.00547
805.52730,0.00518
803.46713,0.00504
801.40695,0.00511
799.34678,0.00501
797.28661,0.00464
795.22644,0.00440
793.16627,0.00446
791.10609,0.00457
789.04592,0.00460
786.98575,0.00458
784.92558,0.00452
782.86540,0.00439
780.80523,0.00412
778.74506,0.00384
776.68489,0.00371
774.62472,0.00362
772.56454,0.00356
770.50437,0.00363
768.44420,0.00357
766.38403,0.00335
764.32386,0.00314
762.26368,0.00297
760.20351,0.00285
758.14334,0.00282
756.08317,0.00276
754.02299,0.00261
751.96282,0.00249
749.90265,0.00250
747.84248,0.00245
745.78231,0.00225
743.72213,0.00212
741.66196,0.00222
739.60179,0.00250
737.54162,0.00256
735.48145,0.00232
733.42127,0.00228
731.36110,0.00231
729.30093,0.00216
727.24076,0.00218
725.18059,0.00236
723.12041,0.00240
721.06024,0.00242
719.00007,0.00255
716.93990,0.00264
714.87972,0.00246
712.81955,0.00216
710.75938,0.00210
708.69921,0.00237
706.63904,0.00272
704.57886,0.00278
702.51869,0.00262
700.45852,0.00232
698.39835,0.00181
696.33818,0.00144
694.27800,0.00167
692.21783,0.00203
690.15766,0.00181
688.09749,0.00132
686.03731,0.00126
683.97714,0.00151
681.91697,0.00172
679.85680,0.00196
677.79663,0.00202
675.73645,0.00159
673.67628,0.00110
671.61611,0.00124
669.55594,0.00202
667.49577,0.00274
665.43559,0.00282
663.37542,0.00252
661.31525,0.00243
659.25508,0.00268
657.19491,0.00289
655.13473,0.00257
653.07456,0.00190
651.01439,0.00152
648.95422,0.00135
646.89404,0.00073
644.83387,0.00000
642.77370,0.00018
640.71353,0.00102
638.65336,0.00107
636.59318,0.00035
634.53301,0.00043
632.47284,0.00152
630.41267,0.00208
628.35250,0.00174
626.29232,0.00177
624.23215,0.00233
622.17198,0.00259
620.11181,0.00237
618.05164,0.00161
615.99146,0.00092
613.93129,0.00108
611.87112,0.00145
609.81095,0.00079
607.75077,-0.00025
605.69060,0.00008
603.63043,0.00109
601.57026,0.00084
599.51009,0.00000
