3996.73391,-0.00005
3994.67373,-0.00020
3992.61356,-0.00023
3990.55339,-0.00016
3988.49322,-0.00007
3986.43305,0.00002
3984.37287,0.00022
3982.31270,0.00062
3980.25253,0.00105
3978.19236,0.00115
3976.13219,0.00082
3974.07201,0.00043
3972.01184,0.00030
3969.95167,0.00045
3967.89150,0.00081
3965.83133,0.00109
3963.77115,0.00103
3961.71098,0.00071
3959.65081,0.00050
3957.59064,0.00053
3955.53046,0.00068
3953.47029,0.00076
3951.41012,0.00058
3949.34995,0.00022
3947.28978,0.00000
3945.22960,0.00000
3943.16943,0.00008
3941.10926,0.00032
3939.04909,0.00069
3936.98892,0.00099
3934.92874,0.00101
3932.86857,0.00076
3930.80840,0.00076
3928.74823,0.00118
3926.68805,0.00164
3924.62788,0.00192
3922.56771,0.00192
3920.50754,0.00166
3918.44737,0.00132
3916.38719,0.00116
3914.32702,0.00122
3912.26685,0.00138
3910.20668,0.00149
3908.14651,0.00142
3906.08633,0.00121
3904.02616,0.00092
3901.96599,0.00080
3899.90582,0.00100
3897.84565,0.00122
3895.78547,0.00122
3893.72530,0.00105
3891.66513,0.00083
3889.60496,0.00078
3887.54478,0.00080
3885.48461,0.00066
3883.42444,0.00058
3881.36427,0.00081
3879.30410,0.00126
3877.24392,0.00153
3875.18375,0.00119
3873.12358,0.00043
3871.06341,0.00000
3869.00324,0.00027
3866.94306,0.00074
3864.88289,0.00092
3862.82272,0.00091
3860.76255,0.00094
3858.70237,0.00091
3856.64220,0.00060
3854.58203,0.00032
3852.52186,0.00057
3850.46169,0.00114
3848.40151,0.00130
3846.34134,0.00126
3844.28117,0.00128
3842.22100,0.00129
3840.16083,0.00115
3838.10065,0.00088
3836.04048,0.00090
3833.98031,0.00141
3831.92014,0.00201
3829.85997,0.00232
3827.79979,0.00228
3825.73962,0.00210
3823.67945,0.00198
3821.61928,0.00199
3819.55910,0.00194
3817.49893,0.00192
3815.43876,0.00214
3813.37859,0.00244
3811.31842,0.00256
3809.25824,0.00256
3807.19807,0.00244
3805.13790,0.00235
3803.07773,0.00252
3801.01756,0.00270
3798.95738,0.00266
3796.89721,0.00256
3794.83704,0.00265
3792.77687,0.00280
3790.71670,0.00277
3788.65652,0.00263
3786.59635,0.00257
3784.53618,0.00276
3782.47601,0.00319
3780.41583,0.00352
3778.35566,0.00344
3776.29549,0.00317
3774.23532,0.00305
3772.17515,0.00300
3770.11497,0.00284
3768.05480,0.00258
3765.99463,0.00236
3763.93446,0.00223
3761.87429,0.00215
3759.81411,0.00200
3757.75394,0.00168
3755.69377,0.00136
3753.63360,0.00109
3751.57342,0.00070
3749.51325,0.00028
3747.45308,0.00014
3745.39291,-0.00001
3743.33274,0.00000
3741.27256,0.00038
3739.21239,0.00070
3737.15222,0.00056
3735.09205,0.00012
3733.03188,0.00021
3730.97170,0.00089
3728.91153,0.00142
3726.85136,0.00162
3724.79119,0.00169
3722.73102,0.00181
3720.67084,0.00229
3718.61067,0.00275
3716.55050,0.00275
3714.49033,0.00250
3712.43015,0.00238
3710.36998,0.00260
3708.30981,0.00308
3706.24964,0.00358
3704.18947,0.00360
3702.12929,0.00312
3700.06912,0.00266
3698.00895,0.00254
3695.94878,0.00261
3693.88861,0.00282
3691.82843,0.00308
3689.76826,0.00285
3687.70809,0.00240
3685.64792,0.00236
3683.58775,0.00276
3681.52757,0.00325
3679.46740,0.00360
3677.40723,0.00362
3675.34706,0.00311
3673.28688,0.00245
3671.22671,0.00222
3669.16654,0.00236
3667.10637,0.00252
3665.04620,0.00269
3662.98602,0.00303
3660.92585,0.00345
3658.86568,0.00365
3656.80551,0.00344
3654.74534,0.00315
3652.68516,0.00317
3650.62499,0.00334
3648.56482,0.00351
3646.50465,0.00402
3644.44447,0.00431
3642.38430,0.00419
3640.32413,0.00399
3638.26396,0.00388
3636.20379,0.00375
3634.14361,0.00356
3632.08344,0.00349
3630.02327,0.00351
3627.96310,0.00371
3625.90293,0.00421
3623.84275,0.00468
3621.78258,0.00480
3619.72241,0.00484
3617.66224,0.00505
3615.60207,0.00508
3613.54189,0.00481
3611.48172,0.00449
3609.42155,0.00447
3607.36138,0.00469
3605.30120,0.00491
3603.24103,0.00509
3601.18086,0.00529
3599.12069,0.00567
3597.06052,0.00595
3595.00034,0.00595
3592.94017,0.00589
3590.88000,0.00597
3588.81983,0.00595
3586.75966,0.00602
3584.69948,0.00636
3582.63931,0.00665
3580.57914,0.00693
3578.51897,0.00732
3576.45879,0.00773
3574.39862,0.00800
3572.33845,0.00809
3570.27828,0.00795
3568.21811,0.00762
3566.15793,0.00753
3564.09776,0.00801
3562.03759,0.00860
3559.97742,0.00893
3557.91725,0.00894
3555.85707,0.00876
3553.79690,0.00881
3551.73673,0.00919
3549.67656,0.00939
3547.61639,0.00919
3545.55621,0.00913
3543.49604,0.00962
3541.43587,0.01028
3539.37570,0.01058
3537.31552,0.01052
3535.25535,0.01041
3533.19518,0.01055
3531.13501,0.01088
3529.07484,0.01110
3527.01466,0.01105
3524.95449,0.01106
3522.89432,0.01129
3520.83415,0.01153
3518.77398,0.01165
3516.71380,0.01174
3514.65363,0.01188
3512.59346,0.01205
3510.53329,0.01208
3508.47312,0.01206
3506.41294,0.01220
3504.35277,0.01234
3502.29260,0.01233
3500.23243,0.01250
3498.17225,0.01289
3496.11208,0.01325
3494.05191,0.01348
3491.99174,0.01359
3489.93157,0.01351
3487.87139,0.01326
3485.81122,0.01309
3483.75105,0.01332
3481.69088,0.01386
3479.63071,0.01431
3477.57053,0.01453
3475.51036,0.01466
3473.45019,0.01477
3471.39002,0.01477
3469.32984,0.01471
3467.26967,0.01484
3465.20950,0.01514
3463.14933,0.01538
3461.08916,0.01550
3459.02898,0.01557
3456.96881,0.01559
3454.90864,0.01563
3452.84847,0.01572
3450.78830,0.01580
3448.72812,0.01592
3446.66795,0.01598
3444.60778,0.01598
3442.54761,0.01614
3440.48744,0.01636
3438.42726,0.01642
3436.36709,0.01657
3434.30692,0.01685
3432.24675,0.01693
3430.18657,0.01686
3428.12640,0.01692
3426.06623,0.01703
3424.00606,0.01701
3421.94589,0.01699
3419.88571,0.01709
3417.82554,0.01729
3415.76537,0.01757
3413.70520,0.01783
3411.64503,0.01792
3409.58485,0.01794
3407.52468,0.01809
3405.46451,0.01820
3403.40434,0.01816
3401.34416,0.01823
3399.28399,0.01801
3397.22382,0.01806
3395.16365,0.01792
3393.10348,0.01759
3391.04330,0.01750
3388.98313,0.01771
3386.92296,0.01790
3384.86279,0.01791
3382.80262,0.01796
3380.74244,0.01827
3378.68227,0.01869
3376.62210,0.01888
3374.56193,0.01881
3372.50176,0.01871
3370.44158,0.01868
3368.38141,0.01862
3366.32124,0.01860
3364.26107,0.01877
3362.20089,0.01901
3360.14072,0.01919
3358.08055,0.01933
3356.02038,0.01933
3353.96021,0.01923
3351.90003,0.01922
3349.83986,0.01933
3347.77969,0.01943
3345.71952,0.01950
3343.65935,0.01954
3341.59917,0.01966
3339.53900,0.01979
3337.47883,0.01976
3335.41866,0.01971
3333.35849,0.01975
3331.29831,0.01975
3329.23814,0.01971
3327.17797,0.01972
3325.11780,0.01977
3323.05762,0.01977
3320.99745,0.01972
3318.93728,0.01976
3316.87711,0.01995
3314.81694,0.02005
3312.75676,0.01992
3310.69659,0.01981
3308.63642,0.01988
3306.57625,0.02006
3304.51608,0.02025
3302.45590,0.02027
3300.39573,0.02005
3298.33556,0.01991
3296.27539,0.02007
3294.21521,0.02017
3292.15504,0.02004
3290.09487,0.02006
3288.03470,0.02017
3285.97453,0.02007
3283.91435,0.01995
3281.85418,0.02007
3279.79401,0.02026
3277.73384,0.02039
3275.67367,0.02048
3273.61349,0.02054
3271.55332,0.02061
3269.49315,0.02071
3267.43298,0.02073
3265.37281,0.02058
3263.31263,0.02041
3261.25246,0.02042
3259.19229,0.02053
3257.13212,0.02050
3255.07194,0.02033
3253.01177,0.02029
3250.95160,0.02044
3248.89143,0.02057
3246.83126,0.02063
3244.77108,0.02062
3242.71091,0.02048
3240.65074,0.02038
3238.59057,0.02035
3236.53040,0.02030
3234.47022,0.02035
3232.41005,0.02050
3230.34988,0.02049
3228.28971,0.02034
3226.22954,0.02027
3224.16936,0.02028
3222.10919,0.02019
3220.04902,0.02003
3217.98885,0.01996
3215.92867,0.02001
3213.86850,0.02001
3211.80833,0.01996
3209.74816,0.01996
3207.68799,0.01997
3205.62781,0.02000
3203.56764,0.02012
3201.50747,0.02010
3199.44730,0.01995
3197.38713,0.02002
3195.32695,0.02017
3193.26678,0.02002
3191.20661,0.01972
3189.14644,0.01961
3187.08626,0.01970
3185.02609,0.01976
3182.96592,0.01969
3180.90575,0.01954
3178.84558,0.01945
3176.78540,0.01949
3174.72523,0.01953
3172.66506,0.01943
3170.60489,0.01929
3168.54472,0.01925
3166.48454,0.01925
3164.42437,0.01914
3162.36420,0.01910
3160.30403,0.01923
3158.24386,0.01930
3156.18368,0.01912
3154.12351,0.01888
3152.06334,0.01877
3150.00317,0.01875
3147.94299,0.01885
3145.88282,0.01892
3143.82265,0.01881
3141.76248,0.01882
3139.70231,0.01902
3137.64213,0.01905
3135.58196,0.01880
3133.52179,0.01867
3131.46162,0.01881
3129.40145,0.01886
3127.34127,0.01862
3125.28110,0.01833
3123.22093,0.01812
3121.16076,0.01800
3119.10058,0.01796
3117.04041,0.01792
3114.98024,0.01798
3112.92007,0.01813
3110.85990,0.01814
3108.79972,0.01799
3106.73955,0.01793
3104.67938,0.01804
3102.61921,0.01806
3100.55904,0.01790
3098.49886,0.01780
3096.43869,0.01781
3094.37852,0.01776
3092.31835,0.01761
3090.25818,0.01748
3088.19800,0.01741
3086.13783,0.01743
3084.07766,0.01751
3082.01749,0.01757
3079.95731,0.01751
3077.89714,0.01735
3075.83697,0.01732
3073.77680,0.01749
3071.71663,0.01761
3069.65645,0.01750
3067.59628,0.01729
3065.53611,0.01715
3063.47594,0.01703
3061.41577,0.01685
3059.35559,0.01666
3057.29542,0.01653
3055.23525,0.01650
3053.17508,0.01654
3051.11491,0.01649
3049.05473,0.01634
3046.99456,0.01620
3044.93439,0.01620
3042.87422,0.01628
3040.81404,0.01632
3038.75387,0.01625
3036.69370,0.01606
3034.63353,0.01579
3032.57336,0.01564
3030.51318,0.01567
3028.45301,0.01571
3026.39284,0.01569
3024.33267,0.01565
3022.27250,0.01553
3020.21232,0.01538
3018.15215,0.01536
3016.09198,0.01544
3014.03181,0.01540
3011.97163,0.01526
3009.91146,0.01521
3007.85129,0.01521
3005.79112,0.01515
3003.73095,0.01503
3001.67077,0.01495
2999.61060,0.01504
2997.55043,0.01510
2995.49026,0.01497
2993.43009,0.01470
2991.36991,0.01453
2989.30974,0.01450
2987.24957,0.01447
2985.18940,0.01452
2983.12923,0.01472
2981.06905,0.01483
2979.00888,0.01473
2976.94871,0.01467
2974.88854,0.01471
2972.82836,0.01471
2970.76819,0.01473
2968.70802,0.01490
2966.64785,0.01499
2964.58768,0.01483
2962.52750,0.01471
2960.46733,0.01476
2958.40716,0.01482
2956.34699,0.01489
2954.28682,0.01507
2952.22664,0.01522
2950.16647,0.01521
2948.10630,0.01507
2946.04613,0.01496
2943.98596,0.01494
2941.92578,0.01498
2939.86561,0.01503
2937.80544,0.01501
2935.74527,0.01499
2933.68509,0.01499
2931.62492,0.01507
2929.56475,0.01512
2927.50458,0.01496
2925.44441,0.01475
2923.38423,0.01466
2921.32406,0.01454
2919.26389,0.01437
2917.20372,0.01436
2915.14355,0.01444
2913.08337,0.01449
2911.02320,0.01445
2908.96303,0.01430
2906.90286,0.01414
2904.84268,0.01407
2902.78251,0.01405
2900.72234,0.01410
2898.66217,0.01407
2896.60200,0.01396
2894.54182,0.01394
2892.48165,0.01393
2890.42148,0.01389
2888.36131,0.01387
2886.30114,0.01395
2884.24096,0.01412
2882.18079,0.01428
2880.12062,0.01428
2878.06045,0.01417
2876.00028,0.01414
2873.94010,0.01422
2871.87993,0.01425
2869.81976,0.01414
2867.75959,0.01390
2865.69941,0.01368
2863.63924,0.01362
2861.57907,0.01359
2859.51890,0.01346
2857.45873,0.01333
2855.39855,0.01316
2853.33838,0.01297
2851.27821,0.01287
2849.21804,0.01281
2847.15787,0.01269
2845.09769,0.01251
2843.03752,0.01246
2840.97735,0.01246
2838.91718,0.01240
2836.85700,0.01242
2834.79683,0.01248
2832.73666,0.01245
2830.67649,0.01234
2828.61632,0.01221
2826.55614,0.01212
2824.49597,0.01207
2822.43580,0.01199
2820.37563,0.01198
2818.31546,0.01201
2816.25528,0.01192
2814.19511,0.01173
2812.13494,0.01164
2810.07477,0.01166
2808.01460,0.01171
2805.95442,0.01176
2803.89425,0.01176
2801.83408,0.01166
2799.77391,0.01157
2797.71373,0.01155
2795.65356,0.01153
2793.59339,0.01146
2791.53322,0.01138
2789.47305,0.01133
2787.41287,0.01120
2785.35270,0.01106
2783.29253,0.01100
2781.23236,0.01094
2779.17219,0.01084
2777.11201,0.01080
2775.05184,0.01079
2772.99167,0.01070
2770.93150,0.01063
2768.87133,0.01059
2766.81115,0.01063
2764.75098,0.01077
2762.69081,0.01073
2760.63064,0.01048
2758.57046,0.01030
2756.51029,0.01022
2754.45012,0.01015
2752.38995,0.01013
2750.32978,0.01026
2748.26960,0.01035
2746.20943,0.01021
2744.14926,0.00994
2742.08909,0.00984
2740.02892,0.00990
2737.96874,0.00989
2735.90857,0.00979
2733.84840,0.00975
2731.78823,0.00981
2729.72805,0.00985
2727.66788,0.00978
2725.60771,0.00969
2723.54754,0.00972
2721.48737,0.00974
2719.42719,0.00963
2717.36702,0.00951
2715.30685,0.00940
2713.24668,0.00927
2711.18651,0.00919
2709.12633,0.00915
2707.06616,0.00918
2705.00599,0.00937
2702.94582,0.00952
2700.88565,0.00949
2698.82547,0.00930
2696.76530,0.00906
2694.70513,0.00897
2692.64496,0.00898
2690.58478,0.00896
2688.52461,0.00894
2686.46444,0.00893
2684.40427,0.00893
2682.34410,0.00886
2680.28392,0.00874
2678.22375,0.00872
2676.16358,0.00876
2674.10341,0.00876
2672.04324,0.00876
2669.98306,0.00875
2667.92289,0.00865
2665.86272,0.00857
2663.80255,0.00863
2661.74238,0.00870
2659.68220,0.00864
2657.62203,0.00856
2655.56186,0.00858
2653.50169,0.00870
2651.44151,0.00880
2649.38134,0.00871
2647.32117,0.00843
2645.26100,0.00826
2643.20083,0.00823
2641.14065,0.00819
2639.08048,0.00824
2637.02031,0.00836
2634.96014,0.00831
2632.89997,0.00807
2630.83979,0.00783
2628.77962,0.00779
2626.71945,0.00792
2624.65928,0.00802
2622.59910,0.00796
2620.53893,0.00782
2618.47876,0.00767
2616.41859,0.00760
2614.35842,0.00755
2612.29824,0.00738
2610.23807,0.00729
2608.17790,0.00738
2606.11773,0.00735
2604.05756,0.00723
2601.99738,0.00728
2599.93721,0.00732
2597.87704,0.00730
2595.81687,0.00735
2593.75670,0.00736
2591.69652,0.00734
2589.63635,0.00736
2587.57618,0.00733
2585.51601,0.00726
2583.45583,0.00724
2581.39566,0.00720
2579.33549,0.00714
2577.27532,0.00709
2575.21515,0.00696
2573.15497,0.00689
2571.09480,0.00712
2569.03463,0.00745
2566.97446,0.00752
2564.91429,0.00736
2562.85411,0.00725
2560.79394,0.00718
2558.73377,0.00705
2556.67360,0.00693
2554.61342,0.00693
2552.55325,0.00697
2550.49308,0.00692
2548.43291,0.00701
2546.37274,0.00716
2544.31256,0.00704
2542.25239,0.00689
2540.19222,0.00693
2538.13205,0.00698
2536.07188,0.00687
2534.01170,0.00678
2531.95153,0.00686
2529.89136,0.00694
2527.83119,0.00682
2525.77102,0.00667
2523.71084,0.00680
2521.65067,0.00703
2519.59050,0.00708
2517.53033,0.00709
2515.47015,0.00713
2513.40998,0.00718
2511.34981,0.00730
2509.28964,0.00737
2507.22947,0.00727
2505.16929,0.00717
2503.10912,0.00716
2501.04895,0.00713
2498.98878,0.00713
2496.92861,0.00721
2494.86843,0.00737
2492.80826,0.00750
2490.74809,0.00738
2488.68792,0.00715
2486.62775,0.00705
2484.56757,0.00699
2482.50740,0.00697
2480.44723,0.00715
2478.38706,0.00737
2476.32688,0.00748
2474.26671,0.00743
2472.20654,0.00742
2470.14637,0.00764
2468.08620,0.00777
2466.02602,0.00767
2463.96585,0.00767
2461.90568,0.00779
2459.84551,0.00783
2457.78534,0.00782
2455.72516,0.00786
2453.66499,0.00782
2451.60482,0.00756
2449.54465,0.00726
2447.48447,0.00729
2445.42430,0.00750
2443.36413,0.00752
2441.30396,0.00742
2439.24379,0.00735
2437.18361,0.00732
2435.12344,0.00735
2433.06327,0.00735
2431.00310,0.00725
2428.94293,0.00722
2426.88275,0.00746
2424.82258,0.00771
2422.76241,0.00771
2420.70224,0.00772
2418.64207,0.00764
2416.58189,0.00740
2414.52172,0.00741
2412.46155,0.00760
2410.40138,0.00763
2408.34120,0.00746
2406.28103,0.00720
2404.22086,0.00705
2402.16069,0.00714
2400.10052,0.00740
2398.04034,0.00749
2395.98017,0.00736
2393.92000,0.00727
2391.85983,0.00721
2389.79966,0.00705
2387.73948,0.00687
2385.67931,0.00685
2383.61914,0.00684
2381.55897,0.00666
2379.49880,0.00631
2377.43862,0.00604
2375.37845,0.00563
2373.31828,0.00568
2371.25811,0.00600
2369.19793,0.00579
2367.13776,0.00610
2365.07759,0.00733
2363.01742,0.00686
2360.95725,0.00734
2358.89707,0.00701
2356.83690,0.00629
2354.77673,0.00510
2352.71656,0.00541
2350.65639,0.00905
2348.59621,0.01085
2346.53604,0.00576
2344.47587,0.00518
2342.41570,0.00697
2340.35552,0.00780
2338.29535,0.00796
2336.23518,0.00765
2334.17501,0.00715
2332.11484,0.00662
2330.05466,0.00672
2327.99449,0.00652
2325.93432,0.00724
2323.87415,0.00674
2321.81398,0.00632
2319.75380,0.00552
2317.69363,0.00605
2315.63346,0.00615
2313.57329,0.00572
2311.51312,0.00554
2309.45294,0.00548
2307.39277,0.00561
2305.33260,0.00587
2303.27243,0.00613
2301.21225,0.00611
2299.15208,0.00624
2297.09191,0.00645
2295.03174,0.00649
2292.97157,0.00663
2290.91139,0.00687
2288.85122,0.00685
2286.79105,0.00661
2284.73088,0.00638
2282.67071,0.00621
2280.61053,0.00616
2278.55036,0.00614
2276.49019,0.00605
2274.43002,0.00601
2272.36984,0.00596
2270.30967,0.00598
2268.24950,0.00622
2266.18933,0.00640
2264.12916,0.00630
2262.06898,0.00626
2260.00881,0.00597
2257.94864,0.00512
2255.88847,0.00444
2253.82830,0.00477
2251.76812,0.00550
2249.70795,0.00568
2247.64778,0.00536
2245.58761,0.00520
2243.52744,0.00504
2241.46726,0.00488
2239.40709,0.00509
2237.34692,0.00529
2235.28675,0.00504
2233.22657,0.00468
2231.16640,0.00483
2229.10623,0.00538
2227.04606,0.00564
2224.98589,0.00531
2222.92571,0.00495
2220.86554,0.00487
2218.80537,0.00469
2216.74520,0.00441
2214.68503,0.00410
2212.62485,0.00400
2210.56468,0.00426
2208.50451,0.00455
2206.44434,0.00458
2204.38417,0.00419
2202.32399,0.00363
2200.26382,0.00342
2198.20365,0.00343
2196.14348,0.00354
2194.08330,0.00402
2192.02313,0.00421
2189.96296,0.00386
2187.90279,0.00367
2185.84262,0.00340
2183.78244,0.00280
2181.72227,0.00287
2179.66210,0.00378
2177.60193,0.00391
2175.54176,0.00274
2173.48158,0.00204
2171.42141,0.00272
2169.36124,0.00348
2167.30107,0.00306
2165.24089,0.00231
2163.18072,0.00242
2161.12055,0.00241
2159.06038,0.00132
2157.00021,0.00014
2154.94003,0.00000
2152.87986,0.00032
2150.81969,0.00010
2148.75952,-0.00002
2146.69935,0.00063
2144.63917,0.00127
2142.57900,0.00157
2140.51883,0.00199
2138.45866,0.00237
2136.39849,0.00230
2134.33831,0.00217
2132.27814,0.00232
2130.21797,0.00253
2128.15780,0.00264
2126.09762,0.00273
2124.03745,0.00271
2121.97728,0.00253
2119.91711,0.00260
2117.85694,0.00303
2115.79676,0.00346
2113.73659,0.00380
2111.67642,0.00402
2109.61625,0.00374
2107.55608,0.00302
2105.49590,0.00245
2103.43573,0.00215
2101.37556,0.00187
2099.31539,0.00187
2097.25521,0.00217
2095.19504,0.00261
2093.13487,0.00275
2091.07470,0.00271
2089.01453,0.00291
2086.95435,0.00330
2084.89418,0.00375
2082.83401,0.00421
2080.77384,0.00431
2078.71367,0.00393
2076.65349,0.00343
2074.59332,0.00313
2072.53315,0.00307
2070.47298,0.00297
2068.41281,0.00280
2066.35263,0.00270
2064.29246,0.00244
2062.23229,0.00201
2060.17212,0.00178
2058.11194,0.00183
2056.05177,0.00218
2053.99160,0.00278
2051.93143,0.00310
2049.87126,0.00323
2047.81108,0.00349
2045.75091,0.00335
2043.69074,0.00272
2041.63057,0.00258
2039.57040,0.00331
2037.51022,0.00401
2035.45005,0.00387
2033.38988,0.00319
2031.32971,0.00273
2029.26954,0.00247
2027.20936,0.00211
2025.14919,0.00198
2023.08902,0.00212
2021.02885,0.00211
2018.96867,0.00207
2016.90850,0.00231
2014.84833,0.00276
2012.78816,0.00321
2010.72799,0.00344
2008.66781,0.00336
2006.60764,0.00309
2004.54747,0.00266
2002.48730,0.00220
2000.42713,0.00200
1998.36695,0.00202
1996.30678,0.00214
1994.24661,0.00228
1992.18644,0.00249
1990.12626,0.00263
1988.06609,0.00251
1986.00592,0.00275
1983.94575,0.00352
1981.88558,0.00374
1979.82540,0.00288
1977.76523,0.00176
1975.70506,0.00145
1973.64489,0.00221
1971.58472,0.00304
1969.52454,0.00297
1967.46437,0.00219
1965.40420,0.00154
1963.34403,0.00127
1961.28386,0.00112
1959.22368,0.00118
1957.16351,0.00126
1955.10334,0.00121
1953.04317,0.00152
1950.98299,0.00210
1948.92282,0.00221
1946.86265,0.00179
1944.80248,0.00135
1942.74231,0.00120
1940.68213,0.00145
1938.62196,0.00181
1936.56179,0.00204
1934.50162,0.00207
1932.44145,0.00186
1930.38127,0.00169
1928.32110,0.00179
1926.26093,0.00189
1924.20076,0.00180
1922.14059,0.00167
1920.08041,0.00176
1918.02024,0.00209
1915.96007,0.00241
1913.89990,0.00262
1911.83972,0.00250
1909.77955,0.00207
1907.71938,0.00190
1905.65921,0.00220
1903.59904,0.00253
1901.53886,0.00268
1899.47869,0.00262
1897.41852,0.00240
1895.35835,0.00228
1893.29818,0.00233
1891.23800,0.00242
1889.17783,0.00253
1887.11766,0.00277
1885.05749,0.00310
1882.99731,0.00330
1880.93714,0.00321
1878.87697,0.00297
1876.81680,0.00290
1874.75663,0.00296
1872.69645,0.00293
1870.63628,0.00273
1868.57611,0.00249
1866.51594,0.00245
1864.45577,0.00262
1862.39559,0.00275
1860.33542,0.00274
1858.27525,0.00273
1856.21508,0.00276
1854.15491,0.00278
1852.09473,0.00284
1850.03456,0.00284
1847.97439,0.00273
1845.91422,0.00263
1843.85404,0.00269
1841.79387,0.00290
1839.73370,0.00309
1837.67353,0.00320
1835.61336,0.00318
1833.55318,0.00310
1831.49301,0.00312
1829.43284,0.00319
1827.37267,0.00320
1825.31250,0.00313
1823.25232,0.00300
1821.19215,0.00288
1819.13198,0.00285
1817.07181,0.00293
1815.01163,0.00297
1812.95146,0.00287
1810.89129,0.00279
1808.83112,0.00294
1806.77095,0.00323
1804.71077,0.00332
1802.65060,0.00315
1800.59043,0.00302
1798.53026,0.00301
1796.47009,0.00294
1794.40991,0.00284
1792.34974,0.00285
1790.28957,0.00291
1788.22940,0.00295
1786.16923,0.00296
1784.10905,0.00304
1782.04888,0.00321
1779.98871,0.00334
1777.92854,0.00331
1775.86836,0.00324
1773.80819,0.00334
1771.74802,0.00346
1769.68785,0.00328
1767.62768,0.00311
1765.56750,0.00327
1763.50733,0.00354
1761.44716,0.00361
1759.38699,0.00347
1757.32682,0.00342
1755.26664,0.00355
1753.20647,0.00363
1751.14630,0.00353
1749.08613,0.00342
1747.02596,0.00350
1744.96578,0.00376
1742.90561,0.00411
1740.84544,0.00428
1738.78527,0.00417
1736.72509,0.00404
1734.66492,0.00400
1732.60475,0.00404
1730.54458,0.00419
1728.48441,0.00431
1726.42423,0.00428
1724.36406,0.00411
1722.30389,0.00394
1720.24372,0.00392
1718.18355,0.00385
1716.12337,0.00354
1714.06320,0.00340
1712.00303,0.00346
1709.94286,0.00361
1707.88268,0.00376
1705.82251,0.00373
1703.76234,0.00361
1701.70217,0.00379
1699.64200,0.00421
1697.58182,0.00465
1695.52165,0.00500
1693.46148,0.00518
1691.40131,0.00534
1689.34114,0.00566
1687.28096,0.00619
1685.22079,0.00691
1683.16062,0.00742
1681.10045,0.00769
1679.04028,0.00809
1676.98010,0.00864
1674.91993,0.00911
1672.85976,0.00948
1670.79959,0.00997
1668.73941,0.01050
1666.67924,0.01087
1664.61907,0.01117
1662.55890,0.01143
1660.49873,0.01146
1658.43855,0.01139
1656.37838,0.01153
1654.31821,0.01194
1652.25804,0.01208
1650.19787,0.01176
1648.13769,0.01153
1646.07752,0.01163
1644.01735,0.01159
1641.95718,0.01141
1639.89701,0.01138
1637.83683,0.01149
1635.77666,0.01151
1633.71649,0.01134
1631.65632,0.01105
1629.59614,0.01083
1627.53597,0.01062
1625.47580,0.01037
1623.41563,0.01012
1621.35546,0.00989
1619.29528,0.00984
1617.23511,0.01001
1615.17494,0.01015
1613.11477,0.01010
1611.05460,0.01001
1608.99442,0.00994
1606.93425,0.00986
1604.87408,0.00977
1602.81391,0.00966
1600.75373,0.00949
1598.69356,0.00927
1596.63339,0.00900
1594.57322,0.00870
1592.51305,0.00843
1590.45287,0.00825
1588.39270,0.00819
1586.33253,0.00813
1584.27236,0.00792
1582.21219,0.00758
1580.15201,0.00734
1578.09184,0.00725
1576.03167,0.00709
1573.97150,0.00669
1571.91133,0.00635
1569.85115,0.00622
1567.79098,0.00605
1565.73081,0.00572
1563.67064,0.00550
1561.61046,0.00569
1559.55029,0.00594
1557.49012,0.00556
1555.42995,0.00500
1553.36978,0.00466
1551.30960,0.00451
1549.24943,0.00441
1547.18926,0.00426
1545.12909,0.00412
1543.06892,0.00425
1541.00874,0.00473
1538.94857,0.00476
1536.88840,0.00415
1534.82823,0.00372
1532.76805,0.00376
1530.70788,0.00382
1528.64771,0.00366
1526.58754,0.00327
1524.52737,0.00277
1522.46719,0.00243
1520.40702,0.00235
1518.34685,0.00244
1516.28668,0.00251
1514.22651,0.00247
1512.16633,0.00227
1510.10616,0.00202
1508.04599,0.00204
1505.98582,0.00244
1503.92565,0.00259
1501.86547,0.00240
1499.80530,0.00236
1497.74513,0.00251
1495.68496,0.00264
1493.62478,0.00270
1491.56461,0.00270
1489.50444,0.00264
1487.44427,0.00271
1485.38410,0.00289
1483.32392,0.00304
1481.26375,0.00309
1479.20358,0.00301
1477.14341,0.00293
1475.08324,0.00302
1473.02306,0.00331
1470.96289,0.00358
1468.90272,0.00367
1466.84255,0.00382
1464.78238,0.00406
1462.72220,0.00416
1460.66203,0.00418
1458.60186,0.00418
1456.54169,0.00407
1454.48151,0.00405
1452.42134,0.00409
1450.36117,0.00423
1448.30100,0.00452
1446.24083,0.00486
1444.18065,0.00512
1442.12048,0.00522
1440.06031,0.00520
1438.00014,0.00507
1435.93997,0.00490
1433.87979,0.00485
1431.81962,0.00498
1429.75945,0.00524
1427.69928,0.00544
1425.63910,0.00554
1423.57893,0.00557
1421.51876,0.00555
1419.45859,0.00549
1417.39842,0.00558
1415.33824,0.00585
1413.27807,0.00612
1411.21790,0.00634
1409.15773,0.00654
1407.09756,0.00667
1405.03738,0.00669
1402.97721,0.00668
1400.91704,0.00658
1398.85687,0.00633
1396.79670,0.00611
1394.73652,0.00618
1392.67635,0.00632
1390.61618,0.00624
1388.55601,0.00609
1386.49583,0.00622
1384.43566,0.00657
1382.37549,0.00678
1380.31532,0.00677
1378.25515,0.00669
1376.19497,0.00664
1374.13480,0.00657
1372.07463,0.00657
1370.01446,0.00667
1367.95429,0.00671
1365.89411,0.00658
1363.83394,0.00632
1361.77377,0.00615
1359.71360,0.00622
1357.65343,0.00634
1355.59325,0.00641
1353.53308,0.00641
1351.47291,0.00631
1349.41274,0.00614
1347.35256,0.00602
1345.29239,0.00590
1343.23222,0.00562
1341.17205,0.00509
1339.11188,0.00463
1337.05170,0.00470
1334.99153,0.00506
1332.93136,0.00530
1330.87119,0.00536
1328.81102,0.00536
1326.75084,0.00530
1324.69067,0.00523
1322.63050,0.00524
1320.57033,0.00526
1318.51015,0.00510
1316.44998,0.00492
1314.38981,0.00489
1312.32964,0.00498
1310.26947,0.00512
1308.20929,0.00524
1306.14912,0.00529
1304.08895,0.00531
1302.02878,0.00531
1299.96861,0.00529
1297.90843,0.00530
1295.84826,0.00535
1293.78809,0.00541
1291.72792,0.00534
1289.66775,0.00515
1287.60757,0.00504
1285.54740,0.00506
1283.48723,0.00510
1281.42706,0.00515
1279.36688,0.00517
1277.30671,0.00516
1275.24654,0.00520
1273.18637,0.00530
1271.12620,0.00538
1269.06602,0.00539
1267.00585,0.00534
1264.94568,0.00533
1262.88551,0.00540
1260.82534,0.00548
1258.76516,0.00550
1256.70499,0.00550
1254.64482,0.00553
1252.58465,0.00552
1250.52447,0.00542
1248.46430,0.00533
1246.40413,0.00529
1244.34396,0.00526
1242.28379,0.00526
1240.22361,0.00526
1238.16344,0.00518
1236.10327,0.00509
1234.04310,0.00505
1231.98293,0.00496
1229.92275,0.00480
1227.86258,0.00466
1225.80241,0.00454
1223.74224,0.00438
1221.68207,0.00420
1219.62189,0.00407
1217.56172,0.00400
1215.50155,0.00390
1213.44138,0.00371
1211.38120,0.00353
1209.32103,0.00345
1207.26086,0.00346
1205.20069,0.00355
1203.14052,0.00364
1201.08034,0.00366
1199.02017,0.00369
1196.96000,0.00395
1194.89983,0.00438
1192.83966,0.00483
1190.77948,0.00527
1188.71931,0.00576
1186.65914,0.00638
1184.59897,0.00709
1182.53880,0.00776
1180.47862,0.00837
1178.41845,0.00897
1176.35828,0.00957
1174.29811,0.01025
1172.23793,0.01091
1170.17776,0.01136
1168.11759,0.01168
1166.05742,0.01207
1163.99725,0.01270
1161.93707,0.01352
1159.87690,0.01427
1157.81673,0.01481
1155.75656,0.01528
1153.69639,0.01578
1151.63621,0.01639
1149.57604,0.01713
1147.51587,0.01782
1145.45570,0.01831
1143.39552,0.01865
1141.33535,0.01894
1139.27518,0.01926
1137.21501,0.01964
1135.15484,0.02011
1133.09466,0.02067
1131.03449,0.02120
1128.97432,0.02163
1126.91415,0.02208
1124.85398,0.02257
1122.79380,0.02299
1120.73363,0.02343
1118.67346,0.02396
1116.61329,0.02450
1114.55312,0.02511
1112.49294,0.02590
1110.43277,0.02659
1108.37260,0.02707
1106.31243,0.02764
1104.25225,0.02835
1102.19208,0.02896
1100.13191,0.02943
1098.07174,0.02995
1096.01157,0.03060
1093.95139,0.03123
1091.89122,0.03177
1089.83105,0.03230
1087.77088,0.03282
1085.71071,0.03331
1083.65053,0.03371
1081.59036,0.03408
1079.53019,0.03453
1077.47002,0.03497
1075.40985,0.03532
1073.34967,0.03560
1071.28950,0.03577
1069.22933,0.03587
1067.16916,0.03585
1065.10898,0.03568
1063.04881,0.03548
1060.98864,0.03513
1058.92847,0.03457
1056.86830,0.03388
1054.80812,0.03320
1052.74795,0.03253
1050.68778,0.03177
1048.62761,0.03099
1046.56744,0.03008
1044.50726,0.02900
1042.44709,0.02783
1040.38692,0.02670
1038.32675,0.02566
1036.26657,0.02473
1034.20640,0.02382
1032.14623,0.02296
1030.08606,0.02220
1028.02589,0.02139
1025.96571,0.02055
1023.90554,0.01990
1021.84537,0.01940
1019.78520,0.01875
1017.72503,0.01799
1015.66485,0.01756
1013.60468,0.01753
1011.54451,0.01761
1009.48434,0.01770
1007.42417,0.01778
1005.36399,0.01786
1003.30382,0.01810
1001.24365,0.01861
999.18348,0.01928
997.12330,0.01991
995.06313,0.02039
993.00296,0.02087
990.94279,0.02138
988.88262,0.02184
986.82244,0.02230
984.76227,0.02271
982.70210,0.02290
980.64193,0.02292
978.58176,0.02288
976.52158,0.02270
974.46141,0.02251
972.40124,0.02237
970.34107,0.02215
968.28089,0.02187
966.22072,0.02166
964.16055,0.02149
962.10038,0.02112
960.04021,0.02053
957.98003,0.01991
955.91986,0.01938
953.85969,0.01893
951.79952,0.01859
949.73935,0.01828
947.67917,0.01785
945.61900,0.01738
943.55883,0.01699
941.49866,0.01650
939.43849,0.01586
937.37831,0.01530
935.31814,0.01478
933.25797,0.01406
931.19780,0.01326
929.13762,0.01268
927.07745,0.01240
925.01728,0.01223
922.95711,0.01183
920.89694,0.01116
918.83676,0.01067
916.77659,0.01051
914.71642,0.01033
912.65625,0.01002
910.59608,0.00966
908.53590,0.00931
906.47573,0.00899
904.41556,0.00878
902.35539,0.00872
900.29522,0.00876
898.23504,0.00894
896.17487,0.00920
894.11470,0.00943
892.05453,0.00965
889.99435,0.00974
887.93418,0.00989
885.87401,0.01044
883.81384,0.01114
881.75367,0.01177
879.69349,0.01240
877.63332,0.01297
875.57315,0.01349
873.51298,0.01414
871.45281,0.01496
869.39263,0.01570
867.33246,0.01610
865.27229,0.01629
863.21212,0.01647
861.15194,0.01671
859.09177,0.01706
857.03160,0.01750
854.97143,0.01765
852.91126,0.01736
850.85108,0.01712
848.79091,0.01711
846.73074,0.01699
844.67057,0.01669
842.61040,0.01631
840.55022,0.01573
838.49005,0.01502
836.42988,0.01427
834.36971,0.01345
832.30954,0.01277
830.24936,0.01228
828.18919,0.01192
826.12902,0.01151
824.06885,0.01112
822.00867,0.01083
819.94850,0.01038
817.88833,0.00994
815.82816,0.00978
813.76799,0.00938
811.70781,0.00869
809.64764,0.00840
807.58747,0.00868
805.52730,0.00899
803.46713,0.00871
801.40695,0.00798
799.34678,0.00743
797.28661,0.00711
795.22644,0.00694
793.16627,0.00693
791.10609,0.00700
789.04592,0.00715
786.98575,0.00725
784.92558,0.00717
782.86540,0.00705
780.80523,0.00683
778.74506,0.00655
776.68489,0.00644
774.62472,0.00642
772.56454,0.00632
770.50437,0.00606
768.44420,0.00574
766.38403,0.00570
764.32386,0.00587
762.26368,0.00573
760.20351,0.00545
758.14334,0.00539
756.08317,0.00528
754.02299,0.00480
751.96282,0.00433
749.90265,0.00435
747.84248,0.00450
745.78231,0.00445
743.72213,0.00445
741.66196,0.00459
739.60179,0.00464
737.54162,0.00445
735.48145,0.00412
733.42127,0.00405
731.36110,0.00428
729.30093,0.00448
727.24076,0.00447
725.18059,0.00431
723.12041,0.00440
721.06024,0.00396
719.00007,0.00444
716.93990,0.00468
714.87972,0.00463
712.81955,0.00459
710.75938,0.00443
708.69921,0.00435
706.63904,0.00445
704.57886,0.00458
702.51869,0.00449
700.45852,0.00412
698.39835,0.00371
696.33818,0.00371
694.27800,0.00431
692.21783,0.00483
690.15766,0.00481
688.09749,0.00492
686.03731,0.00559
683.97714,0.00603
681.91697,0.00563
679.85680,0.00506
677.79663,0.00490
675.73645,0.00480
673.67628,0.00595
671.61611,0.00994
669.55594,0.00770
667.49577,0.00018
665.43559,0.01083
663.37542,0.00847
661.31525,0.00523
659.25508,0.00493
657.19491,0.00530
655.13473,0.00519
653.07456,0.00463
651.01439,0.00416
648.95422,0.00377
646.89404,0.00357
644.83387,0.00282
642.77370,0.00239
640.71353,0.00290
638.65336,0.00358
636.59318,0.00382
634.53301,0.00400
632.47284,0.00414
630.41267,0.00353
628.35250,0.00219
626.29232,0.00147
624.23215,0.00190
622.17198,0.00247
620.11181,0.00244
618.05164,0.00158
615.99146,0.00040
613.93129,0.00013
611.87112,0.00081
609.81095,0.00081
607.75077,0.00000
605.69060,0.00010
603.63043,0.00083
601.57026,0.00056
599.51009,0.00000
