3996.73391,-0.00064
3994.67373,-0.00071
3992.61356,-0.00066
3990.55339,-0.00040
3988.49322,-0.00008
3986.43305,0.00007
3984.37287,0.00017
3982.31270,0.00040
3980.25253,0.00064
3978.19236,0.00062
3976.13219,0.00027
3974.07201,-0.00005
3972.01184,-0.00002
3969.95167,0.00027
3967.89150,0.00068
3965.83133,0.00094
3963.77115,0.00083
3961.71098,0.00053
3959.65081,0.00036
3957.59064,0.00037
3955.53046,0.00048
3953.47029,0.00050
3951.41012,0.00029
3949.34995,0.00002
3947.28978,0.00000
3945.22960,0.00010
3943.16943,0.00005
3941.10926,0.00003
3939.04909,0.00011
3936.98892,0.00012
3934.92874,-0.00001
3932.86857,-0.00006
3930.80840,0.00027
3928.74823,0.00078
3926.68805,0.00114
3924.62788,0.00133
3922.56771,0.00124
3920.50754,0.00089
3918.44737,0.00066
3916.38719,0.00084
3914.32702,0.00115
3912.26685,0.00119
3910.20668,0.00094
3908.14651,0.00054
3906.08633,0.00020
3904.02616,0.00006
3901.96599,0.00015
3899.90582,0.00046
3897.84565,0.00077
3895.78547,0.00074
3893.72530,0.00053
3891.66513,0.00045
3889.60496,0.00038
3887.54478,0.00021
3885.48461,0.00021
3883.42444,0.00027
3881.36427,0.00038
3879.30410,0.00085
3877.24392,0.00117
3875.18375,0.00086
3873.12358,0.00021
3871.06341,-0.00019
3869.00324,-0.00003
3866.94306,0.00024
3864.88289,0.00046
3862.82272,0.00081
3860.76255,0.00101
3858.70237,0.00071
3856.64220,0.00006
3854.58203,0.00000
3852.52186,0.00110
3850.46169,0.00209
3848.40151,0.00192
3846.34134,0.00124
3844.28117,0.00084
3842.22100,0.00070
3840.16083,0.00047
3838.10065,0.00024
3836.04048,0.00039
3833.98031,0.00086
3831.92014,0.00134
3829.85997,0.00155
3827.79979,0.00138
3825.73962,0.00103
3823.67945,0.00076
3821.61928,0.00098
3819.55910,0.00153
3817.49893,0.00184
3815.43876,0.00217
3813.37859,0.00240
3811.31842,0.00216
3809.25824,0.00195
3807.19807,0.00216
3805.13790,0.00239
3803.07773,0.00245
3801.01756,0.00256
3798.95738,0.00252
3796.89721,0.00238
3794.83704,0.00247
3792.77687,0.00270
3790.71670,0.00282
3788.65652,0.00270
3786.59635,0.00246
3784.53618,0.00244
3782.47601,0.00268
3780.41583,0.00302
3778.35566,0.00323
3776.29549,0.00305
3774.23532,0.00259
3772.17515,0.00219
3770.11497,0.00200
3768.05480,0.00208
3765.99463,0.00236
3763.93446,0.00251
3761.87429,0.00221
3759.81411,0.00167
3757.75394,0.00129
3755.69377,0.00101
3753.63360,0.00064
3751.57342,0.00035
3749.51325,0.00041
3747.45308,0.00057
3745.39291,0.00044
3743.33274,0.00044
3741.27256,0.00047
3739.21239,0.00023
3737.15222,0.00000
3735.09205,0.00013
3733.03188,0.00083
3730.97170,0.00162
3728.91153,0.00200
3726.85136,0.00206
3724.79119,0.00200
3722.73102,0.00204
3720.67084,0.00245
3718.61067,0.00290
3716.55050,0.00270
3714.49033,0.00206
3712.43015,0.00190
3710.36998,0.00242
3708.30981,0.00308
3706.24964,0.00329
3704.18947,0.00306
3702.12929,0.00277
3700.06912,0.00270
3698.00895,0.00273
3695.94878,0.00270
3693.88861,0.00271
3691.82843,0.00276
3689.76826,0.00276
3687.70809,0.00291
3685.64792,0.00330
3683.58775,0.00352
3681.52757,0.00341
3679.46740,0.00300
3677.40723,0.00249
3675.34706,0.00237
3673.28688,0.00261
3671.22671,0.00294
3669.16654,0.00351
3667.10637,0.00372
3665.04620,0.00337
3662.98602,0.00317
3660.92585,0.00329
3658.86568,0.00342
3656.80551,0.00348
3654.74534,0.00343
3652.68516,0.00319
3650.62499,0.00331
3648.56482,0.00415
3646.50465,0.00484
3644.44447,0.00466
3642.38430,0.00421
3640.32413,0.00406
3638.26396,0.00408
3636.20379,0.00392
3634.14361,0.00360
3632.08344,0.00332
3630.02327,0.00345
3627.96310,0.00419
3625.90293,0.00475
3623.84275,0.00458
3621.78258,0.00432
3619.72241,0.00461
3617.66224,0.00504
3615.60207,0.00506
3613.54189,0.00486
3611.48172,0.00491
3609.42155,0.00536
3607.36138,0.00588
3605.30120,0.00602
3603.24103,0.00590
3601.18086,0.00595
3599.12069,0.00612
3597.06052,0.00623
3595.00034,0.00640
3592.94017,0.00656
3590.88000,0.00643
3588.81983,0.00622
3586.75966,0.00651
3584.69948,0.00715
3582.63931,0.00753
3580.57914,0.00777
3578.51897,0.00815
3576.45879,0.00849
3574.39862,0.00859
3572.33845,0.00852
3570.27828,0.00831
3568.21811,0.00808
3566.15793,0.00833
3564.09776,0.00893
3562.03759,0.00929
3559.97742,0.00942
3557.91725,0.00958
3555.85707,0.00967
3553.79690,0.00969
3551.73673,0.00984
3549.67656,0.00987
3547.61639,0.00959
3545.55621,0.00964
3543.49604,0.01035
3541.43587,0.01107
3539.37570,0.01137
3537.31552,0.01147
3535.25535,0.01162
3533.19518,0.01180
3531.13501,0.01196
3529.07484,0.01206
3527.01466,0.01205
3524.95449,0.01212
3522.89432,0.01240
3520.83415,0.01270
3518.77398,0.01284
3516.71380,0.01294
3514.65363,0.01318
3512.59346,0.01341
3510.53329,0.01349
3508.47312,0.01359
3506.41294,0.01372
3504.35277,0.01371
3502.29260,0.01365
3500.23243,0.01386
3498.17225,0.01426
3496.11208,0.01452
3494.05191,0.01458
3491.99174,0.01463
3489.93157,0.01478
3487.87139,0.01489
3485.81122,0.01493
3483.75105,0.01517
3481.69088,0.01558
3479.63071,0.01579
3477.57053,0.01577
3475.51036,0.01579
3473.45019,0.01591
3471.39002,0.01598
3469.32984,0.01602
3467.26967,0.01625
3465.20950,0.01660
3463.14933,0.01678
3461.08916,0.01676
3459.02898,0.01680
3456.96881,0.01691
3454.90864,0.01701
3452.84847,0.01707
3450.78830,0.01710
3448.72812,0.01726
3446.66795,0.01753
3444.60778,0.01749
3442.54761,0.01720
3440.48744,0.01716
3438.42726,0.01750
3436.36709,0.01803
3434.30692,0.01838
3432.24675,0.01837
3430.18657,0.01831
3428.12640,0.01836
3426.06623,0.01834
3424.00606,0.01835
3421.94589,0.01844
3419.88571,0.01849
3417.82554,0.01859
3415.76537,0.01892
3413.70520,0.01931
3411.64503,0.01948
3409.58485,0.01963
3407.52468,0.01982
3405.46451,0.01985
3403.40434,0.01973
3401.34416,0.01960
3399.28399,0.01923
3397.22382,0.01926
3395.16365,0.01927
3393.10348,0.01916
3391.04330,0.01920
3388.98313,0.01939
3386.92296,0.01951
3384.86279,0.01953
3382.80262,0.01970
3380.74244,0.02009
3378.68227,0.02043
3376.62210,0.02057
3374.56193,0.02053
3372.50176,0.02047
3370.44158,0.02048
3368.38141,0.02046
3366.32124,0.02037
3364.26107,0.02043
3362.20089,0.02063
3360.14072,0.02090
3358.08055,0.02126
3356.02038,0.02150
3353.96021,0.02143
3351.90003,0.02127
3349.83986,0.02114
3347.77969,0.02116
3345.71952,0.02138
3343.65935,0.02162
3341.59917,0.02176
3339.53900,0.02174
3337.47883,0.02158
3335.41866,0.02155
3333.35849,0.02166
3331.29831,0.02172
3329.23814,0.02175
3327.17797,0.02180
3325.11780,0.02186
3323.05762,0.02198
3320.99745,0.02208
3318.93728,0.02208
3316.87711,0.02206
3314.81694,0.02205
3312.75676,0.02192
3310.69659,0.02181
3308.63642,0.02192
3306.57625,0.02206
3304.51608,0.02207
3302.45590,0.02207
3300.39573,0.02207
3298.33556,0.02214
3296.27539,0.02222
3294.21521,0.02215
3292.15504,0.02210
3290.09487,0.02219
3288.03470,0.02224
3285.97453,0.02212
3283.91435,0.02204
3281.85418,0.02208
3279.79401,0.02218
3277.73384,0.02226
3275.67367,0.02236
3273.61349,0.02251
3271.55332,0.02264
3269.49315,0.02266
3267.43298,0.02259
3265.37281,0.02248
3263.31263,0.02244
3261.25246,0.02248
3259.19229,0.02246
3257.13212,0.02232
3255.07194,0.02220
3253.01177,0.02222
3250.95160,0.02235
3248.89143,0.02240
3246.83126,0.02243
3244.77108,0.02248
3242.71091,0.02236
3240.65074,0.02216
3238.59057,0.02214
3236.53040,0.02219
3234.47022,0.02219
3232.41005,0.02221
3230.34988,0.02219
3228.28971,0.02207
3226.22954,0.02200
3224.16936,0.02201
3222.10919,0.02195
3220.04902,0.02190
3217.98885,0.02205
3215.92867,0.02216
3213.86850,0.02203
3211.80833,0.02179
3209.74816,0.02168
3207.68799,0.02174
3205.62781,0.02191
3203.56764,0.02209
3201.50747,0.02213
3199.44730,0.02203
3197.38713,0.02199
3195.32695,0.02200
3193.26678,0.02183
3191.20661,0.02159
3189.14644,0.02151
3187.08626,0.02155
3185.02609,0.02152
3182.96592,0.02144
3180.90575,0.02137
3178.84558,0.02139
3176.78540,0.02134
3174.72523,0.02109
3172.66506,0.02089
3170.60489,0.02098
3168.54472,0.02123
3166.48454,0.02129
3164.42437,0.02106
3162.36420,0.02083
3160.30403,0.02080
3158.24386,0.02090
3156.18368,0.02093
3154.12351,0.02088
3152.06334,0.02084
3150.00317,0.02082
3147.94299,0.02079
3145.88282,0.02074
3143.82265,0.02063
3141.76248,0.02047
3139.70231,0.02044
3137.64213,0.02055
3135.58196,0.02056
3133.52179,0.02050
3131.46162,0.02047
3129.40145,0.02039
3127.34127,0.02032
3125.28110,0.02028
3123.22093,0.02010
3121.16076,0.01980
3119.10058,0.01957
3117.04041,0.01951
3114.98024,0.01956
3112.92007,0.01968
3110.85990,0.01974
3108.79972,0.01962
3106.73955,0.01949
3104.67938,0.01945
3102.61921,0.01940
3100.55904,0.01943
3098.49886,0.01946
3096.43869,0.01936
3094.37852,0.01931
3092.31835,0.01930
3090.25818,0.01926
3088.19800,0.01916
3086.13783,0.01911
3084.07766,0.01915
3082.01749,0.01913
3079.95731,0.01900
3077.89714,0.01892
3075.83697,0.01896
3073.77680,0.01904
3071.71663,0.01905
3069.65645,0.01896
3067.59628,0.01879
3065.53611,0.01855
3063.47594,0.01827
3061.41577,0.01805
3059.35559,0.01789
3057.29542,0.01787
3055.23525,0.01802
3053.17508,0.01811
3051.11491,0.01796
3049.05473,0.01772
3046.99456,0.01765
3044.93439,0.01772
3042.87422,0.01777
3040.81404,0.01775
3038.75387,0.01762
3036.69370,0.01739
3034.63353,0.01714
3032.57336,0.01701
3030.51318,0.01701
3028.45301,0.01691
3026.39284,0.01673
3024.33267,0.01670
3022.27250,0.01672
3020.21232,0.01665
3018.15215,0.01662
3016.09198,0.01660
3014.03181,0.01655
3011.97163,0.01652
3009.91146,0.01646
3007.85129,0.01624
3005.79112,0.01601
3003.73095,0.01595
3001.67077,0.01601
2999.61060,0.01616
2997.55043,0.01626
2995.49026,0.01617
2993.43009,0.01595
2991.36991,0.01579
2989.30974,0.01566
2987.24957,0.01558
2985.18940,0.01565
2983.12923,0.01584
2981.06905,0.01603
2979.00888,0.01613
2976.94871,0.01611
2974.88854,0.01596
2972.82836,0.01577
2970.76819,0.01574
2968.70802,0.01592
2966.64785,0.01609
2964.58768,0.01615
2962.52750,0.01613
2960.46733,0.01612
2958.40716,0.01605
2956.34699,0.01583
2954.28682,0.01571
2952.22664,0.01588
2950.16647,0.01604
2948.10630,0.01599
2946.04613,0.01593
2943.98596,0.01592
2941.92578,0.01590
2939.86561,0.01596
2937.80544,0.01604
2935.74527,0.01609
2933.68509,0.01625
2931.62492,0.01645
2929.56475,0.01634
2927.50458,0.01599
2925.44441,0.01581
2923.38423,0.01581
2921.32406,0.01570
2919.26389,0.01556
2917.20372,0.01558
2915.14355,0.01563
2913.08337,0.01557
2911.02320,0.01553
2908.96303,0.01547
2906.90286,0.01531
2904.84268,0.01514
2902.78251,0.01502
2900.72234,0.01503
2898.66217,0.01512
2896.60200,0.01510
2894.54182,0.01498
2892.48165,0.01490
2890.42148,0.01488
2888.36131,0.01491
2886.30114,0.01502
2884.24096,0.01518
2882.18079,0.01524
2880.12062,0.01512
2878.06045,0.01498
2876.00028,0.01496
2873.94010,0.01497
2871.87993,0.01494
2869.81976,0.01487
2867.75959,0.01467
2865.69941,0.01442
2863.63924,0.01430
2861.57907,0.01423
2859.51890,0.01417
2857.45873,0.01417
2855.39855,0.01409
2853.33838,0.01395
2851.27821,0.01383
2849.21804,0.01365
2847.15787,0.01341
2845.09769,0.01326
2843.03752,0.01335
2840.97735,0.01342
2838.91718,0.01330
2836.85700,0.01321
2834.79683,0.01321
2832.73666,0.01317
2830.67649,0.01305
2828.61632,0.01290
2826.55614,0.01280
2824.49597,0.01271
2822.43580,0.01255
2820.37563,0.01239
2818.31546,0.01224
2816.25528,0.01213
2814.19511,0.01217
2812.13494,0.01233
2810.07477,0.01240
2808.01460,0.01235
2805.95442,0.01224
2803.89425,0.01216
2801.83408,0.01219
2799.77391,0.01222
2797.71373,0.01208
2795.65356,0.01186
2793.59339,0.01183
2791.53322,0.01207
2789.47305,0.01224
2787.41287,0.01207
2785.35270,0.01180
2783.29253,0.01167
2781.23236,0.01161
2779.17219,0.01154
2777.11201,0.01146
2775.05184,0.01138
2772.99167,0.01128
2770.93150,0.01118
2768.87133,0.01110
2766.81115,0.01113
2764.75098,0.01129
2762.69081,0.01136
2760.63064,0.01123
2758.57046,0.01101
2756.51029,0.01080
2754.45012,0.01064
2752.38995,0.01070
2750.32978,0.01093
2748.26960,0.01102
2746.20943,0.01089
2744.14926,0.01073
2742.08909,0.01060
2740.02892,0.01056
2737.96874,0.01054
2735.90857,0.01045
2733.84840,0.01037
2731.78823,0.01034
2729.72805,0.01034
2727.66788,0.01034
2725.60771,0.01033
2723.54754,0.01034
2721.48737,0.01030
2719.42719,0.01015
2717.36702,0.00998
2715.30685,0.00986
2713.24668,0.00973
2711.18651,0.00964
2709.12633,0.00965
2707.06616,0.00972
2705.00599,0.00986
2702.94582,0.00997
2700.88565,0.00994
2698.82547,0.00980
2696.76530,0.00967
2694.70513,0.00958
2692.64496,0.00955
2690.58478,0.00952
2688.52461,0.00944
2686.46444,0.00942
2684.40427,0.00950
2682.34410,0.00948
2680.28392,0.00938
2678.22375,0.00929
2676.16358,0.00918
2674.10341,0.00912
2672.04324,0.00903
2669.98306,0.00889
2667.92289,0.00876
2665.86272,0.00877
2663.80255,0.00892
2661.74238,0.00895
2659.68220,0.00879
2657.62203,0.00863
2655.56186,0.00863
2653.50169,0.00873
2651.44151,0.00876
2649.38134,0.00865
2647.32117,0.00853
2645.26100,0.00845
2643.20083,0.00839
2641.14065,0.00847
2639.08048,0.00859
2637.02031,0.00850
2634.96014,0.00834
2632.89997,0.00824
2630.83979,0.00813
2628.77962,0.00805
2626.71945,0.00804
2624.65928,0.00800
2622.59910,0.00785
2620.53893,0.00774
2618.47876,0.00773
2616.41859,0.00767
2614.35842,0.00760
2612.29824,0.00754
2610.23807,0.00742
2608.17790,0.00737
2606.11773,0.00733
2604.05756,0.00722
2601.99738,0.00713
2599.93721,0.00713
2597.87704,0.00725
2595.81687,0.00739
2593.75670,0.00743
2591.69652,0.00736
2589.63635,0.00714
2587.57618,0.00696
2585.51601,0.00701
2583.45583,0.00704
2581.39566,0.00697
2579.33549,0.00696
2577.27532,0.00703
2575.21515,0.00703
2573.15497,0.00698
2571.09480,0.00704
2569.03463,0.00720
2566.97446,0.00733
2564.91429,0.00743
2562.85411,0.00744
2560.79394,0.00720
2558.73377,0.00689
2556.67360,0.00678
2554.61342,0.00674
2552.55325,0.00664
2550.49308,0.00662
2548.43291,0.00677
2546.37274,0.00684
2544.31256,0.00664
2542.25239,0.00661
2540.19222,0.00694
2538.13205,0.00701
2536.07188,0.00660
2534.01170,0.00637
2531.95153,0.00657
2529.89136,0.00679
2527.83119,0.00682
2525.77102,0.00669
2523.71084,0.00664
2521.65067,0.00684
2519.59050,0.00698
2517.53033,0.00689
2515.47015,0.00685
2513.40998,0.00698
2511.34981,0.00705
2509.28964,0.00707
2507.22947,0.00710
2505.16929,0.00708
2503.10912,0.00710
2501.04895,0.00718
2498.98878,0.00723
2496.92861,0.00729
2494.86843,0.00742
2492.80826,0.00753
2490.74809,0.00749
2488.68792,0.00737
2486.62775,0.00720
2484.56757,0.00711
2482.50740,0.00720
2480.44723,0.00732
2478.38706,0.00740
2476.32688,0.00739
2474.26671,0.00729
2472.20654,0.00732
2470.14637,0.00753
2468.08620,0.00775
2466.02602,0.00782
2463.96585,0.00762
2461.90568,0.00737
2459.84551,0.00736
2457.78534,0.00767
2455.72516,0.00800
2453.66499,0.00795
2451.60482,0.00762
2449.54465,0.00728
2447.48447,0.00711
2445.42430,0.00707
2443.36413,0.00714
2441.30396,0.00729
2439.24379,0.00730
2437.18361,0.00717
2435.12344,0.00723
2433.06327,0.00734
2431.00310,0.00725
2428.94293,0.00728
2426.88275,0.00748
2424.82258,0.00750
2422.76241,0.00735
2420.70224,0.00731
2418.64207,0.00727
2416.58189,0.00710
2414.52172,0.00714
2412.46155,0.00739
2410.40138,0.00750
2408.34120,0.00731
2406.28103,0.00700
2404.22086,0.00683
2402.16069,0.00696
2400.10052,0.00721
2398.04034,0.00727
2395.98017,0.00718
2393.92000,0.00710
2391.85983,0.00698
2389.79966,0.00686
2387.73948,0.00675
2385.67931,0.00650
2383.61914,0.00603
2381.55897,0.00556
2379.49880,0.00530
2377.43862,0.00521
2375.37845,0.00524
2373.31828,0.00517
2371.25811,0.00513
2369.19793,0.00537
2367.13776,0.00556
2365.07759,0.00563
2363.01742,0.00631
2360.95725,0.00698
2358.89707,0.00746
2356.83690,0.00717
2354.77673,0.00657
2352.71656,0.00604
2350.65639,0.00539
2348.59621,0.00526
2346.53604,0.00662
2344.47587,0.00728
2342.41570,0.00722
2340.35552,0.00672
2338.29535,0.00639
2336.23518,0.00654
2334.17501,0.00662
2332.11484,0.00640
2330.05466,0.00596
2327.99449,0.00570
2325.93432,0.00548
2323.87415,0.00555
2321.81398,0.00546
2319.75380,0.00551
2317.69363,0.00539
2315.63346,0.00531
2313.57329,0.00534
2311.51312,0.00542
2309.45294,0.00550
2307.39277,0.00554
2305.33260,0.00565
2303.27243,0.00585
2301.21225,0.00605
2299.15208,0.00600
2297.09191,0.00580
2295.03174,0.00575
2292.97157,0.00593
2290.91139,0.00624
2288.85122,0.00633
2286.79105,0.00615
2284.73088,0.00598
2282.67071,0.00600
2280.61053,0.00620
2278.55036,0.00622
2276.49019,0.00585
2274.43002,0.00560
2272.36984,0.00569
2270.30967,0.00577
2268.24950,0.00586
2266.18933,0.00603
2264.12916,0.00603
2262.06898,0.00602
2260.00881,0.00591
2257.94864,0.00524
2255.88847,0.00451
2253.82830,0.00468
2251.76812,0.00547
2249.70795,0.00562
2247.64778,0.00499
2245.58761,0.00459
2243.52744,0.00450
2241.46726,0.00465
2239.40709,0.00488
2237.34692,0.00466
2235.28675,0.00412
2233.22657,0.00388
2231.16640,0.00407
2229.10623,0.00438
2227.04606,0.00443
2224.98589,0.00414
2222.92571,0.00391
2220.86554,0.00389
2218.80537,0.00368
2216.74520,0.00320
2214.68503,0.00295
2212.62485,0.00306
2210.56468,0.00320
2208.50451,0.00335
2206.44434,0.00332
2204.38417,0.00314
2202.32399,0.00337
2200.26382,0.00393
2198.20365,0.00423
2196.14348,0.00399
2194.08330,0.00350
2192.02313,0.00315
2189.96296,0.00287
2187.90279,0.00237
2185.84262,0.00166
2183.78244,0.00135
2181.72227,0.00221
2179.66210,0.00349
2177.60193,0.00367
2175.54176,0.00276
2173.48158,0.00192
2171.42141,0.00178
2169.36124,0.00191
2167.30107,0.00178
2165.24089,0.00166
2163.18072,0.00163
2161.12055,0.00119
2159.06038,0.00052
2157.00021,0.00002
2154.94003,0.00012
2152.87986,0.00056
2150.81969,0.00039
2148.75952,0.00000
2146.69935,0.00037
2144.63917,0.00122
2142.57900,0.00178
2140.51883,0.00180
2138.45866,0.00179
2136.39849,0.00203
2134.33831,0.00193
2132.27814,0.00163
2130.21797,0.00162
2128.15780,0.00174
2126.09762,0.00193
2124.03745,0.00222
2121.97728,0.00239
2119.91711,0.00265
2117.85694,0.00316
2115.79676,0.00344
2113.73659,0.00356
2111.67642,0.00371
2109.61625,0.00354
2107.55608,0.00331
2105.49590,0.00323
2103.43573,0.00298
2101.37556,0.00249
2099.31539,0.00194
2097.25521,0.00155
2095.19504,0.00164
2093.13487,0.00176
2091.07470,0.00180
2089.01453,0.00214
2086.95435,0.00257
2084.89418,0.00301
2082.83401,0.00341
2080.77384,0.00339
2078.71367,0.00309
2076.65349,0.00301
2074.59332,0.00321
2072.53315,0.00336
2070.47298,0.00317
2068.41281,0.00270
2066.35263,0.00235
2064.29246,0.00215
2062.23229,0.00184
2060.17212,0.00173
2058.11194,0.00197
2056.05177,0.00230
2053.99160,0.00269
2051.93143,0.00278
2049.87126,0.00243
2047.81108,0.00222
2045.75091,0.00249
2043.69074,0.00269
2041.63057,0.00242
2039.57040,0.00263
2037.51022,0.00347
2035.45005,0.00330
2033.38988,0.00196
2031.32971,0.00160
2029.26954,0.00259
2027.20936,0.00300
2025.14919,0.00251
2023.08902,0.00187
2021.02885,0.00139
2018.96867,0.00141
2016.90850,0.00180
2014.84833,0.00215
2012.78816,0.00257
2010.72799,0.00315
2008.66781,0.00333
2006.60764,0.00294
2004.54747,0.00214
2002.48730,0.00128
2000.42713,0.00106
1998.36695,0.00102
1996.30678,0.00077
1994.24661,0.00120
1992.18644,0.00214
1990.12626,0.00245
1988.06609,0.00219
1986.00592,0.00229
1983.94575,0.00326
1981.88558,0.00428
1979.82540,0.00405
1977.76523,0.00317
1975.70506,0.00303
1973.64489,0.00297
1971.58472,0.00210
1969.52454,0.00125
1967.46437,0.00106
1965.40420,0.00097
1963.34403,0.00043
1961.28386,0.00000
1959.22368,0.00042
1957.16351,0.00101
1955.10334,0.00093
1953.04317,0.00078
1950.98299,0.00131
1948.92282,0.00196
1946.86265,0.00209
1944.80248,0.00204
1942.74231,0.00211
1940.68213,0.00182
1938.62196,0.00126
1936.56179,0.00118
1934.50162,0.00168
1932.44145,0.00206
1930.38127,0.00197
1928.32110,0.00186
1926.26093,0.00202
1924.20076,0.00218
1922.14059,0.00211
1920.08041,0.00199
1918.02024,0.00213
1915.96007,0.00241
1913.89990,0.00253
1911.83972,0.00238
1909.77955,0.00206
1907.71938,0.00186
1905.65921,0.00205
1903.59904,0.00253
1901.53886,0.00301
1899.47869,0.00317
1897.41852,0.00296
1895.35835,0.00271
1893.29818,0.00269
1891.23800,0.00277
1889.17783,0.00264
1887.11766,0.00240
1885.05749,0.00245
1882.99731,0.00269
1880.93714,0.00278
1878.87697,0.00271
1876.81680,0.00265
1874.75663,0.00260
1872.69645,0.00242
1870.63628,0.00218
1868.57611,0.00216
1866.51594,0.00241
1864.45577,0.00266
1862.39559,0.00274
1860.33542,0.00261
1858.27525,0.00248
1856.21508,0.00254
1854.15491,0.00268
1852.09473,0.00267
1850.03456,0.00240
1847.97439,0.00211
1845.91422,0.00224
1843.85404,0.00276
1841.79387,0.00309
1839.73370,0.00303
1837.67353,0.00290
1835.61336,0.00279
1833.55318,0.00269
1831.49301,0.00274
1829.43284,0.00293
1827.37267,0.00296
1825.31250,0.00283
1823.25232,0.00281
1821.19215,0.00290
1819.13198,0.00297
1817.07181,0.00299
1815.01163,0.00289
1812.95146,0.00269
1810.89129,0.00263
1808.83112,0.00285
1806.77095,0.00306
1804.71077,0.00303
1802.65060,0.00285
1800.59043,0.00278
1798.53026,0.00283
1796.47009,0.00274
1794.40991,0.00258
1792.34974,0.00261
1790.28957,0.00281
1788.22940,0.00294
1786.16923,0.00296
1784.10905,0.00299
1782.04888,0.00309
1779.98871,0.00316
1777.92854,0.00307
1775.86836,0.00288
1773.80819,0.00289
1771.74802,0.00309
1769.68785,0.00311
1767.62768,0.00308
1765.56750,0.00325
1763.50733,0.00346
1761.44716,0.00360
1759.38699,0.00363
1757.32682,0.00367
1755.26664,0.00379
1753.20647,0.00381
1751.14630,0.00372
1749.08613,0.00374
1747.02596,0.00388
1744.96578,0.00403
1742.90561,0.00417
1740.84544,0.00425
1738.78527,0.00426
1736.72509,0.00423
1734.66492,0.00425
1732.60475,0.00445
1730.54458,0.00464
1728.48441,0.00459
1726.42423,0.00439
1724.36406,0.00421
1722.30389,0.00414
1720.24372,0.00415
1718.18355,0.00407
1716.12337,0.00387
1714.06320,0.00383
1712.00303,0.00385
1709.94286,0.00386
1707.88268,0.00386
1705.82251,0.00380
1703.76234,0.00375
1701.70217,0.00396
1699.64200,0.00447
1697.58182,0.00498
1695.52165,0.00548
1693.46148,0.00588
1691.40131,0.00606
1689.34114,0.00621
1687.28096,0.00657
1685.22079,0.00737
1683.16062,0.00828
1681.10045,0.00873
1679.04028,0.00893
1676.98010,0.00924
1674.91993,0.00974
1672.85976,0.01029
1670.79959,0.01090
1668.73941,0.01152
1666.67924,0.01183
1664.61907,0.01194
1662.55890,0.01214
1660.49873,0.01228
1658.43855,0.01225
1656.37838,0.01222
1654.31821,0.01246
1652.25804,0.01278
1650.19787,0.01271
1648.13769,0.01248
1646.07752,0.01254
1644.01735,0.01254
1641.95718,0.01235
1639.89701,0.01221
1637.83683,0.01221
1635.77666,0.01226
1633.71649,0.01216
1631.65632,0.01185
1629.59614,0.01154
1627.53597,0.01137
1625.47580,0.01122
1623.41563,0.01100
1621.35546,0.01075
1619.29528,0.01060
1617.23511,0.01067
1615.17494,0.01075
1613.11477,0.01062
1611.05460,0.01045
1608.99442,0.01039
1606.93425,0.01037
1604.87408,0.01031
1602.81391,0.01015
1600.75373,0.00992
1598.69356,0.00970
1596.63339,0.00947
1594.57322,0.00923
1592.51305,0.00899
1590.45287,0.00880
1588.39270,0.00865
1586.33253,0.00851
1584.27236,0.00825
1582.21219,0.00790
1580.15201,0.00765
1578.09184,0.00759
1576.03167,0.00750
1573.97150,0.00712
1571.91133,0.00676
1569.85115,0.00672
1567.79098,0.00676
1565.73081,0.00654
1563.67064,0.00614
1561.61046,0.00587
1559.55029,0.00589
1557.49012,0.00586
1555.42995,0.00557
1553.36978,0.00524
1551.30960,0.00504
1549.24943,0.00496
1547.18926,0.00484
1545.12909,0.00463
1543.06892,0.00460
1541.00874,0.00494
1538.94857,0.00496
1536.88840,0.00440
1534.82823,0.00394
1532.76805,0.00395
1530.70788,0.00404
1528.64771,0.00392
1526.58754,0.00359
1524.52737,0.00320
1522.46719,0.00298
1520.40702,0.00296
1518.34685,0.00304
1516.28668,0.00307
1514.22651,0.00288
1512.16633,0.00243
1510.10616,0.00196
1508.04599,0.00195
1505.98582,0.00264
1503.92565,0.00303
1501.86547,0.00283
1499.80530,0.00264
1497.74513,0.00273
1495.68496,0.00294
1493.62478,0.00299
1491.56461,0.00283
1489.50444,0.00270
1487.44427,0.00277
1485.38410,0.00293
1483.32392,0.00304
1481.26375,0.00309
1479.20358,0.00303
1477.14341,0.00292
1475.08324,0.00300
1473.02306,0.00344
1470.96289,0.00393
1468.90272,0.00410
1466.84255,0.00420
1464.78238,0.00440
1462.72220,0.00446
1460.66203,0.00444
1458.60186,0.00456
1456.54169,0.00465
1454.48151,0.00457
1452.42134,0.00443
1450.36117,0.00443
1448.30100,0.00463
1446.24083,0.00494
1444.18065,0.00521
1442.12048,0.00529
1440.06031,0.00518
1438.00014,0.00498
1435.93997,0.00488
1433.87979,0.00495
1431.81962,0.00511
1429.75945,0.00534
1427.69928,0.00550
1425.63910,0.00558
1423.57893,0.00565
1421.51876,0.00564
1419.45859,0.00554
1417.39842,0.00561
1415.33824,0.00589
1413.27807,0.00614
1411.21790,0.00632
1409.15773,0.00648
1407.09756,0.00657
1405.03738,0.00655
1402.97721,0.00649
1400.91704,0.00635
1398.85687,0.00605
1396.79670,0.00580
1394.73652,0.00587
1392.67635,0.00606
1390.61618,0.00603
1388.55601,0.00592
1386.49583,0.00603
1384.43566,0.00627
1382.37549,0.00636
1380.31532,0.00629
1378.25515,0.00623
1376.19497,0.00624
1374.13480,0.00619
1372.07463,0.00616
1370.01446,0.00622
1367.95429,0.00628
1365.89411,0.00618
1363.83394,0.00592
1361.77377,0.00574
1359.71360,0.00578
1357.65343,0.00586
1355.59325,0.00590
1353.53308,0.00590
1351.47291,0.00585
1349.41274,0.00574
1347.35256,0.00565
1345.29239,0.00554
1343.23222,0.00532
1341.17205,0.00489
1339.11188,0.00448
1337.05170,0.00447
1334.99153,0.00480
1332.93136,0.00507
1330.87119,0.00512
1328.81102,0.00512
1326.75084,0.00514
1324.69067,0.00514
1322.63050,0.00515
1320.57033,0.00519
1318.51015,0.00515
1316.44998,0.00508
1314.38981,0.00514
1312.32964,0.00526
1310.26947,0.00530
1308.20929,0.00532
1306.14912,0.00536
1304.08895,0.00543
1302.02878,0.00547
1299.96861,0.00549
1297.90843,0.00551
1295.84826,0.00556
1293.78809,0.00562
1291.72792,0.00560
1289.66775,0.00549
1287.60757,0.00542
1285.54740,0.00549
1283.48723,0.00560
1281.42706,0.00560
1279.36688,0.00554
1277.30671,0.00548
1275.24654,0.00549
1273.18637,0.00556
1271.12620,0.00557
1269.06602,0.00552
1267.00585,0.00553
1264.94568,0.00559
1262.88551,0.00567
1260.82534,0.00573
1258.76516,0.00577
1256.70499,0.00584
1254.64482,0.00589
1252.58465,0.00592
1250.52447,0.00591
1248.46430,0.00581
1246.40413,0.00570
1244.34396,0.00573
1242.28379,0.00585
1240.22361,0.00584
1238.16344,0.00564
1236.10327,0.00539
1234.04310,0.00523
1231.98293,0.00510
1229.92275,0.00491
1227.86258,0.00472
1225.80241,0.00458
1223.74224,0.00441
1221.68207,0.00425
1219.62189,0.00417
1217.56172,0.00413
1215.50155,0.00398
1213.44138,0.00364
1211.38120,0.00329
1209.32103,0.00320
1207.26086,0.00333
1205.20069,0.00348
1203.14052,0.00351
1201.08034,0.00345
1199.02017,0.00340
1196.96000,0.00351
1194.89983,0.00378
1192.83966,0.00416
1190.77948,0.00452
1188.71931,0.00482
1186.65914,0.00522
1184.59897,0.00578
1182.53880,0.00632
1180.47862,0.00672
1178.41845,0.00712
1176.35828,0.00760
1174.29811,0.00817
1172.23793,0.00870
1170.17776,0.00912
1168.11759,0.00949
1166.05742,0.00996
1163.99725,0.01062
1161.93707,0.01135
1159.87690,0.01191
1157.81673,0.01244
1155.75656,0.01306
1153.69639,0.01361
1151.63621,0.01418
1149.57604,0.01491
1147.51587,0.01567
1145.45570,0.01628
1143.39552,0.01685
1141.33535,0.01746
1139.27518,0.01801
1137.21501,0.01852
1135.15484,0.01912
1133.09466,0.01975
1131.03449,0.02033
1128.97432,0.02091
1126.91415,0.02149
1124.85398,0.02206
1122.79380,0.02268
1120.73363,0.02340
1118.67346,0.02420
1116.61329,0.02499
1114.55312,0.02563
1112.49294,0.02620
1110.43277,0.02675
1108.37260,0.02722
1106.31243,0.02768
1104.25225,0.02817
1102.19208,0.02875
1100.13191,0.02939
1098.07174,0.02996
1096.01157,0.03043
1093.95139,0.03091
1091.89122,0.03150
1089.83105,0.03211
1087.77088,0.03264
1085.71071,0.03309
1083.65053,0.03345
1081.59036,0.03373
1079.53019,0.03409
1077.47002,0.03451
1075.40985,0.03481
1073.34967,0.03499
1071.28950,0.03517
1069.22933,0.03533
1067.16916,0.03525
1065.10898,0.03499
1063.04881,0.03479
1060.98864,0.03454
1058.92847,0.03408
1056.86830,0.03345
1054.80812,0.03275
1052.74795,0.03208
1050.68778,0.03150
1048.62761,0.03072
1046.56744,0.02969
1044.50726,0.02858
1042.44709,0.02756
1040.38692,0.02664
1038.32675,0.02563
1036.26657,0.02462
1034.20640,0.02374
1032.14623,0.02288
1030.08606,0.02203
1028.02589,0.02116
1025.96571,0.02029
1023.90554,0.01956
1021.84537,0.01899
1019.78520,0.01842
1017.72503,0.01787
1015.66485,0.01744
1013.60468,0.01726
1011.54451,0.01735
1009.48434,0.01752
1007.42417,0.01765
1005.36399,0.01779
1003.30382,0.01809
1001.24365,0.01859
999.18348,0.01923
997.12330,0.01990
995.06313,0.02048
993.00296,0.02096
990.94279,0.02146
988.88262,0.02204
986.82244,0.02254
984.76227,0.02283
982.70210,0.02297
980.64193,0.02307
978.58176,0.02318
976.52158,0.02315
974.46141,0.02294
972.40124,0.02266
970.34107,0.02231
968.28089,0.02185
966.22072,0.02140
964.16055,0.02106
962.10038,0.02072
960.04021,0.02022
957.98003,0.01957
955.91986,0.01896
953.85969,0.01849
951.79952,0.01794
949.73935,0.01719
947.67917,0.01649
945.61900,0.01598
943.55883,0.01555
941.49866,0.01499
939.43849,0.01434
937.37831,0.01379
935.31814,0.01337
933.25797,0.01289
931.19780,0.01238
929.13762,0.01188
927.07745,0.01142
925.01728,0.01102
922.95711,0.01059
920.89694,0.01014
918.83676,0.00980
916.77659,0.00951
914.71642,0.00921
912.65625,0.00896
910.59608,0.00886
908.53590,0.00876
906.47573,0.00855
904.41556,0.00843
902.35539,0.00849
900.29522,0.00852
898.23504,0.00866
896.17487,0.00901
894.11470,0.00933
892.05453,0.00958
889.99435,0.00973
887.93418,0.00987
885.87401,0.01024
883.81384,0.01082
881.75367,0.01138
879.69349,0.01180
877.63332,0.01211
875.57315,0.01248
873.51298,0.01305
871.45281,0.01368
869.39263,0.01416
867.33246,0.01444
865.27229,0.01465
863.21212,0.01487
861.15194,0.01512
859.09177,0.01538
857.03160,0.01554
854.97143,0.01558
852.91126,0.01550
850.85108,0.01547
848.79091,0.01564
846.73074,0.01558
844.67057,0.01497
842.61040,0.01426
840.55022,0.01376
838.49005,0.01346
836.42988,0.01313
834.36971,0.01259
832.30954,0.01200
830.24936,0.01153
828.18919,0.01127
826.12902,0.01122
824.06885,0.01104
822.00867,0.01046
819.94850,0.00970
817.88833,0.00921
815.82816,0.00902
813.76799,0.00873
811.70781,0.00831
809.64764,0.00808
807.58747,0.00796
805.52730,0.00785
803.46713,0.00766
801.40695,0.00736
799.34678,0.00706
797.28661,0.00684
795.22644,0.00668
793.16627,0.00648
791.10609,0.00638
789.04592,0.00665
786.98575,0.00704
784.92558,0.00720
782.86540,0.00711
780.80523,0.00668
778.74506,0.00597
776.68489,0.00547
774.62472,0.00545
772.56454,0.00560
770.50437,0.00551
768.44420,0.00546
766.38403,0.00583
764.32386,0.00613
762.26368,0.00588
760.20351,0.00537
758.14334,0.00511
756.08317,0.00517
754.02299,0.00509
751.96282,0.00479
749.90265,0.00465
747.84248,0.00460
745.78231,0.00450
743.72213,0.00438
741.66196,0.00422
739.60179,0.00428
737.54162,0.00452
735.48145,0.00448
733.42127,0.00429
731.36110,0.00408
729.30093,0.00380
727.24076,0.00368
725.18059,0.00381
723.12041,0.00407
721.06024,0.00459
719.00007,0.00483
716.93990,0.00481
714.87972,0.00459
712.81955,0.00417
710.75938,0.00381
708.69921,0.00364
706.63904,0.00355
704.57886,0.00354
702.51869,0.00365
700.45852,0.00363
698.39835,0.00350
696.33818,0.00358
694.27800,0.00383
692.21783,0.00382
690.15766,0.00354
688.09749,0.00361
686.03731,0.00411
683.97714,0.00432
681.91697,0.00405
679.85680,0.00377
677.79663,0.00356
675.73645,0.00318
673.67628,0.00273
671.61611,0.00252
669.55594,0.00416
667.49577,0.00644
665.43559,0.00380
663.37542,0.00327
661.31525,0.00329
659.25508,0.00334
657.19491,0.00372
655.13473,0.00409
653.07456,0.00384
651.01439,0.00315
648.95422,0.00283
646.89404,0.00285
644.83387,0.00282
642.77370,0.00279
640.71353,0.00290
638.65336,0.00276
636.59318,0.00224
634.53301,0.00195
632.47284,0.00228
630.41267,0.00250
628.35250,0.00234
626.29232,0.00261
624.23215,0.00352
622.17198,0.00451
620.11181,0.00448
618.05164,0.00251
615.99146,0.00092
613.93129,0.00168
611.87112,0.00304
609.81095,0.00273
607.75077,0.00129
605.69060,0.00106
603.63043,0.00176
601.57026,0.00119
599.51009,0.00000
