3996.73391,-0.00166
3994.67373,-0.00152
3992.61356,-0.00121
3990.55339,-0.00085
3988.49322,-0.00067
3986.43305,-0.00066
3984.37287,-0.00059
3982.31270,-0.00046
3980.25253,-0.00043
3978.19236,-0.00059
3976.13219,-0.00072
3974.07201,-0.00059
3972.01184,-0.00042
3969.95167,-0.00038
3967.89150,-0.00026
3965.83133,-0.00005
3963.77115,0.00009
3961.71098,0.00011
3959.65081,0.00008
3957.59064,0.00008
3955.53046,0.00023
3953.47029,0.00042
3951.41012,0.00036
3949.34995,0.00008
3947.28978,0.00000
3945.22960,0.00028
3943.16943,0.00059
3941.10926,0.00067
3939.04909,0.00057
3936.98892,0.00042
3934.92874,0.00024
3932.86857,0.00028
3930.80840,0.00070
3928.74823,0.00104
3926.68805,0.00095
3924.62788,0.00060
3922.56771,0.00020
3920.50754,0.00000
3918.44737,0.00026
3916.38719,0.00094
3914.32702,0.00145
3912.26685,0.00140
3910.20668,0.00104
3908.14651,0.00067
3906.08633,0.00045
3904.02616,0.00051
3901.96599,0.00097
3899.90582,0.00171
3897.84565,0.00208
3895.78547,0.00177
3893.72530,0.00126
3891.66513,0.00106
3889.60496,0.00113
3887.54478,0.00112
3885.48461,0.00101
3883.42444,0.00089
3881.36427,0.00097
3879.30410,0.00127
3877.24392,0.00122
3875.18375,0.00083
3873.12358,0.00051
3871.06341,0.00047
3869.00324,0.00080
3866.94306,0.00104
3864.88289,0.00108
3862.82272,0.00119
3860.76255,0.00116
3858.70237,0.00069
3856.64220,0.00005
3854.58203,0.00026
3852.52186,0.00163
3850.46169,0.00239
3848.40151,0.00201
3846.34134,0.00149
3844.28117,0.00134
3842.22100,0.00143
3840.16083,0.00152
3838.10065,0.00166
3836.04048,0.00189
3833.98031,0.00208
3831.92014,0.00232
3829.85997,0.00262
3827.79979,0.00264
3825.73962,0.00229
3823.67945,0.00198
3821.61928,0.00223
3819.55910,0.00264
3817.49893,0.00271
3815.43876,0.00285
3813.37859,0.00305
3811.31842,0.00291
3809.25824,0.00259
3807.19807,0.00235
3805.13790,0.00222
3803.07773,0.00231
3801.01756,0.00267
3798.95738,0.00275
3796.89721,0.00271
3794.83704,0.00300
3792.77687,0.00322
3790.71670,0.00316
3788.65652,0.00312
3786.59635,0.00326
3784.53618,0.00341
3782.47601,0.00351
3780.41583,0.00368
3778.35566,0.00397
3776.29549,0.00405
3774.23532,0.00375
3772.17515,0.00337
3770.11497,0.00330
3768.05480,0.00350
3765.99463,0.00369
3763.93446,0.00371
3761.87429,0.00354
3759.81411,0.00332
3757.75394,0.00312
3755.69377,0.00289
3753.63360,0.00252
3751.57342,0.00213
3749.51325,0.00197
3747.45308,0.00201
3745.39291,0.00217
3743.33274,0.00286
3741.27256,0.00325
3739.21239,0.00281
3737.15222,0.00253
3735.09205,0.00288
3733.03188,0.00352
3730.97170,0.00362
3728.91153,0.00352
3726.85136,0.00339
3724.79119,0.00317
3722.73102,0.00335
3720.67084,0.00344
3718.61067,0.00340
3716.55050,0.00300
3714.49033,0.00290
3712.43015,0.00404
3710.36998,0.00482
3708.30981,0.00503
3706.24964,0.00486
3704.18947,0.00463
3702.12929,0.00460
3700.06912,0.00476
3698.00895,0.00508
3695.94878,0.00511
3693.88861,0.00470
3691.82843,0.00414
3689.76826,0.00445
3687.70809,0.00512
3685.64792,0.00538
3683.58775,0.00499
3681.52757,0.00461
3679.46740,0.00426
3677.40723,0.00419
3675.34706,0.00459
3673.28688,0.00484
3671.22671,0.00478
3669.16654,0.00512
3667.10637,0.00547
3665.04620,0.00540
3662.98602,0.00529
3660.92585,0.00525
3658.86568,0.00518
3656.80551,0.00523
3654.74534,0.00526
3652.68516,0.00512
3650.62499,0.00532
3648.56482,0.00602
3646.50465,0.00646
3644.44447,0.00633
3642.38430,0.00612
3640.32413,0.00616
3638.26396,0.00619
3636.20379,0.00607
3634.14361,0.00607
3632.08344,0.00607
3630.02327,0.00627
3627.96310,0.00691
3625.90293,0.00765
3623.84275,0.00758
3621.78258,0.00716
3619.72241,0.00707
3617.66224,0.00701
3615.60207,0.00676
3613.54189,0.00639
3611.48172,0.00669
3609.42155,0.00735
3607.36138,0.00774
3605.30120,0.00785
3603.24103,0.00772
3601.18086,0.00793
3599.12069,0.00834
3597.06052,0.00871
3595.00034,0.00864
3592.94017,0.00871
3590.88000,0.00863
3588.81983,0.00875
3586.75966,0.00903
3584.69948,0.00919
3582.63931,0.00923
3580.57914,0.00936
3578.51897,0.00959
3576.45879,0.00969
3574.39862,0.00972
3572.33845,0.00977
3570.27828,0.00988
3568.21811,0.01016
3566.15793,0.01065
3564.09776,0.01088
3562.03759,0.01069
3559.97742,0.01061
3557.91725,0.01080
3555.85707,0.01103
3553.79690,0.01121
3551.73673,0.01125
3549.67656,0.01100
3547.61639,0.01060
3545.55621,0.01047
3543.49604,0.01083
3541.43587,0.01130
3539.37570,0.01153
3537.31552,0.01158
3535.25535,0.01172
3533.19518,0.01198
3531.13501,0.01215
3529.07484,0.01220
3527.01466,0.01225
3524.95449,0.01239
3522.89432,0.01266
3520.83415,0.01301
3518.77398,0.01324
3516.71380,0.01330
3514.65363,0.01332
3512.59346,0.01338
3510.53329,0.01336
3508.47312,0.01322
3506.41294,0.01304
3504.35277,0.01296
3502.29260,0.01315
3500.23243,0.01359
3498.17225,0.01402
3496.11208,0.01430
3494.05191,0.01441
3491.99174,0.01446
3489.93157,0.01461
3487.87139,0.01480
3485.81122,0.01483
3483.75105,0.01483
3481.69088,0.01492
3479.63071,0.01502
3477.57053,0.01515
3475.51036,0.01534
3473.45019,0.01545
3471.39002,0.01548
3469.32984,0.01551
3467.26967,0.01559
3465.20950,0.01566
3463.14933,0.01563
3461.08916,0.01564
3459.02898,0.01582
3456.96881,0.01600
3454.90864,0.01613
3452.84847,0.01628
3450.78830,0.01636
3448.72812,0.01628
3446.66795,0.01619
3444.60778,0.01624
3442.54761,0.01627
3440.48744,0.01631
3438.42726,0.01653
3436.36709,0.01683
3434.30692,0.01697
3432.24675,0.01696
3430.18657,0.01697
3428.12640,0.01712
3426.06623,0.01726
3424.00606,0.01726
3421.94589,0.01726
3419.88571,0.01722
3417.82554,0.01714
3415.76537,0.01723
3413.70520,0.01749
3411.64503,0.01766
3409.58485,0.01752
3407.52468,0.01732
3405.46451,0.01736
3403.40434,0.01749
3401.34416,0.01754
3399.28399,0.01734
3397.22382,0.01754
3395.16365,0.01785
3393.10348,0.01805
3391.04330,0.01808
3388.98313,0.01809
3386.92296,0.01819
3384.86279,0.01835
3382.80262,0.01856
3380.74244,0.01887
3378.68227,0.01920
3376.62210,0.01933
3374.56193,0.01924
3372.50176,0.01915
3370.44158,0.01911
3368.38141,0.01896
3366.32124,0.01882
3364.26107,0.01891
3362.20089,0.01912
3360.14072,0.01932
3358.08055,0.01944
3356.02038,0.01941
3353.96021,0.01932
3351.90003,0.01930
3349.83986,0.01941
3347.77969,0.01962
3345.71952,0.01975
3343.65935,0.01977
3341.59917,0.01970
3339.53900,0.01955
3337.47883,0.01957
3335.41866,0.01980
3333.35849,0.01995
3331.29831,0.02011
3329.23814,0.02037
3327.17797,0.02044
3325.11780,0.02028
3323.05762,0.02023
3320.99745,0.02046
3318.93728,0.02069
3316.87711,0.02066
3314.81694,0.02039
3312.75676,0.02016
3310.69659,0.02009
3308.63642,0.02019
3306.57625,0.02041
3304.51608,0.02062
3302.45590,0.02088
3300.39573,0.02110
3298.33556,0.02111
3296.27539,0.02097
3294.21521,0.02081
3292.15504,0.02067
3290.09487,0.02072
3288.03470,0.02098
3285.97453,0.02117
3283.91435,0.02123
3281.85418,0.02131
3279.79401,0.02128
3277.73384,0.02117
3275.67367,0.02118
3273.61349,0.02126
3271.55332,0.02129
3269.49315,0.02137
3267.43298,0.02152
3265.37281,0.02161
3263.31263,0.02157
3261.25246,0.02149
3259.19229,0.02150
3257.13212,0.02156
3255.07194,0.02160
3253.01177,0.02168
3250.95160,0.02177
3248.89143,0.02185
3246.83126,0.02194
3244.77108,0.02208
3242.71091,0.02220
3240.65074,0.02216
3238.59057,0.02208
3236.53040,0.02215
3234.47022,0.02230
3232.41005,0.02237
3230.34988,0.02236
3228.28971,0.02233
3226.22954,0.02229
3224.16936,0.02227
3222.10919,0.02218
3220.04902,0.02204
3217.98885,0.02201
3215.92867,0.02215
3213.86850,0.02236
3211.80833,0.02248
3209.74816,0.02245
3207.68799,0.02239
3205.62781,0.02239
3203.56764,0.02243
3201.50747,0.02248
3199.44730,0.02254
3197.38713,0.02260
3195.32695,0.02257
3193.26678,0.02243
3191.20661,0.02237
3189.14644,0.02249
3187.08626,0.02261
3185.02609,0.02253
3182.96592,0.02248
3180.90575,0.02257
3178.84558,0.02267
3176.78540,0.02285
3174.72523,0.02301
3172.66506,0.02299
3170.60489,0.02295
3168.54472,0.02299
3166.48454,0.02296
3164.42437,0.02288
3162.36420,0.02287
3160.30403,0.02296
3158.24386,0.02313
3156.18368,0.02318
3154.12351,0.02297
3152.06334,0.02282
3150.00317,0.02297
3147.94299,0.02312
3145.88282,0.02308
3143.82265,0.02298
3141.76248,0.02296
3139.70231,0.02305
3137.64213,0.02309
3135.58196,0.02300
3133.52179,0.02292
3131.46162,0.02300
3129.40145,0.02315
3127.34127,0.02321
3125.28110,0.02314
3123.22093,0.02299
3121.16076,0.02297
3119.10058,0.02308
3117.04041,0.02309
3114.98024,0.02295
3112.92007,0.02289
3110.85990,0.02307
3108.79972,0.02328
3106.73955,0.02327
3104.67938,0.02305
3102.61921,0.02286
3100.55904,0.02284
3098.49886,0.02287
3096.43869,0.02276
3094.37852,0.02267
3092.31835,0.02283
3090.25818,0.02302
3088.19800,0.02305
3086.13783,0.02309
3084.07766,0.02317
3082.01749,0.02316
3079.95731,0.02319
3077.89714,0.02328
3075.83697,0.02323
3073.77680,0.02316
3071.71663,0.02319
3069.65645,0.02322
3067.59628,0.02314
3065.53611,0.02312
3063.47594,0.02325
3061.41577,0.02345
3059.35559,0.02350
3057.29542,0.02339
3055.23525,0.02327
3053.17508,0.02316
3051.11491,0.02307
3049.05473,0.02307
3046.99456,0.02310
3044.93439,0.02309
3042.87422,0.02308
3040.81404,0.02305
3038.75387,0.02303
3036.69370,0.02312
3034.63353,0.02324
3032.57336,0.02329
3030.51318,0.02321
3028.45301,0.02305
3026.39284,0.02294
3024.33267,0.02292
3022.27250,0.02301
3020.21232,0.02316
3018.15215,0.02319
3016.09198,0.02303
3014.03181,0.02290
3011.97163,0.02288
3009.91146,0.02288
3007.85129,0.02294
3005.79112,0.02302
3003.73095,0.02306
3001.67077,0.02308
2999.61060,0.02306
2997.55043,0.02285
2995.49026,0.02269
2993.43009,0.02279
2991.36991,0.02302
2989.30974,0.02309
2987.24957,0.02303
2985.18940,0.02295
2983.12923,0.02286
2981.06905,0.02289
2979.00888,0.02299
2976.94871,0.02300
2974.88854,0.02295
2972.82836,0.02296
2970.76819,0.02313
2968.70802,0.02326
2966.64785,0.02315
2964.58768,0.02301
2962.52750,0.02310
2960.46733,0.02328
2958.40716,0.02339
2956.34699,0.02340
2954.28682,0.02334
2952.22664,0.02337
2950.16647,0.02346
2948.10630,0.02347
2946.04613,0.02345
2943.98596,0.02336
2941.92578,0.02318
2939.86561,0.02308
2937.80544,0.02314
2935.74527,0.02331
2933.68509,0.02349
2931.62492,0.02363
2929.56475,0.02361
2927.50458,0.02348
2925.44441,0.02337
2923.38423,0.02334
2921.32406,0.02341
2919.26389,0.02351
2917.20372,0.02355
2915.14355,0.02357
2913.08337,0.02355
2911.02320,0.02345
2908.96303,0.02337
2906.90286,0.02337
2904.84268,0.02339
2902.78251,0.02339
2900.72234,0.02340
2898.66217,0.02349
2896.60200,0.02364
2894.54182,0.02372
2892.48165,0.02368
2890.42148,0.02370
2888.36131,0.02383
2886.30114,0.02387
2884.24096,0.02380
2882.18079,0.02383
2880.12062,0.02386
2878.06045,0.02375
2876.00028,0.02364
2873.94010,0.02364
2871.87993,0.02373
2869.81976,0.02382
2867.75959,0.02382
2865.69941,0.02375
2863.63924,0.02368
2861.57907,0.02372
2859.51890,0.02378
2857.45873,0.02373
2855.39855,0.02371
2853.33838,0.02372
2851.27821,0.02373
2849.21804,0.02385
2847.15787,0.02400
2845.09769,0.02405
2843.03752,0.02400
2840.97735,0.02388
2838.91718,0.02375
2836.85700,0.02372
2834.79683,0.02378
2832.73666,0.02382
2830.67649,0.02391
2828.61632,0.02399
2826.55614,0.02393
2824.49597,0.02386
2822.43580,0.02381
2820.37563,0.02377
2818.31546,0.02384
2816.25528,0.02396
2814.19511,0.02399
2812.13494,0.02399
2810.07477,0.02400
2808.01460,0.02396
2805.95442,0.02386
2803.89425,0.02378
2801.83408,0.02387
2799.77391,0.02403
2797.71373,0.02406
2795.65356,0.02401
2793.59339,0.02395
2791.53322,0.02394
2789.47305,0.02403
2787.41287,0.02415
2785.35270,0.02422
2783.29253,0.02431
2781.23236,0.02442
2779.17219,0.02444
2777.11201,0.02437
2775.05184,0.02429
2772.99167,0.02418
2770.93150,0.02410
2768.87133,0.02414
2766.81115,0.02421
2764.75098,0.02424
2762.69081,0.02421
2760.63064,0.02411
2758.57046,0.02403
2756.51029,0.02401
2754.45012,0.02407
2752.38995,0.02427
2750.32978,0.02436
2748.26960,0.02423
2746.20943,0.02414
2744.14926,0.02421
2742.08909,0.02433
2740.02892,0.02441
2737.96874,0.02436
2735.90857,0.02424
2733.84840,0.02418
2731.78823,0.02421
2729.72805,0.02431
2727.66788,0.02432
2725.60771,0.02426
2723.54754,0.02428
2721.48737,0.02438
2719.42719,0.02442
2717.36702,0.02441
2715.30685,0.02439
2713.24668,0.02440
2711.18651,0.02445
2709.12633,0.02442
2707.06616,0.02431
2705.00599,0.02426
2702.94582,0.02425
2700.88565,0.02427
2698.82547,0.02436
2696.76530,0.02443
2694.70513,0.02449
2692.64496,0.02454
2690.58478,0.02451
2688.52461,0.02442
2686.46444,0.02435
2684.40427,0.02434
2682.34410,0.02438
2680.28392,0.02449
2678.22375,0.02462
2676.16358,0.02461
2674.10341,0.02453
2672.04324,0.02450
2669.98306,0.02447
2667.92289,0.02449
2665.86272,0.02452
2663.80255,0.02445
2661.74238,0.02435
2659.68220,0.02433
2657.62203,0.02436
2655.56186,0.02437
2653.50169,0.02437
2651.44151,0.02447
2649.38134,0.02454
2647.32117,0.02446
2645.26100,0.02438
2643.20083,0.02439
2641.14065,0.02440
2639.08048,0.02433
2637.02031,0.02438
2634.96014,0.02452
2632.89997,0.02452
2630.83979,0.02449
2628.77962,0.02446
2626.71945,0.02440
2624.65928,0.02446
2622.59910,0.02457
2620.53893,0.02456
2618.47876,0.02452
2616.41859,0.02453
2614.35842,0.02454
2612.29824,0.02451
2610.23807,0.02445
2608.17790,0.02446
2606.11773,0.02459
2604.05756,0.02475
2601.99738,0.02487
2599.93721,0.02485
2597.87704,0.02475
2595.81687,0.02472
2593.75670,0.02474
2591.69652,0.02482
2589.63635,0.02498
2587.57618,0.02504
2585.51601,0.02483
2583.45583,0.02457
2581.39566,0.02457
2579.33549,0.02464
2577.27532,0.02458
2575.21515,0.02453
2573.15497,0.02455
2571.09480,0.02460
2569.03463,0.02471
2566.97446,0.02486
2564.91429,0.02496
2562.85411,0.02503
2560.79394,0.02516
2558.73377,0.02522
2556.67360,0.02501
2554.61342,0.02487
2552.55325,0.02497
2550.49308,0.02510
2548.43291,0.02520
2546.37274,0.02515
2544.31256,0.02494
2542.25239,0.02491
2540.19222,0.02508
2538.13205,0.02523
2536.07188,0.02527
2534.01170,0.02527
2531.95153,0.02540
2529.89136,0.02565
2527.83119,0.02576
2525.77102,0.02573
2523.71084,0.02556
2521.65067,0.02533
2519.59050,0.02532
2517.53033,0.02543
2515.47015,0.02541
2513.40998,0.02538
2511.34981,0.02556
2509.28964,0.02593
2507.22947,0.02625
2505.16929,0.02633
2503.10912,0.02625
2501.04895,0.02614
2498.98878,0.02595
2496.92861,0.02590
2494.86843,0.02614
2492.80826,0.02642
2490.74809,0.02652
2488.68792,0.02651
2486.62775,0.02653
2484.56757,0.02647
2482.50740,0.02631
2480.44723,0.02639
2478.38706,0.02671
2476.32688,0.02689
2474.26671,0.02688
2472.20654,0.02683
2470.14637,0.02674
2468.08620,0.02654
2466.02602,0.02635
2463.96585,0.02637
2461.90568,0.02661
2459.84551,0.02690
2457.78534,0.02702
2455.72516,0.02692
2453.66499,0.02675
2451.60482,0.02650
2449.54465,0.02636
2447.48447,0.02663
2445.42430,0.02702
2443.36413,0.02716
2441.30396,0.02718
2439.24379,0.02722
2437.18361,0.02721
2435.12344,0.02705
2433.06327,0.02686
2431.00310,0.02680
2428.94293,0.02697
2426.88275,0.02728
2424.82258,0.02743
2422.76241,0.02732
2420.70224,0.02714
2418.64207,0.02699
2416.58189,0.02689
2414.52172,0.02686
2412.46155,0.02679
2410.40138,0.02674
2408.34120,0.02698
2406.28103,0.02733
2404.22086,0.02761
2402.16069,0.02781
2400.10052,0.02777
2398.04034,0.02771
2395.98017,0.02776
2393.92000,0.02778
2391.85983,0.02754
2389.79966,0.02713
2387.73948,0.02672
2385.67931,0.02603
2383.61914,0.02545
2381.55897,0.02569
2379.49880,0.02602
2377.43862,0.02628
2375.37845,0.02785
2373.31828,0.02669
2371.25811,0.02590
2369.19793,0.02802
2367.13776,0.02970
2365.07759,0.02779
2363.01742,0.02867
2360.95725,0.02507
2358.89707,0.02763
2356.83690,0.03029
2354.77673,0.03419
2352.71656,0.03211
2350.65639,0.02107
2348.59621,0.01290
2346.53604,0.02983
2344.47587,0.03385
2342.41570,0.03013
2340.35552,0.02661
2338.29535,0.02673
2336.23518,0.02684
2334.17501,0.02688
2332.11484,0.02727
2330.05466,0.02519
2327.99449,0.02634
2325.93432,0.02247
2323.87415,0.02390
2321.81398,0.02345
2319.75380,0.02711
2317.69363,0.02620
2315.63346,0.02618
2313.57329,0.02816
2311.51312,0.02786
2309.45294,0.02751
2307.39277,0.02717
2305.33260,0.02661
2303.27243,0.02616
2301.21225,0.02635
2299.15208,0.02592
2297.09191,0.02569
2295.03174,0.02655
2292.97157,0.02724
2290.91139,0.02777
2288.85122,0.02817
2286.79105,0.02812
2284.73088,0.02772
2282.67071,0.02762
2280.61053,0.02796
2278.55036,0.02845
2276.49019,0.02856
2274.43002,0.02808
2272.36984,0.02789
2270.30967,0.02806
2268.24950,0.02842
2266.18933,0.02872
2264.12916,0.02870
2262.06898,0.02849
2260.00881,0.02882
2257.94864,0.02881
2255.88847,0.02863
2253.82830,0.02853
2251.76812,0.02805
2249.70795,0.02746
2247.64778,0.02749
2245.58761,0.02793
2243.52744,0.02813
2241.46726,0.02813
2239.40709,0.02848
2237.34692,0.02906
2235.28675,0.02906
2233.22657,0.02878
2231.16640,0.02914
2229.10623,0.02976
2227.04606,0.02990
2224.98589,0.02960
2222.92571,0.02919
2220.86554,0.02873
2218.80537,0.02863
2216.74520,0.02905
2214.68503,0.02929
2212.62485,0.02925
2210.56468,0.02937
2208.50451,0.02911
2206.44434,0.02809
2204.38417,0.02772
2202.32399,0.02852
2200.26382,0.02898
2198.20365,0.02907
2196.14348,0.02947
2194.08330,0.02920
2192.02313,0.02818
2189.96296,0.02772
2187.90279,0.02789
2185.84262,0.02806
2183.78244,0.02818
2181.72227,0.02823
2179.66210,0.02855
2177.60193,0.02953
2175.54176,0.03016
2173.48158,0.02960
2171.42141,0.02838
2169.36124,0.02739
2167.30107,0.02732
2165.24089,0.02811
2163.18072,0.02868
2161.12055,0.02841
2159.06038,0.02791
2157.00021,0.02815
2154.94003,0.02904
2152.87986,0.02993
2150.81969,0.03067
2148.75952,0.03060
2146.69935,0.02969
2144.63917,0.02916
2142.57900,0.02927
2140.51883,0.02937
2138.45866,0.02939
2136.39849,0.02942
2134.33831,0.02934
2132.27814,0.02929
2130.21797,0.02940
2128.15780,0.02952
2126.09762,0.02936
2124.03745,0.02908
2121.97728,0.02913
2119.91711,0.02952
2117.85694,0.02965
2115.79676,0.02938
2113.73659,0.02931
2111.67642,0.02954
2109.61625,0.02958
2107.55608,0.02937
2105.49590,0.02916
2103.43573,0.02897
2101.37556,0.02900
2099.31539,0.02933
2097.25521,0.02937
2095.19504,0.02915
2093.13487,0.02890
2091.07470,0.02892
2089.01453,0.02924
2086.95435,0.02963
2084.89418,0.02985
2082.83401,0.03002
2080.77384,0.03050
2078.71367,0.03075
2076.65349,0.03029
2074.59332,0.02988
2072.53315,0.02999
2070.47298,0.02995
2068.41281,0.02982
2066.35263,0.02994
2064.29246,0.02990
2062.23229,0.02960
2060.17212,0.02961
2058.11194,0.03000
2056.05177,0.03021
2053.99160,0.03022
2051.93143,0.03050
2049.87126,0.03090
2047.81108,0.03127
2045.75091,0.03164
2043.69074,0.03166
2041.63057,0.03135
2039.57040,0.03120
2037.51022,0.03107
2035.45005,0.03048
2033.38988,0.02954
2031.32971,0.02841
2029.26954,0.02784
2027.20936,0.02884
2025.14919,0.03032
2023.08902,0.03094
2021.02885,0.03096
2018.96867,0.03053
2016.90850,0.03005
2014.84833,0.02992
2012.78816,0.02977
2010.72799,0.02978
2008.66781,0.03061
2006.60764,0.03128
2004.54747,0.03077
2002.48730,0.03000
2000.42713,0.02983
1998.36695,0.03011
1996.30678,0.03055
1994.24661,0.03108
1992.18644,0.03128
1990.12626,0.03107
1988.06609,0.03121
1986.00592,0.03158
1983.94575,0.03172
1981.88558,0.03203
1979.82540,0.03263
1977.76523,0.03299
1975.70506,0.03256
1973.64489,0.03174
1971.58472,0.03128
1969.52454,0.03127
1967.46437,0.03142
1965.40420,0.03122
1963.34403,0.03057
1961.28386,0.03034
1959.22368,0.03070
1957.16351,0.03067
1955.10334,0.03011
1953.04317,0.02982
1950.98299,0.03007
1948.92282,0.03062
1946.86265,0.03099
1944.80248,0.03088
1942.74231,0.03085
1940.68213,0.03109
1938.62196,0.03121
1936.56179,0.03124
1934.50162,0.03123
1932.44145,0.03107
1930.38127,0.03102
1928.32110,0.03129
1926.26093,0.03142
1924.20076,0.03106
1922.14059,0.03068
1920.08041,0.03070
1918.02024,0.03107
1915.96007,0.03148
1913.89990,0.03160
1911.83972,0.03144
1909.77955,0.03123
1907.71938,0.03114
1905.65921,0.03121
1903.59904,0.03137
1901.53886,0.03145
1899.47869,0.03139
1897.41852,0.03122
1895.35835,0.03105
1893.29818,0.03094
1891.23800,0.03095
1889.17783,0.03109
1887.11766,0.03128
1885.05749,0.03134
1882.99731,0.03129
1880.93714,0.03128
1878.87697,0.03140
1876.81680,0.03158
1874.75663,0.03166
1872.69645,0.03172
1870.63628,0.03188
1868.57611,0.03197
1866.51594,0.03183
1864.45577,0.03168
1862.39559,0.03166
1860.33542,0.03170
1858.27525,0.03186
1856.21508,0.03208
1854.15491,0.03214
1852.09473,0.03207
1850.03456,0.03199
1847.97439,0.03177
1845.91422,0.03137
1843.85404,0.03112
1841.79387,0.03124
1839.73370,0.03157
1837.67353,0.03177
1835.61336,0.03171
1833.55318,0.03172
1831.49301,0.03195
1829.43284,0.03215
1827.37267,0.03212
1825.31250,0.03199
1823.25232,0.03195
1821.19215,0.03206
1819.13198,0.03215
1817.07181,0.03216
1815.01163,0.03216
1812.95146,0.03209
1810.89129,0.03192
1808.83112,0.03178
1806.77095,0.03181
1804.71077,0.03191
1802.65060,0.03203
1800.59043,0.03218
1798.53026,0.03218
1796.47009,0.03206
1794.40991,0.03200
1792.34974,0.03200
1790.28957,0.03189
1788.22940,0.03168
1786.16923,0.03156
1784.10905,0.03170
1782.04888,0.03193
1779.98871,0.03200
1777.92854,0.03198
1775.86836,0.03212
1773.80819,0.03235
1771.74802,0.03235
1769.68785,0.03213
1767.62768,0.03207
1765.56750,0.03216
1763.50733,0.03225
1761.44716,0.03225
1759.38699,0.03216
1757.32682,0.03212
1755.26664,0.03220
1753.20647,0.03230
1751.14630,0.03244
1749.08613,0.03258
1747.02596,0.03258
1744.96578,0.03252
1742.90561,0.03263
1740.84544,0.03286
1738.78527,0.03294
1736.72509,0.03299
1734.66492,0.03314
1732.60475,0.03315
1730.54458,0.03308
1728.48441,0.03303
1726.42423,0.03297
1724.36406,0.03293
1722.30389,0.03297
1720.24372,0.03311
1718.18355,0.03320
1716.12337,0.03304
1714.06320,0.03292
1712.00303,0.03288
1709.94286,0.03291
1707.88268,0.03304
1705.82251,0.03319
1703.76234,0.03333
1701.70217,0.03353
1699.64200,0.03357
1697.58182,0.03344
1695.52165,0.03346
1693.46148,0.03362
1691.40131,0.03379
1689.34114,0.03401
1687.28096,0.03433
1685.22079,0.03475
1683.16062,0.03486
1681.10045,0.03468
1679.04028,0.03472
1676.98010,0.03519
1674.91993,0.03581
1672.85976,0.03620
1670.79959,0.03635
1668.73941,0.03637
1666.67924,0.03634
1664.61907,0.03639
1662.55890,0.03641
1660.49873,0.03625
1658.43855,0.03609
1656.37838,0.03615
1654.31821,0.03642
1652.25804,0.03658
1650.19787,0.03657
1648.13769,0.03654
1646.07752,0.03654
1644.01735,0.03642
1641.95718,0.03632
1639.89701,0.03647
1637.83683,0.03675
1635.77666,0.03679
1633.71649,0.03654
1631.65632,0.03635
1629.59614,0.03634
1627.53597,0.03641
1625.47580,0.03647
1623.41563,0.03644
1621.35546,0.03630
1619.29528,0.03631
1617.23511,0.03652
1615.17494,0.03654
1613.11477,0.03632
1611.05460,0.03617
1608.99442,0.03617
1606.93425,0.03621
1604.87408,0.03627
1602.81391,0.03630
1600.75373,0.03625
1598.69356,0.03619
1596.63339,0.03618
1594.57322,0.03612
1592.51305,0.03597
1590.45287,0.03580
1588.39270,0.03572
1586.33253,0.03571
1584.27236,0.03563
1582.21219,0.03544
1580.15201,0.03536
1578.09184,0.03544
1576.03167,0.03533
1573.97150,0.03498
1571.91133,0.03484
1569.85115,0.03492
1567.79098,0.03485
1565.73081,0.03465
1563.67064,0.03459
1561.61046,0.03485
1559.55029,0.03500
1557.49012,0.03440
1555.42995,0.03387
1553.36978,0.03375
1551.30960,0.03372
1549.24943,0.03358
1547.18926,0.03343
1545.12909,0.03350
1543.06892,0.03380
1541.00874,0.03411
1538.94857,0.03399
1536.88840,0.03362
1534.82823,0.03348
1532.76805,0.03353
1530.70788,0.03346
1528.64771,0.03332
1526.58754,0.03316
1524.52737,0.03307
1522.46719,0.03309
1520.40702,0.03300
1518.34685,0.03285
1516.28668,0.03272
1514.22651,0.03252
1512.16633,0.03240
1510.10616,0.03262
1508.04599,0.03313
1505.98582,0.03337
1503.92565,0.03312
1501.86547,0.03283
1499.80530,0.03287
1497.74513,0.03312
1495.68496,0.03332
1493.62478,0.03344
1491.56461,0.03348
1489.50444,0.03336
1487.44427,0.03325
1485.38410,0.03330
1483.32392,0.03336
1481.26375,0.03337
1479.20358,0.03341
1477.14341,0.03355
1475.08324,0.03375
1473.02306,0.03384
1470.96289,0.03366
1468.90272,0.03349
1466.84255,0.03359
1464.78238,0.03376
1462.72220,0.03374
1460.66203,0.03382
1458.60186,0.03402
1456.54169,0.03393
1454.48151,0.03370
1452.42134,0.03367
1450.36117,0.03390
1448.30100,0.03422
1446.24083,0.03438
1444.18065,0.03433
1442.12048,0.03424
1440.06031,0.03424
1438.00014,0.03427
1435.93997,0.03425
1433.87979,0.03430
1431.81962,0.03447
1429.75945,0.03462
1427.69928,0.03463
1425.63910,0.03462
1423.57893,0.03461
1421.51876,0.03449
1419.45859,0.03427
1417.39842,0.03423
1415.33824,0.03453
1413.27807,0.03489
1411.21790,0.03506
1409.15773,0.03506
1407.09756,0.03507
1405.03738,0.03514
1402.97721,0.03523
1400.91704,0.03521
1398.85687,0.03499
1396.79670,0.03476
1394.73652,0.03474
1392.67635,0.03481
1390.61618,0.03487
1388.55601,0.03496
1386.49583,0.03506
1384.43566,0.03508
1382.37549,0.03503
1380.31532,0.03501
1378.25515,0.03507
1376.19497,0.03519
1374.13480,0.03518
1372.07463,0.03504
1370.01446,0.03499
1367.95429,0.03503
1365.89411,0.03507
1363.83394,0.03501
1361.77377,0.03493
1359.71360,0.03495
1357.65343,0.03505
1355.59325,0.03514
1353.53308,0.03521
1351.47291,0.03523
1349.41274,0.03522
1347.35256,0.03518
1345.29239,0.03507
1343.23222,0.03488
1341.17205,0.03463
1339.11188,0.03444
1337.05170,0.03450
1334.99153,0.03477
1332.93136,0.03503
1330.87119,0.03514
1328.81102,0.03515
1326.75084,0.03515
1324.69067,0.03512
1322.63050,0.03507
1320.57033,0.03505
1318.51015,0.03503
1316.44998,0.03500
1314.38981,0.03495
1312.32964,0.03491
1310.26947,0.03491
1308.20929,0.03490
1306.14912,0.03491
1304.08895,0.03498
1302.02878,0.03503
1299.96861,0.03505
1297.90843,0.03511
1295.84826,0.03521
1293.78809,0.03523
1291.72792,0.03508
1289.66775,0.03488
1287.60757,0.03482
1285.54740,0.03490
1283.48723,0.03504
1281.42706,0.03515
1279.36688,0.03519
1277.30671,0.03522
1275.24654,0.03523
1273.18637,0.03519
1271.12620,0.03520
1269.06602,0.03526
1267.00585,0.03525
1264.94568,0.03519
1262.88551,0.03521
1260.82534,0.03534
1258.76516,0.03543
1256.70499,0.03534
1254.64482,0.03519
1252.58465,0.03513
1250.52447,0.03513
1248.46430,0.03514
1246.40413,0.03516
1244.34396,0.03514
1242.28379,0.03513
1240.22361,0.03512
1238.16344,0.03509
1236.10327,0.03505
1234.04310,0.03496
1231.98293,0.03489
1229.92275,0.03490
1227.86258,0.03493
1225.80241,0.03490
1223.74224,0.03484
1221.68207,0.03475
1219.62189,0.03467
1217.56172,0.03463
1215.50155,0.03457
1213.44138,0.03443
1211.38120,0.03425
1209.32103,0.03412
1207.26086,0.03412
1205.20069,0.03423
1203.14052,0.03426
1201.08034,0.03424
1199.02017,0.03428
1196.96000,0.03445
1194.89983,0.03459
1192.83966,0.03457
1190.77948,0.03451
1188.71931,0.03455
1186.65914,0.03469
1184.59897,0.03494
1182.53880,0.03516
1180.47862,0.03535
1178.41845,0.03558
1176.35828,0.03571
1174.29811,0.03573
1172.23793,0.03580
1170.17776,0.03590
1168.11759,0.03606
1166.05742,0.03624
1163.99725,0.03639
1161.93707,0.03655
1159.87690,0.03675
1157.81673,0.03696
1155.75656,0.03718
1153.69639,0.03740
1151.63621,0.03767
1149.57604,0.03792
1147.51587,0.03808
1145.45570,0.03827
1143.39552,0.03853
1141.33535,0.03875
1139.27518,0.03890
1137.21501,0.03907
1135.15484,0.03930
1133.09466,0.03957
1131.03449,0.03983
1128.97432,0.04004
1126.91415,0.04029
1124.85398,0.04067
1122.79380,0.04113
1120.73363,0.04149
1118.67346,0.04171
1116.61329,0.04191
1114.55312,0.04226
1112.49294,0.04269
1110.43277,0.04310
1108.37260,0.04351
1106.31243,0.04396
1104.25225,0.04429
1102.19208,0.04446
1100.13191,0.04468
1098.07174,0.04500
1096.01157,0.04525
1093.95139,0.04549
1091.89122,0.04574
1089.83105,0.04599
1087.77088,0.04629
1085.71071,0.04652
1083.65053,0.04667
1081.59036,0.04691
1079.53019,0.04717
1077.47002,0.04749
1075.40985,0.04789
1073.34967,0.04821
1071.28950,0.04836
1069.22933,0.04838
1067.16916,0.04840
1065.10898,0.04836
1063.04881,0.04829
1060.98864,0.04822
1058.92847,0.04805
1056.86830,0.04777
1054.80812,0.04747
1052.74795,0.04709
1050.68778,0.04656
1048.62761,0.04599
1046.56744,0.04555
1044.50726,0.04518
1042.44709,0.04468
1040.38692,0.04403
1038.32675,0.04343
1036.26657,0.04296
1034.20640,0.04244
1032.14623,0.04175
1030.08606,0.04108
1028.02589,0.04065
1025.96571,0.04039
1023.90554,0.04019
1021.84537,0.03997
1019.78520,0.03973
1017.72503,0.03953
1015.66485,0.03938
1013.60468,0.03926
1011.54451,0.03925
1009.48434,0.03946
1007.42417,0.03970
1005.36399,0.03978
1003.30382,0.03987
1001.24365,0.04020
999.18348,0.04067
997.12330,0.04111
995.06313,0.04140
993.00296,0.04154
990.94279,0.04174
988.88262,0.04204
986.82244,0.04223
984.76227,0.04232
982.70210,0.04243
980.64193,0.04257
978.58176,0.04264
976.52158,0.04259
974.46141,0.04253
972.40124,0.04246
970.34107,0.04221
968.28089,0.04182
966.22072,0.04147
964.16055,0.04118
962.10038,0.04091
960.04021,0.04058
957.98003,0.04020
955.91986,0.03996
953.85969,0.03973
951.79952,0.03933
949.73935,0.03900
947.67917,0.03890
945.61900,0.03883
943.55883,0.03862
941.49866,0.03834
939.43849,0.03795
937.37831,0.03751
935.31814,0.03720
933.25797,0.03691
931.19780,0.03665
929.13762,0.03654
927.07745,0.03654
925.01728,0.03652
922.95711,0.03638
920.89694,0.03614
918.83676,0.03600
916.77659,0.03595
914.71642,0.03581
912.65625,0.03564
910.59608,0.03547
908.53590,0.03518
906.47573,0.03495
904.41556,0.03503
902.35539,0.03523
900.29522,0.03520
898.23504,0.03501
896.17487,0.03500
894.11470,0.03511
892.05453,0.03522
889.99435,0.03545
887.93418,0.03574
885.87401,0.03597
883.81384,0.03613
881.75367,0.03615
879.69349,0.03609
877.63332,0.03620
875.57315,0.03652
873.51298,0.03682
871.45281,0.03706
869.39263,0.03730
867.33246,0.03751
865.27229,0.03767
863.21212,0.03780
861.15194,0.03780
859.09177,0.03778
857.03160,0.03786
854.97143,0.03789
852.91126,0.03791
850.85108,0.03800
848.79091,0.03802
846.73074,0.03796
844.67057,0.03787
842.61040,0.03760
840.55022,0.03730
838.49005,0.03707
836.42988,0.03674
834.36971,0.03636
832.30954,0.03609
830.24936,0.03596
828.18919,0.03581
826.12902,0.03549
824.06885,0.03523
822.00867,0.03523
819.94850,0.03526
817.88833,0.03515
815.82816,0.03496
813.76799,0.03477
811.70781,0.03457
809.64764,0.03444
807.58747,0.03457
805.52730,0.03482
803.46713,0.03492
801.40695,0.03488
799.34678,0.03464
797.28661,0.03415
795.22644,0.03361
793.16627,0.03332
791.10609,0.03329
789.04592,0.03321
786.98575,0.03302
784.92558,0.03292
782.86540,0.03281
780.80523,0.03276
778.74506,0.03301
776.68489,0.03329
774.62472,0.03329
772.56454,0.03310
770.50437,0.03291
768.44420,0.03257
766.38403,0.03226
764.32386,0.03237
762.26368,0.03267
760.20351,0.03268
758.14334,0.03236
756.08317,0.03199
754.02299,0.03186
751.96282,0.03202
749.90265,0.03216
747.84248,0.03201
745.78231,0.03175
743.72213,0.03150
741.66196,0.03097
739.60179,0.03034
737.54162,0.03022
735.48145,0.03064
733.42127,0.03093
731.36110,0.03070
729.30093,0.03039
727.24076,0.03045
725.18059,0.03068
723.12041,0.03003
721.06024,0.03074
719.00007,0.02935
716.93990,0.03042
714.87972,0.03100
712.81955,0.03063
710.75938,0.03002
708.69921,0.02939
706.63904,0.02909
704.57886,0.02929
702.51869,0.02971
700.45852,0.02957
698.39835,0.02874
696.33818,0.02762
694.27800,0.02660
692.21783,0.02594
690.15766,0.02530
688.09749,0.02434
686.03731,0.02329
683.97714,0.02242
681.91697,0.02196
679.85680,0.02198
677.79663,0.02232
675.73645,0.02330
673.67628,0.02180
671.61611,0.00690
669.55594,0.00000
667.49577,0.03680
665.43559,0.01135
663.37542,0.01579
661.31525,0.02173
659.25508,0.02046
657.19491,0.01822
655.13473,0.01700
653.07456,0.01596
651.01439,0.01507
648.95422,0.01552
646.89404,0.01505
644.83387,0.01545
642.77370,0.01577
640.71353,0.01562
638.65336,0.01532
636.59318,0.01504
634.53301,0.01475
632.47284,0.01422
630.41267,0.01302
628.35250,0.01164
626.29232,0.01084
624.23215,0.01083
622.17198,0.01052
620.11181,0.00975
618.05164,0.00834
615.99146,0.00683
613.93129,0.00608
611.87112,0.00568
609.81095,0.00480
607.75077,0.00368
605.69060,0.00280
603.63043,0.00176
601.57026,0.00059
599.51009,0.00000
