3996.73391,0.00123
3994.67373,0.00071
3992.61356,0.00007
3990.55339,0.00000
3988.49322,0.00020
3986.43305,0.00033
3984.37287,0.00056
3982.31270,0.00063
3980.25253,0.00046
3978.19236,0.00037
3976.13219,0.00048
3974.07201,0.00063
3972.01184,0.00071
3969.95167,0.00073
3967.89150,0.00066
3965.83133,0.00047
3963.77115,0.00036
3961.71098,0.00050
3959.65081,0.00065
3957.59064,0.00060
3955.53046,0.00048
3953.47029,0.00030
3951.41012,0.00019
3949.34995,0.00038
3947.28978,0.00071
3945.22960,0.00091
3943.16943,0.00104
3941.10926,0.00117
3939.04909,0.00128
3936.98892,0.00140
3934.92874,0.00160
3932.86857,0.00179
3930.80840,0.00180
3928.74823,0.00164
3926.68805,0.00142
3924.62788,0.00130
3922.56771,0.00117
3920.50754,0.00076
3918.44737,0.00031
3916.38719,0.00024
3914.32702,0.00040
3912.26685,0.00047
3910.20668,0.00054
3908.14651,0.00065
3906.08633,0.00082
3904.02616,0.00110
3901.96599,0.00117
3899.90582,0.00088
3897.84565,0.00071
3895.78547,0.00085
3893.72530,0.00109
3891.66513,0.00121
3889.60496,0.00110
3887.54478,0.00090
3885.48461,0.00105
3883.42444,0.00142
3881.36427,0.00151
3879.30410,0.00127
3877.24392,0.00093
3875.18375,0.00070
3873.12358,0.00055
3871.06341,0.00038
3869.00324,0.00039
3866.94306,0.00096
3864.88289,0.00192
3862.82272,0.00247
3860.76255,0.00229
3858.70237,0.00184
3856.64220,0.00154
3854.58203,0.00173
3852.52186,0.00216
3850.46169,0.00195
3848.40151,0.00128
3846.34134,0.00079
3844.28117,0.00073
3842.22100,0.00095
3840.16083,0.00108
3838.10065,0.00109
3836.04048,0.00113
3833.98031,0.00115
3831.92014,0.00100
3829.85997,0.00068
3827.79979,0.00054
3825.73962,0.00070
3823.67945,0.00103
3821.61928,0.00161
3819.55910,0.00218
3817.49893,0.00220
3815.43876,0.00192
3813.37859,0.00160
3811.31842,0.00116
3809.25824,0.00077
3807.19807,0.00086
3805.13790,0.00140
3803.07773,0.00147
3801.01756,0.00075
3798.95738,0.00015
3796.89721,0.00008
3794.83704,0.00014
3792.77687,0.00027
3790.71670,0.00054
3788.65652,0.00079
3786.59635,0.00092
3784.53618,0.00107
3782.47601,0.00107
3780.41583,0.00067
3778.35566,0.00031
3776.29549,0.00018
3774.23532,0.00006
3772.17515,0.00027
3770.11497,0.00097
3768.05480,0.00140
3765.99463,0.00117
3763.93446,0.00071
3761.87429,0.00042
3759.81411,0.00048
3757.75394,0.00089
3755.69377,0.00130
3753.63360,0.00149
3751.57342,0.00175
3749.51325,0.00221
3747.45308,0.00238
3745.39291,0.00225
3743.33274,0.00191
3741.27256,0.00164
3739.21239,0.00171
3737.15222,0.00196
3735.09205,0.00230
3733.03188,0.00221
3730.97170,0.00156
3728.91153,0.00096
3726.85136,0.00092
3724.79119,0.00151
3722.73102,0.00201
3720.67084,0.00189
3718.61067,0.00142
3716.55050,0.00126
3714.49033,0.00150
3712.43015,0.00171
3710.36998,0.00145
3708.30981,0.00072
3706.24964,0.00040
3704.18947,0.00037
3702.12929,0.00013
3700.06912,0.00000
3698.00895,0.00043
3695.94878,0.00119
3693.88861,0.00166
3691.82843,0.00160
3689.76826,0.00133
3687.70809,0.00129
3685.64792,0.00142
3683.58775,0.00164
3681.52757,0.00166
3679.46740,0.00134
3677.40723,0.00127
3675.34706,0.00192
3673.28688,0.00223
3671.22671,0.00201
3669.16654,0.00231
3667.10637,0.00296
3665.04620,0.00305
3662.98602,0.00266
3660.92585,0.00243
3658.86568,0.00258
3656.80551,0.00261
3654.74534,0.00213
3652.68516,0.00149
3650.62499,0.00141
3648.56482,0.00240
3646.50465,0.00372
3644.44447,0.00466
3642.38430,0.00503
3640.32413,0.00473
3638.26396,0.00420
3636.20379,0.00401
3634.14361,0.00412
3632.08344,0.00430
3630.02327,0.00461
3627.96310,0.00488
3625.90293,0.00458
3623.84275,0.00439
3621.78258,0.00485
3619.72241,0.00540
3617.66224,0.00553
3615.60207,0.00553
3613.54189,0.00608
3611.48172,0.00707
3609.42155,0.00786
3607.36138,0.00795
3605.30120,0.00758
3603.24103,0.00762
3601.18086,0.00834
3599.12069,0.00919
3597.06052,0.00957
3595.00034,0.00965
3592.94017,0.00958
3590.88000,0.00943
3588.81983,0.00943
3586.75966,0.00951
3584.69948,0.00908
3582.63931,0.00860
3580.57914,0.00890
3578.51897,0.00963
3576.45879,0.01017
3574.39862,0.01078
3572.33845,0.01179
3570.27828,0.01286
3568.21811,0.01303
3566.15793,0.01191
3564.09776,0.01077
3562.03759,0.01083
3559.97742,0.01185
3557.91725,0.01298
3555.85707,0.01347
3553.79690,0.01322
3551.73673,0.01288
3549.67656,0.01313
3547.61639,0.01386
3545.55621,0.01440
3543.49604,0.01438
3541.43587,0.01404
3539.37570,0.01388
3537.31552,0.01415
3535.25535,0.01474
3533.19518,0.01531
3531.13501,0.01554
3529.07484,0.01548
3527.01466,0.01547
3524.95449,0.01583
3522.89432,0.01650
3520.83415,0.01698
3518.77398,0.01693
3516.71380,0.01652
3514.65363,0.01630
3512.59346,0.01646
3510.53329,0.01680
3508.47312,0.01733
3506.41294,0.01784
3504.35277,0.01795
3502.29260,0.01790
3500.23243,0.01793
3498.17225,0.01795
3496.11208,0.01800
3494.05191,0.01815
3491.99174,0.01834
3489.93157,0.01866
3487.87139,0.01907
3485.81122,0.01947
3483.75105,0.01988
3481.69088,0.02015
3479.63071,0.02041
3477.57053,0.02090
3475.51036,0.02130
3473.45019,0.02124
3471.39002,0.02082
3469.32984,0.02056
3467.26967,0.02071
3465.20950,0.02085
3463.14933,0.02074
3461.08916,0.02076
3459.02898,0.02133
3456.96881,0.02201
3454.90864,0.02221
3452.84847,0.02223
3450.78830,0.02243
3448.72812,0.02257
3446.66795,0.02265
3444.60778,0.02292
3442.54761,0.02316
3440.48744,0.02334
3438.42726,0.02354
3436.36709,0.02366
3434.30692,0.02381
3432.24675,0.02416
3430.18657,0.02423
3428.12640,0.02384
3426.06623,0.02353
3424.00606,0.02369
3421.94589,0.02428
3419.88571,0.02490
3417.82554,0.02518
3415.76537,0.02511
3413.70520,0.02490
3411.64503,0.02478
3409.58485,0.02460
3407.52468,0.02453
3405.46451,0.02510
3403.40434,0.02574
3401.34416,0.02571
3399.28399,0.02555
3397.22382,0.02559
3395.16365,0.02598
3393.10348,0.02644
3391.04330,0.02661
3388.98313,0.02634
3386.92296,0.02598
3384.86279,0.02608
3382.80262,0.02659
3380.74244,0.02699
3378.68227,0.02701
3376.62210,0.02680
3374.56193,0.02685
3372.50176,0.02722
3370.44158,0.02748
3368.38141,0.02746
3366.32124,0.02752
3364.26107,0.02771
3362.20089,0.02772
3360.14072,0.02783
3358.08055,0.02834
3356.02038,0.02847
3353.96021,0.02782
3351.90003,0.02735
3349.83986,0.02774
3347.77969,0.02826
3345.71952,0.02841
3343.65935,0.02872
3341.59917,0.02914
3339.53900,0.02918
3337.47883,0.02873
3335.41866,0.02804
3333.35849,0.02765
3331.29831,0.02779
3329.23814,0.02804
3327.17797,0.02817
3325.11780,0.02850
3323.05762,0.02906
3320.99745,0.02913
3318.93728,0.02863
3316.87711,0.02843
3314.81694,0.02885
3312.75676,0.02932
3310.69659,0.02938
3308.63642,0.02926
3306.57625,0.02925
3304.51608,0.02904
3302.45590,0.02864
3300.39573,0.02856
3298.33556,0.02869
3296.27539,0.02877
3294.21521,0.02911
3292.15504,0.02953
3290.09487,0.02963
3288.03470,0.02978
3285.97453,0.03024
3283.91435,0.03050
3281.85418,0.03015
3279.79401,0.02972
3277.73384,0.02973
3275.67367,0.03012
3273.61349,0.03051
3271.55332,0.03060
3269.49315,0.03065
3267.43298,0.03068
3265.37281,0.03034
3263.31263,0.03000
3261.25246,0.02996
3259.19229,0.02986
3257.13212,0.02981
3255.07194,0.03005
3253.01177,0.03032
3250.95160,0.03032
3248.89143,0.03006
3246.83126,0.02993
3244.77108,0.03029
3242.71091,0.03056
3240.65074,0.03049
3238.59057,0.03078
3236.53040,0.03126
3234.47022,0.03132
3232.41005,0.03108
3230.34988,0.03097
3228.28971,0.03105
3226.22954,0.03105
3224.16936,0.03078
3222.10919,0.03041
3220.04902,0.03019
3217.98885,0.03006
3215.92867,0.03001
3213.86850,0.03001
3211.80833,0.02979
3209.74816,0.02962
3207.68799,0.02998
3205.62781,0.03058
3203.56764,0.03080
3201.50747,0.03077
3199.44730,0.03086
3197.38713,0.03086
3195.32695,0.03054
3193.26678,0.03014
3191.20661,0.03006
3189.14644,0.03028
3187.08626,0.03031
3185.02609,0.02989
3182.96592,0.02957
3180.90575,0.02983
3178.84558,0.03022
3176.78540,0.03019
3174.72523,0.02981
3172.66506,0.02953
3170.60489,0.02960
3168.54472,0.02985
3166.48454,0.03000
3164.42437,0.03004
3162.36420,0.03009
3160.30403,0.03026
3158.24386,0.03035
3156.18368,0.03008
3154.12351,0.02951
3152.06334,0.02906
3150.00317,0.02895
3147.94299,0.02889
3145.88282,0.02878
3143.82265,0.02883
3141.76248,0.02898
3139.70231,0.02912
3137.64213,0.02923
3135.58196,0.02912
3133.52179,0.02904
3131.46162,0.02921
3129.40145,0.02918
3127.34127,0.02889
3125.28110,0.02871
3123.22093,0.02853
3121.16076,0.02831
3119.10058,0.02836
3117.04041,0.02868
3114.98024,0.02879
3112.92007,0.02830
3110.85990,0.02762
3108.79972,0.02736
3106.73955,0.02750
3104.67938,0.02775
3102.61921,0.02784
3100.55904,0.02768
3098.49886,0.02758
3096.43869,0.02741
3094.37852,0.02709
3092.31835,0.02707
3090.25818,0.02723
3088.19800,0.02723
3086.13783,0.02711
3084.07766,0.02697
3082.01749,0.02673
3079.95731,0.02655
3077.89714,0.02675
3075.83697,0.02708
3073.77680,0.02711
3071.71663,0.02689
3069.65645,0.02662
3067.59628,0.02654
3065.53611,0.02654
3063.47594,0.02631
3061.41577,0.02596
3059.35559,0.02566
3057.29542,0.02543
3055.23525,0.02539
3053.17508,0.02560
3051.11491,0.02586
3049.05473,0.02567
3046.99456,0.02496
3044.93439,0.02448
3042.87422,0.02466
3040.81404,0.02506
3038.75387,0.02520
3036.69370,0.02499
3034.63353,0.02455
3032.57336,0.02423
3030.51318,0.02418
3028.45301,0.02403
3026.39284,0.02367
3024.33267,0.02342
3022.27250,0.02336
3020.21232,0.02335
3018.15215,0.02335
3016.09198,0.02338
3014.03181,0.02358
3011.97163,0.02378
3009.91146,0.02363
3007.85129,0.02329
3005.79112,0.02301
3003.73095,0.02278
3001.67077,0.02268
2999.61060,0.02274
2997.55043,0.02267
2995.49026,0.02248
2993.43009,0.02247
2991.36991,0.02246
2989.30974,0.02221
2987.24957,0.02195
2985.18940,0.02178
2983.12923,0.02160
2981.06905,0.02147
2979.00888,0.02128
2976.94871,0.02110
2974.88854,0.02106
2972.82836,0.02108
2970.76819,0.02113
2968.70802,0.02115
2966.64785,0.02128
2964.58768,0.02149
2962.52750,0.02147
2960.46733,0.02123
2958.40716,0.02113
2956.34699,0.02131
2954.28682,0.02147
2952.22664,0.02115
2950.16647,0.02060
2948.10630,0.02039
2946.04613,0.02040
2943.98596,0.02045
2941.92578,0.02059
2939.86561,0.02070
2937.80544,0.02075
2935.74527,0.02067
2933.68509,0.02043
2931.62492,0.02025
2929.56475,0.02023
2927.50458,0.02018
2925.44441,0.02005
2923.38423,0.01987
2921.32406,0.01974
2919.26389,0.01983
2917.20372,0.01993
2915.14355,0.01983
2913.08337,0.01974
2911.02320,0.01960
2908.96303,0.01924
2906.90286,0.01902
2904.84268,0.01901
2902.78251,0.01886
2900.72234,0.01842
2898.66217,0.01789
2896.60200,0.01762
2894.54182,0.01758
2892.48165,0.01751
2890.42148,0.01743
2888.36131,0.01741
2886.30114,0.01727
2884.24096,0.01708
2882.18079,0.01714
2880.12062,0.01732
2878.06045,0.01716
2876.00028,0.01680
2873.94010,0.01676
2871.87993,0.01704
2869.81976,0.01727
2867.75959,0.01726
2865.69941,0.01709
2863.63924,0.01701
2861.57907,0.01691
2859.51890,0.01661
2857.45873,0.01645
2855.39855,0.01646
2853.33838,0.01616
2851.27821,0.01578
2849.21804,0.01576
2847.15787,0.01585
2845.09769,0.01568
2843.03752,0.01535
2840.97735,0.01508
2838.91718,0.01502
2836.85700,0.01521
2834.79683,0.01537
2832.73666,0.01511
2830.67649,0.01469
2828.61632,0.01449
2826.55614,0.01438
2824.49597,0.01442
2822.43580,0.01465
2820.37563,0.01470
2818.31546,0.01453
2816.25528,0.01434
2814.19511,0.01421
2812.13494,0.01414
2810.07477,0.01401
2808.01460,0.01390
2805.95442,0.01384
2803.89425,0.01366
2801.83408,0.01344
2799.77391,0.01329
2797.71373,0.01322
2795.65356,0.01324
2793.59339,0.01318
2791.53322,0.01306
2789.47305,0.01298
2787.41287,0.01290
2785.35270,0.01287
2783.29253,0.01285
2781.23236,0.01287
2779.17219,0.01294
2777.11201,0.01285
2775.05184,0.01262
2772.99167,0.01249
2770.93150,0.01251
2768.87133,0.01247
2766.81115,0.01234
2764.75098,0.01225
2762.69081,0.01219
2760.63064,0.01205
2758.57046,0.01176
2756.51029,0.01170
2754.45012,0.01196
2752.38995,0.01210
2750.32978,0.01205
2748.26960,0.01196
2746.20943,0.01188
2744.14926,0.01167
2742.08909,0.01137
2740.02892,0.01131
2737.96874,0.01148
2735.90857,0.01155
2733.84840,0.01131
2731.78823,0.01089
2729.72805,0.01071
2727.66788,0.01084
2725.60771,0.01097
2723.54754,0.01088
2721.48737,0.01063
2719.42719,0.01042
2717.36702,0.01031
2715.30685,0.01030
2713.24668,0.01037
2711.18651,0.01040
2709.12633,0.01042
2707.06616,0.01046
2705.00599,0.01041
2702.94582,0.01030
2700.88565,0.01011
2698.82547,0.00995
2696.76530,0.00999
2694.70513,0.01004
2692.64496,0.00996
2690.58478,0.00980
2688.52461,0.00962
2686.46444,0.00953
2684.40427,0.00947
2682.34410,0.00938
2680.28392,0.00930
2678.22375,0.00934
2676.16358,0.00950
2674.10341,0.00961
2672.04324,0.00941
2669.98306,0.00894
2667.92289,0.00874
2665.86272,0.00886
2663.80255,0.00887
2661.74238,0.00879
2659.68220,0.00863
2657.62203,0.00846
2655.56186,0.00854
2653.50169,0.00871
2651.44151,0.00870
2649.38134,0.00859
2647.32117,0.00834
2645.26100,0.00810
2643.20083,0.00830
2641.14065,0.00872
2639.08048,0.00875
2637.02031,0.00855
2634.96014,0.00841
2632.89997,0.00833
2630.83979,0.00827
2628.77962,0.00827
2626.71945,0.00813
2624.65928,0.00791
2622.59910,0.00801
2620.53893,0.00832
2618.47876,0.00819
2616.41859,0.00761
2614.35842,0.00717
2612.29824,0.00711
2610.23807,0.00737
2608.17790,0.00790
2606.11773,0.00831
2604.05756,0.00805
2601.99738,0.00743
2599.93721,0.00717
2597.87704,0.00717
2595.81687,0.00691
2593.75670,0.00680
2591.69652,0.00703
2589.63635,0.00695
2587.57618,0.00667
2585.51601,0.00669
2583.45583,0.00688
2581.39566,0.00685
2579.33549,0.00670
2577.27532,0.00666
2575.21515,0.00644
2573.15497,0.00621
2571.09480,0.00659
2569.03463,0.00727
2566.97446,0.00743
2564.91429,0.00692
2562.85411,0.00652
2560.79394,0.00678
2558.73377,0.00694
2556.67360,0.00648
2554.61342,0.00609
2552.55325,0.00637
2550.49308,0.00701
2548.43291,0.00724
2546.37274,0.00698
2544.31256,0.00657
2542.25239,0.00630
2540.19222,0.00632
2538.13205,0.00638
2536.07188,0.00660
2534.01170,0.00724
2531.95153,0.00779
2529.89136,0.00771
2527.83119,0.00713
2525.77102,0.00675
2523.71084,0.00698
2521.65067,0.00721
2519.59050,0.00713
2517.53033,0.00718
2515.47015,0.00763
2513.40998,0.00785
2511.34981,0.00754
2509.28964,0.00716
2507.22947,0.00696
2505.16929,0.00701
2503.10912,0.00718
2501.04895,0.00729
2498.98878,0.00734
2496.92861,0.00714
2494.86843,0.00677
2492.80826,0.00678
2490.74809,0.00693
2488.68792,0.00704
2486.62775,0.00752
2484.56757,0.00793
2482.50740,0.00771
2480.44723,0.00751
2478.38706,0.00781
2476.32688,0.00807
2474.26671,0.00798
2472.20654,0.00817
2470.14637,0.00861
2468.08620,0.00842
2466.02602,0.00770
2463.96585,0.00716
2461.90568,0.00711
2459.84551,0.00751
2457.78534,0.00781
2455.72516,0.00778
2453.66499,0.00780
2451.60482,0.00807
2449.54465,0.00825
2447.48447,0.00801
2445.42430,0.00786
2443.36413,0.00822
2441.30396,0.00839
2439.24379,0.00790
2437.18361,0.00745
2435.12344,0.00756
2433.06327,0.00779
2431.00310,0.00765
2428.94293,0.00745
2426.88275,0.00743
2424.82258,0.00733
2422.76241,0.00725
2420.70224,0.00763
2418.64207,0.00839
2416.58189,0.00880
2414.52172,0.00841
2412.46155,0.00797
2410.40138,0.00810
2408.34120,0.00824
2406.28103,0.00792
2404.22086,0.00754
2402.16069,0.00771
2400.10052,0.00828
2398.04034,0.00816
2395.98017,0.00764
2393.92000,0.00731
2391.85983,0.00746
2389.79966,0.00763
2387.73948,0.00747
2385.67931,0.00746
2383.61914,0.00795
2381.55897,0.00858
2379.49880,0.00881
2377.43862,0.00861
2375.37845,0.00852
2373.31828,0.00990
2371.25811,0.01220
2369.19793,0.01289
2367.13776,0.01214
2365.07759,0.01176
2363.01742,0.01117
2360.95725,0.01121
2358.89707,0.00907
2356.83690,0.00711
2354.77673,0.00693
2352.71656,0.00793
2350.65639,0.01135
2348.59621,0.01285
2346.53604,0.00889
2344.47587,0.00892
2342.41570,0.00975
2340.35552,0.00821
2338.29535,0.00674
2336.23518,0.00694
2334.17501,0.00888
2332.11484,0.00999
2330.05466,0.00966
2327.99449,0.00902
2325.93432,0.00984
2323.87415,0.00993
2321.81398,0.00970
2319.75380,0.00894
2317.69363,0.00856
2315.63346,0.00793
2313.57329,0.00775
2311.51312,0.00838
2309.45294,0.00900
2307.39277,0.00904
2305.33260,0.00835
2303.27243,0.00766
2301.21225,0.00756
2299.15208,0.00796
2297.09191,0.00812
2295.03174,0.00811
2292.97157,0.00833
2290.91139,0.00851
2288.85122,0.00855
2286.79105,0.00859
2284.73088,0.00851
2282.67071,0.00841
2280.61053,0.00855
2278.55036,0.00881
2276.49019,0.00904
2274.43002,0.00897
2272.36984,0.00838
2270.30967,0.00780
2268.24950,0.00750
2266.18933,0.00693
2264.12916,0.00616
2262.06898,0.00629
2260.00881,0.00726
2257.94864,0.00772
2255.88847,0.00723
2253.82830,0.00641
2251.76812,0.00582
2249.70795,0.00624
2247.64778,0.00764
2245.58761,0.00810
2243.52744,0.00708
2241.46726,0.00603
2239.40709,0.00607
2237.34692,0.00676
2235.28675,0.00705
2233.22657,0.00638
2231.16640,0.00557
2229.10623,0.00572
2227.04606,0.00617
2224.98589,0.00637
2222.92571,0.00704
2220.86554,0.00779
2218.80537,0.00824
2216.74520,0.00869
2214.68503,0.00856
2212.62485,0.00803
2210.56468,0.00796
2208.50451,0.00761
2206.44434,0.00689
2204.38417,0.00743
2202.32399,0.00837
2200.26382,0.00864
2198.20365,0.00916
2196.14348,0.00896
2194.08330,0.00755
2192.02313,0.00645
2189.96296,0.00554
2187.90279,0.00478
2185.84262,0.00382
2183.78244,0.00221
2181.72227,0.00217
2179.66210,0.00368
2177.60193,0.00465
2175.54176,0.00563
2173.48158,0.00669
2171.42141,0.00689
2169.36124,0.00673
2167.30107,0.00710
2165.24089,0.00857
2163.18072,0.01017
2161.12055,0.00943
2159.06038,0.00709
2157.00021,0.00591
2154.94003,0.00582
2152.87986,0.00583
2150.81969,0.00548
2148.75952,0.00459
2146.69935,0.00283
2144.63917,0.00079
2142.57900,0.00131
2140.51883,0.00437
2138.45866,0.00611
2136.39849,0.00563
2134.33831,0.00531
2132.27814,0.00566
2130.21797,0.00533
2128.15780,0.00443
2126.09762,0.00448
2124.03745,0.00531
2121.97728,0.00551
2119.91711,0.00532
2117.85694,0.00562
2115.79676,0.00601
2113.73659,0.00602
2111.67642,0.00576
2109.61625,0.00510
2107.55608,0.00456
2105.49590,0.00493
2103.43573,0.00566
2101.37556,0.00594
2099.31539,0.00567
2097.25521,0.00529
2095.19504,0.00512
2093.13487,0.00498
2091.07470,0.00481
2089.01453,0.00488
2086.95435,0.00530
2084.89418,0.00597
2082.83401,0.00617
2080.77384,0.00566
2078.71367,0.00540
2076.65349,0.00552
2074.59332,0.00539
2072.53315,0.00532
2070.47298,0.00572
2068.41281,0.00637
2066.35263,0.00738
2064.29246,0.00781
2062.23229,0.00669
2060.17212,0.00540
2058.11194,0.00504
2056.05177,0.00533
2053.99160,0.00605
2051.93143,0.00656
2049.87126,0.00598
2047.81108,0.00487
2045.75091,0.00480
2043.69074,0.00527
2041.63057,0.00458
2039.57040,0.00383
2037.51022,0.00476
2035.45005,0.00571
2033.38988,0.00426
2031.32971,0.00156
2029.26954,0.00000
2027.20936,0.00020
2025.14919,0.00277
2023.08902,0.00684
2021.02885,0.00900
2018.96867,0.00807
2016.90850,0.00641
2014.84833,0.00533
2012.78816,0.00525
2010.72799,0.00576
2008.66781,0.00480
2006.60764,0.00308
2004.54747,0.00300
2002.48730,0.00425
2000.42713,0.00456
1998.36695,0.00366
1996.30678,0.00273
1994.24661,0.00220
1992.18644,0.00286
1990.12626,0.00411
1988.06609,0.00480
1986.00592,0.00513
1983.94575,0.00517
1981.88558,0.00474
1979.82540,0.00371
1977.76523,0.00271
1975.70506,0.00235
1973.64489,0.00251
1971.58472,0.00343
1969.52454,0.00404
1967.46437,0.00316
1965.40420,0.00210
1963.34403,0.00210
1961.28386,0.00284
1959.22368,0.00351
1957.16351,0.00351
1955.10334,0.00345
1953.04317,0.00395
1950.98299,0.00382
1948.92282,0.00312
1946.86265,0.00304
1944.80248,0.00343
1942.74231,0.00389
1940.68213,0.00414
1938.62196,0.00412
1936.56179,0.00388
1934.50162,0.00329
1932.44145,0.00291
1930.38127,0.00316
1928.32110,0.00334
1926.26093,0.00329
1924.20076,0.00360
1922.14059,0.00386
1920.08041,0.00345
1918.02024,0.00312
1915.96007,0.00356
1913.89990,0.00401
1911.83972,0.00388
1909.77955,0.00361
1907.71938,0.00336
1905.65921,0.00308
1903.59904,0.00325
1901.53886,0.00388
1899.47869,0.00413
1897.41852,0.00399
1895.35835,0.00415
1893.29818,0.00424
1891.23800,0.00381
1889.17783,0.00349
1887.11766,0.00336
1885.05749,0.00313
1882.99731,0.00325
1880.93714,0.00384
1878.87697,0.00410
1876.81680,0.00372
1874.75663,0.00321
1872.69645,0.00305
1870.63628,0.00313
1868.57611,0.00306
1866.51594,0.00291
1864.45577,0.00282
1862.39559,0.00270
1860.33542,0.00264
1858.27525,0.00259
1856.21508,0.00251
1854.15491,0.00263
1852.09473,0.00291
1850.03456,0.00306
1847.97439,0.00314
1845.91422,0.00337
1843.85404,0.00343
1841.79387,0.00307
1839.73370,0.00281
1837.67353,0.00289
1835.61336,0.00299
1833.55318,0.00278
1831.49301,0.00245
1829.43284,0.00257
1827.37267,0.00317
1825.31250,0.00352
1823.25232,0.00339
1821.19215,0.00321
1819.13198,0.00325
1817.07181,0.00338
1815.01163,0.00344
1812.95146,0.00334
1810.89129,0.00316
1808.83112,0.00310
1806.77095,0.00320
1804.71077,0.00347
1802.65060,0.00372
1800.59043,0.00352
1798.53026,0.00310
1796.47009,0.00314
1794.40991,0.00358
1792.34974,0.00396
1790.28957,0.00402
1788.22940,0.00388
1786.16923,0.00375
1784.10905,0.00382
1782.04888,0.00399
1779.98871,0.00402
1777.92854,0.00383
1775.86836,0.00348
1773.80819,0.00316
1771.74802,0.00306
1769.68785,0.00311
1767.62768,0.00327
1765.56750,0.00364
1763.50733,0.00422
1761.44716,0.00474
1759.38699,0.00482
1757.32682,0.00455
1755.26664,0.00437
1753.20647,0.00447
1751.14630,0.00482
1749.08613,0.00532
1747.02596,0.00562
1744.96578,0.00552
1742.90561,0.00524
1740.84544,0.00519
1738.78527,0.00538
1736.72509,0.00558
1734.66492,0.00582
1732.60475,0.00610
1730.54458,0.00616
1728.48441,0.00599
1726.42423,0.00578
1724.36406,0.00575
1722.30389,0.00582
1720.24372,0.00589
1718.18355,0.00629
1716.12337,0.00690
1714.06320,0.00684
1712.00303,0.00636
1709.94286,0.00612
1707.88268,0.00632
1705.82251,0.00691
1703.76234,0.00765
1701.70217,0.00835
1699.64200,0.00891
1697.58182,0.00916
1695.52165,0.00912
1693.46148,0.00904
1691.40131,0.00926
1689.34114,0.00990
1687.28096,0.01071
1685.22079,0.01148
1683.16062,0.01217
1681.10045,0.01264
1679.04028,0.01297
1676.98010,0.01315
1674.91993,0.01323
1672.85976,0.01354
1670.79959,0.01415
1668.73941,0.01464
1666.67924,0.01475
1664.61907,0.01497
1662.55890,0.01553
1660.49873,0.01595
1658.43855,0.01608
1656.37838,0.01620
1654.31821,0.01643
1652.25804,0.01667
1650.19787,0.01668
1648.13769,0.01677
1646.07752,0.01689
1644.01735,0.01665
1641.95718,0.01632
1639.89701,0.01628
1637.83683,0.01645
1635.77666,0.01645
1633.71649,0.01616
1631.65632,0.01584
1629.59614,0.01552
1627.53597,0.01500
1625.47580,0.01439
1623.41563,0.01384
1621.35546,0.01349
1619.29528,0.01353
1617.23511,0.01369
1615.17494,0.01341
1613.11477,0.01269
1611.05460,0.01198
1608.99442,0.01150
1606.93425,0.01126
1604.87408,0.01113
1602.81391,0.01098
1600.75373,0.01076
1598.69356,0.01054
1596.63339,0.01041
1594.57322,0.01039
1592.51305,0.01038
1590.45287,0.01018
1588.39270,0.00964
1586.33253,0.00910
1584.27236,0.00890
1582.21219,0.00884
1580.15201,0.00879
1578.09184,0.00884
1576.03167,0.00895
1573.97150,0.00884
1571.91133,0.00853
1569.85115,0.00838
1567.79098,0.00851
1565.73081,0.00859
1563.67064,0.00837
1561.61046,0.00791
1559.55029,0.00773
1557.49012,0.00818
1555.42995,0.00846
1553.36978,0.00837
1551.30960,0.00822
1549.24943,0.00821
1547.18926,0.00835
1545.12909,0.00850
1543.06892,0.00837
1541.00874,0.00808
1538.94857,0.00816
1536.88840,0.00833
1534.82823,0.00817
1532.76805,0.00768
1530.70788,0.00717
1528.64771,0.00685
1526.58754,0.00675
1524.52737,0.00688
1522.46719,0.00711
1520.40702,0.00706
1518.34685,0.00663
1516.28668,0.00616
1514.22651,0.00598
1512.16633,0.00614
1510.10616,0.00642
1508.04599,0.00642
1505.98582,0.00600
1503.92565,0.00540
1501.86547,0.00478
1499.80530,0.00427
1497.74513,0.00415
1495.68496,0.00427
1493.62478,0.00430
1491.56461,0.00426
1489.50444,0.00438
1487.44427,0.00451
1485.38410,0.00424
1483.32392,0.00371
1481.26375,0.00335
1479.20358,0.00332
1477.14341,0.00345
1475.08324,0.00375
1473.02306,0.00410
1470.96289,0.00415
1468.90272,0.00396
1466.84255,0.00384
1464.78238,0.00386
1462.72220,0.00389
1460.66203,0.00396
1458.60186,0.00416
1456.54169,0.00435
1454.48151,0.00429
1452.42134,0.00409
1450.36117,0.00386
1448.30100,0.00374
1446.24083,0.00382
1444.18065,0.00390
1442.12048,0.00381
1440.06031,0.00362
1438.00014,0.00351
1435.93997,0.00350
1433.87979,0.00350
1431.81962,0.00346
1429.75945,0.00346
1427.69928,0.00347
1425.63910,0.00341
1423.57893,0.00332
1421.51876,0.00330
1419.45859,0.00346
1417.39842,0.00376
1415.33824,0.00395
1413.27807,0.00401
1411.21790,0.00402
1409.15773,0.00400
1407.09756,0.00388
1405.03738,0.00369
1402.97721,0.00360
1400.91704,0.00359
1398.85687,0.00342
1396.79670,0.00304
1394.73652,0.00276
1392.67635,0.00268
1390.61618,0.00271
1388.55601,0.00280
1386.49583,0.00284
1384.43566,0.00279
1382.37549,0.00273
1380.31532,0.00258
1378.25515,0.00247
1376.19497,0.00254
1374.13480,0.00267
1372.07463,0.00256
1370.01446,0.00228
1367.95429,0.00210
1365.89411,0.00210
1363.83394,0.00214
1361.77377,0.00210
1359.71360,0.00195
1357.65343,0.00173
1355.59325,0.00156
1353.53308,0.00146
1351.47291,0.00138
1349.41274,0.00136
1347.35256,0.00143
1345.29239,0.00145
1343.23222,0.00138
1341.17205,0.00134
1339.11188,0.00150
1337.05170,0.00179
1334.99153,0.00186
1332.93136,0.00160
1330.87119,0.00142
1328.81102,0.00160
1326.75084,0.00195
1324.69067,0.00213
1322.63050,0.00216
1320.57033,0.00216
1318.51015,0.00209
1316.44998,0.00202
1314.38981,0.00210
1312.32964,0.00224
1310.26947,0.00235
1308.20929,0.00249
1306.14912,0.00265
1304.08895,0.00266
1302.02878,0.00250
1299.96861,0.00232
1297.90843,0.00230
1295.84826,0.00256
1293.78809,0.00288
1291.72792,0.00307
1289.66775,0.00318
1287.60757,0.00321
1285.54740,0.00315
1283.48723,0.00310
1281.42706,0.00303
1279.36688,0.00296
1277.30671,0.00295
1275.24654,0.00312
1273.18637,0.00347
1271.12620,0.00375
1269.06602,0.00379
1267.00585,0.00377
1264.94568,0.00380
1262.88551,0.00381
1260.82534,0.00384
1258.76516,0.00388
1256.70499,0.00383
1254.64482,0.00373
1252.58465,0.00373
1250.52447,0.00376
1248.46430,0.00369
1246.40413,0.00365
1244.34396,0.00371
1242.28379,0.00374
1240.22361,0.00383
1238.16344,0.00389
1236.10327,0.00362
1234.04310,0.00334
1231.98293,0.00321
1229.92275,0.00303
1227.86258,0.00291
1225.80241,0.00288
1223.74224,0.00270
1221.68207,0.00225
1219.62189,0.00195
1217.56172,0.00197
1215.50155,0.00186
1213.44138,0.00157
1211.38120,0.00148
1209.32103,0.00147
1207.26086,0.00121
1205.20069,0.00087
1203.14052,0.00066
1201.08034,0.00049
1199.02017,0.00030
1196.96000,0.00008
1194.89983,0.00000
1192.83966,0.00018
1190.77948,0.00044
1188.71931,0.00044
1186.65914,0.00024
1184.59897,0.00024
1182.53880,0.00043
1180.47862,0.00052
1178.41845,0.00056
1176.35828,0.00070
1174.29811,0.00091
1172.23793,0.00108
1170.17776,0.00116
1168.11759,0.00128
1166.05742,0.00152
1163.99725,0.00196
1161.93707,0.00251
1159.87690,0.00297
1157.81673,0.00335
1155.75656,0.00371
1153.69639,0.00399
1151.63621,0.00436
1149.57604,0.00493
1147.51587,0.00556
1145.45570,0.00604
1143.39552,0.00648
1141.33535,0.00711
1139.27518,0.00789
1137.21501,0.00885
1135.15484,0.00998
1133.09466,0.01108
1131.03449,0.01209
1128.97432,0.01305
1126.91415,0.01398
1124.85398,0.01491
1122.79380,0.01596
1120.73363,0.01723
1118.67346,0.01859
1116.61329,0.01971
1114.55312,0.02064
1112.49294,0.02175
1110.43277,0.02319
1108.37260,0.02455
1106.31243,0.02571
1104.25225,0.02691
1102.19208,0.02806
1100.13191,0.02910
1098.07174,0.03008
1096.01157,0.03092
1093.95139,0.03181
1091.89122,0.03284
1089.83105,0.03382
1087.77088,0.03489
1085.71071,0.03598
1083.65053,0.03686
1081.59036,0.03760
1079.53019,0.03817
1077.47002,0.03876
1075.40985,0.03966
1073.34967,0.04064
1071.28950,0.04124
1069.22933,0.04145
1067.16916,0.04167
1065.10898,0.04181
1063.04881,0.04169
1060.98864,0.04150
1058.92847,0.04103
1056.86830,0.04023
1054.80812,0.03950
1052.74795,0.03876
1050.68778,0.03773
1048.62761,0.03654
1046.56744,0.03516
1044.50726,0.03353
1042.44709,0.03191
1040.38692,0.03039
1038.32675,0.02889
1036.26657,0.02735
1034.20640,0.02598
1032.14623,0.02486
1030.08606,0.02365
1028.02589,0.02226
1025.96571,0.02075
1023.90554,0.01929
1021.84537,0.01826
1019.78520,0.01768
1017.72503,0.01722
1015.66485,0.01686
1013.60468,0.01676
1011.54451,0.01674
1009.48434,0.01664
1007.42417,0.01667
1005.36399,0.01713
1003.30382,0.01795
1001.24365,0.01872
999.18348,0.01973
997.12330,0.02131
995.06313,0.02270
993.00296,0.02359
990.94279,0.02442
988.88262,0.02513
986.82244,0.02546
984.76227,0.02575
982.70210,0.02647
980.64193,0.02720
978.58176,0.02736
976.52158,0.02705
974.46141,0.02630
972.40124,0.02527
970.34107,0.02449
968.28089,0.02405
966.22072,0.02323
964.16055,0.02188
962.10038,0.02066
960.04021,0.01949
957.98003,0.01788
955.91986,0.01634
953.85969,0.01535
951.79952,0.01436
949.73935,0.01303
947.67917,0.01190
945.61900,0.01128
943.55883,0.01074
941.49866,0.00993
939.43849,0.00906
937.37831,0.00842
935.31814,0.00787
933.25797,0.00717
931.19780,0.00662
929.13762,0.00629
927.07745,0.00586
925.01728,0.00541
922.95711,0.00475
920.89694,0.00384
918.83676,0.00323
916.77659,0.00308
914.71642,0.00330
912.65625,0.00366
910.59608,0.00368
908.53590,0.00327
906.47573,0.00288
904.41556,0.00286
902.35539,0.00267
900.29522,0.00240
898.23504,0.00271
896.17487,0.00329
894.11470,0.00386
892.05453,0.00422
889.99435,0.00414
887.93418,0.00423
885.87401,0.00490
883.81384,0.00572
881.75367,0.00632
879.69349,0.00688
877.63332,0.00752
875.57315,0.00786
873.51298,0.00798
871.45281,0.00844
869.39263,0.00903
867.33246,0.00943
865.27229,0.00969
863.21212,0.00970
861.15194,0.00971
859.09177,0.01005
857.03160,0.01057
854.97143,0.01121
852.91126,0.01153
850.85108,0.01121
848.79091,0.01097
846.73074,0.01097
844.67057,0.01047
842.61040,0.00965
840.55022,0.00893
838.49005,0.00812
836.42988,0.00775
834.36971,0.00795
832.30954,0.00754
830.24936,0.00658
828.18919,0.00603
826.12902,0.00588
824.06885,0.00608
822.00867,0.00652
819.94850,0.00664
817.88833,0.00619
815.82816,0.00554
813.76799,0.00545
811.70781,0.00546
809.64764,0.00484
807.58747,0.00415
805.52730,0.00380
803.46713,0.00374
801.40695,0.00385
799.34678,0.00368
797.28661,0.00334
795.22644,0.00359
793.16627,0.00396
791.10609,0.00373
789.04592,0.00343
786.98575,0.00334
784.92558,0.00314
782.86540,0.00282
780.80523,0.00264
778.74506,0.00255
776.68489,0.00247
774.62472,0.00277
772.56454,0.00325
770.50437,0.00322
768.44420,0.00272
766.38403,0.00235
764.32386,0.00231
762.26368,0.00218
760.20351,0.00171
758.14334,0.00151
756.08317,0.00199
754.02299,0.00255
751.96282,0.00243
749.90265,0.00141
747.84248,0.00050
745.78231,0.00125
743.72213,0.00302
741.66196,0.00305
739.60179,0.00143
737.54162,0.00111
735.48145,0.00250
733.42127,0.00349
731.36110,0.00306
729.30093,0.00236
727.24076,0.00239
725.18059,0.00233
723.12041,0.00212
721.06024,0.00124
719.00007,0.00149
716.93990,0.00244
714.87972,0.00308
712.81955,0.00294
710.75938,0.00229
708.69921,0.00171
706.63904,0.00159
704.57886,0.00219
702.51869,0.00286
700.45852,0.00283
698.39835,0.00227
696.33818,0.00198
694.27800,0.00265
692.21783,0.00408
690.15766,0.00538
688.09749,0.00615
686.03731,0.00623
683.97714,0.00513
681.91697,0.00345
679.85680,0.00233
677.79663,0.00192
675.73645,0.00231
673.67628,0.00477
671.61611,0.00882
669.55594,0.00565
667.49577,0.00000
665.43559,0.00664
663.37542,0.00586
661.31525,0.00406
659.25508,0.00330
657.19491,0.00299
655.13473,0.00304
653.07456,0.00350
651.01439,0.00396
648.95422,0.00349
646.89404,0.00262
644.83387,0.00240
642.77370,0.00330
640.71353,0.00382
638.65336,0.00356
636.59318,0.00378
634.53301,0.00429
632.47284,0.00471
630.41267,0.00673
628.35250,0.01023
626.29232,0.01097
624.23215,0.00534
622.17198,0.00000
620.11181,0.00099
618.05164,0.00458
615.99146,0.00577
613.93129,0.00447
611.87112,0.00309
609.81095,0.00435
607.75077,0.00579
605.69060,0.00432
603.63043,0.00161
601.57026,-0.00059
599.51009,0.00000
