3996.73391,0.00068
3994.67373,0.00061
3992.61356,0.00031
3990.55339,0.00016
3988.49322,0.00034
3986.43305,0.00061
3984.37287,0.00089
3982.31270,0.00118
3980.25253,0.00124
3978.19236,0.00095
3976.13219,0.00067
3974.07201,0.00068
3972.01184,0.00076
3969.95167,0.00076
3967.89150,0.00074
3965.83133,0.00083
3963.77115,0.00121
3961.71098,0.00166
3959.65081,0.00166
3957.59064,0.00126
3955.53046,0.00086
3953.47029,0.00062
3951.41012,0.00043
3949.34995,0.00018
3947.28978,0.00000
3945.22960,0.00022
3943.16943,0.00066
3941.10926,0.00099
3939.04909,0.00119
3936.98892,0.00130
3934.92874,0.00131
3932.86857,0.00110
3930.80840,0.00076
3928.74823,0.00071
3926.68805,0.00085
3924.62788,0.00087
3922.56771,0.00098
3920.50754,0.00112
3918.44737,0.00084
3916.38719,0.00043
3914.32702,0.00057
3912.26685,0.00105
3910.20668,0.00146
3908.14651,0.00205
3906.08633,0.00269
3904.02616,0.00255
3901.96599,0.00158
3899.90582,0.00065
3897.84565,0.00044
3895.78547,0.00121
3893.72530,0.00208
3891.66513,0.00192
3889.60496,0.00137
3887.54478,0.00141
3885.48461,0.00146
3883.42444,0.00136
3881.36427,0.00129
3879.30410,0.00115
3877.24392,0.00134
3875.18375,0.00161
3873.12358,0.00154
3871.06341,0.00126
3869.00324,0.00110
3866.94306,0.00157
3864.88289,0.00207
3862.82272,0.00180
3860.76255,0.00155
3858.70237,0.00200
3856.64220,0.00279
3854.58203,0.00283
3852.52186,0.00133
3850.46169,0.00000
3848.40151,0.00008
3846.34134,0.00093
3844.28117,0.00163
3842.22100,0.00192
3840.16083,0.00188
3838.10065,0.00160
3836.04048,0.00132
3833.98031,0.00109
3831.92014,0.00088
3829.85997,0.00096
3827.79979,0.00119
3825.73962,0.00143
3823.67945,0.00203
3821.61928,0.00267
3819.55910,0.00270
3817.49893,0.00215
3815.43876,0.00110
3813.37859,0.00075
3811.31842,0.00156
3809.25824,0.00235
3807.19807,0.00238
3805.13790,0.00233
3803.07773,0.00243
3801.01756,0.00190
3798.95738,0.00128
3796.89721,0.00116
3794.83704,0.00120
3792.77687,0.00140
3790.71670,0.00164
3788.65652,0.00163
3786.59635,0.00138
3784.53618,0.00118
3782.47601,0.00133
3780.41583,0.00141
3778.35566,0.00100
3776.29549,0.00085
3774.23532,0.00145
3772.17515,0.00212
3770.11497,0.00223
3768.05480,0.00213
3765.99463,0.00209
3763.93446,0.00219
3761.87429,0.00250
3759.81411,0.00249
3757.75394,0.00210
3755.69377,0.00217
3753.63360,0.00255
3751.57342,0.00214
3749.51325,0.00115
3747.45308,0.00119
3745.39291,0.00131
3743.33274,0.00070
3741.27256,0.00094
3739.21239,0.00209
3737.15222,0.00258
3735.09205,0.00170
3733.03188,0.00073
3730.97170,0.00067
3728.91153,0.00110
3726.85136,0.00154
3724.79119,0.00189
3722.73102,0.00187
3720.67084,0.00129
3718.61067,0.00085
3716.55050,0.00114
3714.49033,0.00175
3712.43015,0.00166
3710.36998,0.00077
3708.30981,0.00061
3706.24964,0.00128
3704.18947,0.00190
3702.12929,0.00194
3700.06912,0.00165
3698.00895,0.00169
3695.94878,0.00210
3693.88861,0.00259
3691.82843,0.00261
3689.76826,0.00147
3687.70809,0.00006
3685.64792,0.00021
3683.58775,0.00146
3681.52757,0.00277
3679.46740,0.00364
3677.40723,0.00356
3675.34706,0.00239
3673.28688,0.00163
3671.22671,0.00161
3669.16654,0.00129
3667.10637,0.00132
3665.04620,0.00194
3662.98602,0.00236
3660.92585,0.00255
3658.86568,0.00304
3656.80551,0.00361
3654.74534,0.00384
3652.68516,0.00393
3650.62499,0.00353
3648.56482,0.00235
3646.50465,0.00177
3644.44447,0.00219
3642.38430,0.00262
3640.32413,0.00279
3638.26396,0.00322
3636.20379,0.00397
3634.14361,0.00472
3632.08344,0.00524
3630.02327,0.00485
3627.96310,0.00366
3625.90293,0.00364
3623.84275,0.00454
3621.78258,0.00504
3619.72241,0.00484
3617.66224,0.00441
3615.60207,0.00443
3613.54189,0.00499
3611.48172,0.00578
3609.42155,0.00618
3607.36138,0.00599
3605.30120,0.00594
3603.24103,0.00621
3601.18086,0.00633
3599.12069,0.00632
3597.06052,0.00648
3595.00034,0.00661
3592.94017,0.00677
3590.88000,0.00711
3588.81983,0.00711
3586.75966,0.00651
3584.69948,0.00641
3582.63931,0.00695
3580.57914,0.00732
3578.51897,0.00745
3576.45879,0.00765
3574.39862,0.00786
3572.33845,0.00807
3570.27828,0.00849
3568.21811,0.00899
3566.15793,0.00911
3564.09776,0.00900
3562.03759,0.00906
3559.97742,0.00926
3557.91725,0.00948
3555.85707,0.00957
3553.79690,0.00938
3551.73673,0.00920
3549.67656,0.00945
3547.61639,0.00997
3545.55621,0.01024
3543.49604,0.01014
3541.43587,0.01010
3539.37570,0.01040
3537.31552,0.01069
3535.25535,0.01070
3533.19518,0.01072
3531.13501,0.01095
3529.07484,0.01123
3527.01466,0.01128
3524.95449,0.01105
3522.89432,0.01098
3520.83415,0.01127
3518.77398,0.01157
3516.71380,0.01177
3514.65363,0.01194
3512.59346,0.01214
3510.53329,0.01243
3508.47312,0.01268
3506.41294,0.01273
3504.35277,0.01268
3502.29260,0.01271
3500.23243,0.01303
3498.17225,0.01345
3496.11208,0.01349
3494.05191,0.01323
3491.99174,0.01321
3489.93157,0.01350
3487.87139,0.01380
3485.81122,0.01393
3483.75105,0.01398
3481.69088,0.01420
3479.63071,0.01453
3477.57053,0.01448
3475.51036,0.01424
3473.45019,0.01440
3471.39002,0.01478
3469.32984,0.01503
3467.26967,0.01513
3465.20950,0.01516
3463.14933,0.01503
3461.08916,0.01490
3459.02898,0.01513
3456.96881,0.01543
3454.90864,0.01535
3452.84847,0.01523
3450.78830,0.01537
3448.72812,0.01551
3446.66795,0.01550
3444.60778,0.01550
3442.54761,0.01567
3440.48744,0.01596
3438.42726,0.01629
3436.36709,0.01663
3434.30692,0.01679
3432.24675,0.01670
3430.18657,0.01640
3428.12640,0.01619
3426.06623,0.01638
3424.00606,0.01679
3421.94589,0.01698
3419.88571,0.01686
3417.82554,0.01671
3415.76537,0.01672
3413.70520,0.01690
3411.64503,0.01695
3409.58485,0.01695
3407.52468,0.01734
3405.46451,0.01780
3403.40434,0.01784
3401.34416,0.01772
3399.28399,0.01771
3397.22382,0.01751
3395.16365,0.01723
3393.10348,0.01738
3391.04330,0.01764
3388.98313,0.01762
3386.92296,0.01757
3384.86279,0.01766
3382.80262,0.01774
3380.74244,0.01782
3378.68227,0.01792
3376.62210,0.01794
3374.56193,0.01796
3372.50176,0.01790
3370.44158,0.01782
3368.38141,0.01792
3366.32124,0.01815
3364.26107,0.01838
3362.20089,0.01857
3360.14072,0.01868
3358.08055,0.01867
3356.02038,0.01871
3353.96021,0.01879
3351.90003,0.01869
3349.83986,0.01857
3347.77969,0.01873
3345.71952,0.01883
3343.65935,0.01853
3341.59917,0.01816
3339.53900,0.01820
3337.47883,0.01855
3335.41866,0.01878
3333.35849,0.01869
3331.29831,0.01843
3329.23814,0.01828
3327.17797,0.01832
3325.11780,0.01842
3323.05762,0.01851
3320.99745,0.01857
3318.93728,0.01845
3316.87711,0.01826
3314.81694,0.01816
3312.75676,0.01804
3310.69659,0.01804
3308.63642,0.01824
3306.57625,0.01844
3304.51608,0.01850
3302.45590,0.01852
3300.39573,0.01868
3298.33556,0.01883
3296.27539,0.01871
3294.21521,0.01855
3292.15504,0.01858
3290.09487,0.01860
3288.03470,0.01856
3285.97453,0.01854
3283.91435,0.01847
3281.85418,0.01848
3279.79401,0.01867
3277.73384,0.01896
3275.67367,0.01912
3273.61349,0.01891
3271.55332,0.01851
3269.49315,0.01834
3267.43298,0.01834
3265.37281,0.01839
3263.31263,0.01861
3261.25246,0.01884
3259.19229,0.01879
3257.13212,0.01865
3255.07194,0.01855
3253.01177,0.01837
3250.95160,0.01819
3248.89143,0.01818
3246.83126,0.01811
3244.77108,0.01793
3242.71091,0.01797
3240.65074,0.01814
3238.59057,0.01823
3236.53040,0.01824
3234.47022,0.01830
3232.41005,0.01843
3230.34988,0.01842
3228.28971,0.01822
3226.22954,0.01815
3224.16936,0.01810
3222.10919,0.01784
3220.04902,0.01768
3217.98885,0.01779
3215.92867,0.01789
3213.86850,0.01803
3211.80833,0.01831
3209.74816,0.01845
3207.68799,0.01824
3205.62781,0.01795
3203.56764,0.01782
3201.50747,0.01789
3199.44730,0.01800
3197.38713,0.01794
3195.32695,0.01766
3193.26678,0.01735
3191.20661,0.01740
3189.14644,0.01770
3187.08626,0.01755
3185.02609,0.01714
3182.96592,0.01711
3180.90575,0.01727
3178.84558,0.01728
3176.78540,0.01723
3174.72523,0.01727
3172.66506,0.01721
3170.60489,0.01709
3168.54472,0.01719
3166.48454,0.01738
3164.42437,0.01744
3162.36420,0.01734
3160.30403,0.01710
3158.24386,0.01695
3156.18368,0.01700
3154.12351,0.01715
3152.06334,0.01728
3150.00317,0.01720
3147.94299,0.01692
3145.88282,0.01675
3143.82265,0.01675
3141.76248,0.01677
3139.70231,0.01663
3137.64213,0.01627
3135.58196,0.01586
3133.52179,0.01577
3131.46162,0.01595
3129.40145,0.01604
3127.34127,0.01601
3125.28110,0.01597
3123.22093,0.01594
3121.16076,0.01592
3119.10058,0.01586
3117.04041,0.01568
3114.98024,0.01539
3112.92007,0.01512
3110.85990,0.01509
3108.79972,0.01519
3106.73955,0.01516
3104.67938,0.01505
3102.61921,0.01500
3100.55904,0.01497
3098.49886,0.01495
3096.43869,0.01505
3094.37852,0.01519
3092.31835,0.01524
3090.25818,0.01522
3088.19800,0.01518
3086.13783,0.01510
3084.07766,0.01497
3082.01749,0.01491
3079.95731,0.01490
3077.89714,0.01478
3075.83697,0.01450
3073.77680,0.01429
3071.71663,0.01427
3069.65645,0.01419
3067.59628,0.01397
3065.53611,0.01378
3063.47594,0.01368
3061.41577,0.01362
3059.35559,0.01361
3057.29542,0.01366
3055.23525,0.01376
3053.17508,0.01385
3051.11491,0.01387
3049.05473,0.01382
3046.99456,0.01367
3044.93439,0.01338
3042.87422,0.01301
3040.81404,0.01282
3038.75387,0.01289
3036.69370,0.01298
3034.63353,0.01299
3032.57336,0.01297
3030.51318,0.01296
3028.45301,0.01292
3026.39284,0.01277
3024.33267,0.01252
3022.27250,0.01227
3020.21232,0.01220
3018.15215,0.01231
3016.09198,0.01240
3014.03181,0.01241
3011.97163,0.01235
3009.91146,0.01215
3007.85129,0.01188
3005.79112,0.01167
3003.73095,0.01154
3001.67077,0.01161
2999.61060,0.01184
2997.55043,0.01193
2995.49026,0.01191
2993.43009,0.01204
2991.36991,0.01204
2989.30974,0.01188
2987.24957,0.01185
2985.18940,0.01183
2983.12923,0.01177
2981.06905,0.01175
2979.00888,0.01164
2976.94871,0.01148
2974.88854,0.01151
2972.82836,0.01160
2970.76819,0.01163
2968.70802,0.01162
2966.64785,0.01157
2964.58768,0.01171
2962.52750,0.01197
2960.46733,0.01203
2958.40716,0.01199
2956.34699,0.01196
2954.28682,0.01190
2952.22664,0.01191
2950.16647,0.01183
2948.10630,0.01144
2946.04613,0.01121
2943.98596,0.01139
2941.92578,0.01157
2939.86561,0.01155
2937.80544,0.01146
2935.74527,0.01149
2933.68509,0.01159
2931.62492,0.01157
2929.56475,0.01150
2927.50458,0.01146
2925.44441,0.01141
2923.38423,0.01132
2921.32406,0.01119
2919.26389,0.01108
2917.20372,0.01098
2915.14355,0.01083
2913.08337,0.01064
2911.02320,0.01054
2908.96303,0.01051
2906.90286,0.01040
2904.84268,0.01039
2902.78251,0.01047
2900.72234,0.01038
2898.66217,0.01009
2896.60200,0.00989
2894.54182,0.00992
2892.48165,0.01008
2890.42148,0.01017
2888.36131,0.00997
2886.30114,0.00966
2884.24096,0.00953
2882.18079,0.00956
2880.12062,0.00961
2878.06045,0.00966
2876.00028,0.00963
2873.94010,0.00950
2871.87993,0.00946
2869.81976,0.00960
2867.75959,0.00971
2865.69941,0.00958
2863.63924,0.00934
2861.57907,0.00920
2859.51890,0.00913
2857.45873,0.00894
2855.39855,0.00864
2853.33838,0.00855
2851.27821,0.00861
2849.21804,0.00862
2847.15787,0.00856
2845.09769,0.00839
2843.03752,0.00815
2840.97735,0.00805
2838.91718,0.00806
2836.85700,0.00801
2834.79683,0.00794
2832.73666,0.00792
2830.67649,0.00786
2828.61632,0.00773
2826.55614,0.00760
2824.49597,0.00748
2822.43580,0.00732
2820.37563,0.00722
2818.31546,0.00725
2816.25528,0.00741
2814.19511,0.00749
2812.13494,0.00734
2810.07477,0.00715
2808.01460,0.00717
2805.95442,0.00735
2803.89425,0.00744
2801.83408,0.00730
2799.77391,0.00706
2797.71373,0.00701
2795.65356,0.00707
2793.59339,0.00702
2791.53322,0.00688
2789.47305,0.00674
2787.41287,0.00660
2785.35270,0.00650
2783.29253,0.00654
2781.23236,0.00666
2779.17219,0.00670
2777.11201,0.00656
2775.05184,0.00634
2772.99167,0.00624
2770.93150,0.00637
2768.87133,0.00653
2766.81115,0.00648
2764.75098,0.00625
2762.69081,0.00605
2760.63064,0.00604
2758.57046,0.00610
2756.51029,0.00610
2754.45012,0.00600
2752.38995,0.00574
2750.32978,0.00557
2748.26960,0.00572
2746.20943,0.00601
2744.14926,0.00602
2742.08909,0.00572
2740.02892,0.00557
2737.96874,0.00566
2735.90857,0.00565
2733.84840,0.00552
2731.78823,0.00533
2729.72805,0.00524
2727.66788,0.00540
2725.60771,0.00557
2723.54754,0.00553
2721.48737,0.00538
2719.42719,0.00536
2717.36702,0.00539
2715.30685,0.00531
2713.24668,0.00513
2711.18651,0.00501
2709.12633,0.00508
2707.06616,0.00522
2705.00599,0.00520
2702.94582,0.00504
2700.88565,0.00493
2698.82547,0.00492
2696.76530,0.00497
2694.70513,0.00498
2692.64496,0.00496
2690.58478,0.00493
2688.52461,0.00486
2686.46444,0.00473
2684.40427,0.00466
2682.34410,0.00464
2680.28392,0.00469
2678.22375,0.00482
2676.16358,0.00477
2674.10341,0.00456
2672.04324,0.00443
2669.98306,0.00438
2667.92289,0.00435
2665.86272,0.00432
2663.80255,0.00429
2661.74238,0.00430
2659.68220,0.00434
2657.62203,0.00445
2655.56186,0.00458
2653.50169,0.00456
2651.44151,0.00453
2649.38134,0.00465
2647.32117,0.00478
2645.26100,0.00480
2643.20083,0.00466
2641.14065,0.00451
2639.08048,0.00446
2637.02031,0.00435
2634.96014,0.00437
2632.89997,0.00461
2630.83979,0.00467
2628.77962,0.00455
2626.71945,0.00449
2624.65928,0.00440
2622.59910,0.00438
2620.53893,0.00451
2618.47876,0.00449
2616.41859,0.00436
2614.35842,0.00423
2612.29824,0.00398
2610.23807,0.00372
2608.17790,0.00362
2606.11773,0.00356
2604.05756,0.00352
2601.99738,0.00379
2599.93721,0.00424
2597.87704,0.00439
2595.81687,0.00423
2593.75670,0.00391
2591.69652,0.00365
2589.63635,0.00363
2587.57618,0.00368
2585.51601,0.00372
2583.45583,0.00378
2581.39566,0.00367
2579.33549,0.00342
2577.27532,0.00343
2575.21515,0.00368
2573.15497,0.00368
2571.09480,0.00334
2569.03463,0.00303
2566.97446,0.00286
2564.91429,0.00296
2562.85411,0.00330
2560.79394,0.00328
2558.73377,0.00303
2556.67360,0.00335
2554.61342,0.00394
2552.55325,0.00403
2550.49308,0.00377
2548.43291,0.00345
2546.37274,0.00327
2544.31256,0.00331
2542.25239,0.00336
2540.19222,0.00329
2538.13205,0.00323
2536.07188,0.00319
2534.01170,0.00301
2531.95153,0.00280
2529.89136,0.00276
2527.83119,0.00290
2525.77102,0.00308
2523.71084,0.00311
2521.65067,0.00308
2519.59050,0.00313
2517.53033,0.00319
2515.47015,0.00320
2513.40998,0.00322
2511.34981,0.00338
2509.28964,0.00362
2507.22947,0.00358
2505.16929,0.00338
2503.10912,0.00325
2501.04895,0.00321
2498.98878,0.00318
2496.92861,0.00306
2494.86843,0.00306
2492.80826,0.00340
2490.74809,0.00373
2488.68792,0.00361
2486.62775,0.00340
2484.56757,0.00349
2482.50740,0.00351
2480.44723,0.00342
2478.38706,0.00328
2476.32688,0.00303
2474.26671,0.00299
2472.20654,0.00317
2470.14637,0.00333
2468.08620,0.00358
2466.02602,0.00381
2463.96585,0.00366
2461.90568,0.00336
2459.84551,0.00346
2457.78534,0.00380
2455.72516,0.00404
2453.66499,0.00411
2451.60482,0.00389
2449.54465,0.00359
2447.48447,0.00373
2445.42430,0.00417
2443.36413,0.00423
2441.30396,0.00394
2439.24379,0.00377
2437.18361,0.00358
2435.12344,0.00335
2433.06327,0.00307
2431.00310,0.00280
2428.94293,0.00311
2426.88275,0.00367
2424.82258,0.00379
2422.76241,0.00370
2420.70224,0.00341
2418.64207,0.00303
2416.58189,0.00305
2414.52172,0.00335
2412.46155,0.00358
2410.40138,0.00363
2408.34120,0.00358
2406.28103,0.00355
2404.22086,0.00351
2402.16069,0.00341
2400.10052,0.00337
2398.04034,0.00329
2395.98017,0.00316
2393.92000,0.00307
2391.85983,0.00303
2389.79966,0.00303
2387.73948,0.00308
2385.67931,0.00309
2383.61914,0.00293
2381.55897,0.00284
2379.49880,0.00304
2377.43862,0.00325
2375.37845,0.00337
2373.31828,0.00345
2371.25811,0.00357
2369.19793,0.00354
2367.13776,0.00333
2365.07759,0.00370
2363.01742,0.00505
2360.95725,0.00460
2358.89707,0.00330
2356.83690,0.00256
2354.77673,0.00346
2352.71656,0.00402
2350.65639,0.00265
2348.59621,0.00195
2346.53604,0.00456
2344.47587,0.00509
2342.41570,0.00451
2340.35552,0.00392
2338.29535,0.00371
2336.23518,0.00400
2334.17501,0.00417
2332.11484,0.00416
2330.05466,0.00391
2327.99449,0.00413
2325.93432,0.00395
2323.87415,0.00418
2321.81398,0.00409
2319.75380,0.00409
2317.69363,0.00361
2315.63346,0.00373
2313.57329,0.00429
2311.51312,0.00439
2309.45294,0.00410
2307.39277,0.00380
2305.33260,0.00361
2303.27243,0.00364
2301.21225,0.00398
2299.15208,0.00405
2297.09191,0.00390
2295.03174,0.00390
2292.97157,0.00409
2290.91139,0.00433
2288.85122,0.00439
2286.79105,0.00429
2284.73088,0.00412
2282.67071,0.00392
2280.61053,0.00376
2278.55036,0.00359
2276.49019,0.00355
2274.43002,0.00382
2272.36984,0.00401
2270.30967,0.00381
2268.24950,0.00372
2266.18933,0.00375
2264.12916,0.00345
2262.06898,0.00309
2260.00881,0.00304
2257.94864,0.00292
2255.88847,0.00299
2253.82830,0.00374
2251.76812,0.00435
2249.70795,0.00372
2247.64778,0.00259
2245.58761,0.00256
2243.52744,0.00323
2241.46726,0.00370
2239.40709,0.00381
2237.34692,0.00378
2235.28675,0.00385
2233.22657,0.00380
2231.16640,0.00363
2229.10623,0.00359
2227.04606,0.00338
2224.98589,0.00317
2222.92571,0.00317
2220.86554,0.00297
2218.80537,0.00279
2216.74520,0.00301
2214.68503,0.00323
2212.62485,0.00327
2210.56468,0.00343
2208.50451,0.00346
2206.44434,0.00354
2204.38417,0.00381
2202.32399,0.00392
2200.26382,0.00408
2198.20365,0.00443
2196.14348,0.00485
2194.08330,0.00498
2192.02313,0.00479
2189.96296,0.00450
2187.90279,0.00424
2185.84262,0.00461
2183.78244,0.00531
2181.72227,0.00498
2179.66210,0.00316
2177.60193,0.00142
2175.54176,0.00168
2173.48158,0.00322
2171.42141,0.00461
2169.36124,0.00550
2167.30107,0.00542
2165.24089,0.00440
2163.18072,0.00335
2161.12055,0.00251
2159.06038,0.00160
2157.00021,0.00080
2154.94003,0.00035
2152.87986,0.00053
2150.81969,0.00115
2148.75952,0.00157
2146.69935,0.00180
2144.63917,0.00193
2142.57900,0.00161
2140.51883,0.00113
2138.45866,0.00108
2136.39849,0.00107
2134.33831,0.00117
2132.27814,0.00146
2130.21797,0.00143
2128.15780,0.00144
2126.09762,0.00210
2124.03745,0.00316
2121.97728,0.00359
2119.91711,0.00304
2117.85694,0.00266
2115.79676,0.00293
2113.73659,0.00310
2111.67642,0.00280
2109.61625,0.00234
2107.55608,0.00208
2105.49590,0.00223
2103.43573,0.00260
2101.37556,0.00278
2099.31539,0.00301
2097.25521,0.00341
2095.19504,0.00340
2093.13487,0.00284
2091.07470,0.00217
2089.01453,0.00223
2086.95435,0.00312
2084.89418,0.00349
2082.83401,0.00284
2080.77384,0.00240
2078.71367,0.00272
2076.65349,0.00316
2074.59332,0.00360
2072.53315,0.00381
2070.47298,0.00336
2068.41281,0.00277
2066.35263,0.00254
2064.29246,0.00248
2062.23229,0.00236
2060.17212,0.00212
2058.11194,0.00189
2056.05177,0.00178
2053.99160,0.00190
2051.93143,0.00220
2049.87126,0.00240
2047.81108,0.00264
2045.75091,0.00327
2043.69074,0.00385
2041.63057,0.00410
2039.57040,0.00416
2037.51022,0.00319
2035.45005,0.00190
2033.38988,0.00217
2031.32971,0.00269
2029.26954,0.00192
2027.20936,0.00113
2025.14919,0.00153
2023.08902,0.00233
2021.02885,0.00236
2018.96867,0.00222
2016.90850,0.00273
2014.84833,0.00326
2012.78816,0.00280
2010.72799,0.00126
2008.66781,0.00000
2006.60764,0.00014
2004.54747,0.00103
2002.48730,0.00156
2000.42713,0.00153
1998.36695,0.00126
1996.30678,0.00088
1994.24661,0.00069
1992.18644,0.00134
1990.12626,0.00263
1988.06609,0.00366
1986.00592,0.00433
1983.94575,0.00470
1981.88558,0.00510
1979.82540,0.00560
1977.76523,0.00471
1975.70506,0.00246
1973.64489,0.00080
1971.58472,0.00097
1969.52454,0.00295
1967.46437,0.00440
1965.40420,0.00358
1963.34403,0.00176
1961.28386,0.00055
1959.22368,0.00043
1957.16351,0.00101
1955.10334,0.00165
1953.04317,0.00197
1950.98299,0.00207
1948.92282,0.00196
1946.86265,0.00153
1944.80248,0.00096
1942.74231,0.00041
1940.68213,0.00013
1938.62196,0.00037
1936.56179,0.00100
1934.50162,0.00154
1932.44145,0.00162
1930.38127,0.00159
1928.32110,0.00175
1926.26093,0.00190
1924.20076,0.00192
1922.14059,0.00183
1920.08041,0.00172
1918.02024,0.00154
1915.96007,0.00136
1913.89990,0.00140
1911.83972,0.00138
1909.77955,0.00116
1907.71938,0.00113
1905.65921,0.00137
1903.59904,0.00162
1901.53886,0.00154
1899.47869,0.00113
1897.41852,0.00099
1895.35835,0.00112
1893.29818,0.00109
1891.23800,0.00101
1889.17783,0.00093
1887.11766,0.00073
1885.05749,0.00056
1882.99731,0.00056
1880.93714,0.00073
1878.87697,0.00106
1876.81680,0.00124
1874.75663,0.00112
1872.69645,0.00100
1870.63628,0.00101
1868.57611,0.00099
1866.51594,0.00088
1864.45577,0.00078
1862.39559,0.00079
1860.33542,0.00099
1858.27525,0.00127
1856.21508,0.00136
1854.15491,0.00114
1852.09473,0.00087
1850.03456,0.00093
1847.97439,0.00126
1845.91422,0.00139
1843.85404,0.00107
1841.79387,0.00079
1839.73370,0.00094
1837.67353,0.00132
1835.61336,0.00152
1833.55318,0.00136
1831.49301,0.00104
1829.43284,0.00090
1827.37267,0.00099
1825.31250,0.00094
1823.25232,0.00067
1821.19215,0.00049
1819.13198,0.00064
1817.07181,0.00112
1815.01163,0.00154
1812.95146,0.00152
1810.89129,0.00113
1808.83112,0.00087
1806.77095,0.00101
1804.71077,0.00128
1802.65060,0.00143
1800.59043,0.00130
1798.53026,0.00107
1796.47009,0.00112
1794.40991,0.00135
1792.34974,0.00129
1790.28957,0.00109
1788.22940,0.00119
1786.16923,0.00140
1784.10905,0.00145
1782.04888,0.00140
1779.98871,0.00133
1777.92854,0.00125
1775.86836,0.00118
1773.80819,0.00108
1771.74802,0.00091
1769.68785,0.00084
1767.62768,0.00102
1765.56750,0.00134
1763.50733,0.00150
1761.44716,0.00151
1759.38699,0.00169
1757.32682,0.00202
1755.26664,0.00211
1753.20647,0.00196
1751.14630,0.00173
1749.08613,0.00159
1747.02596,0.00171
1744.96578,0.00202
1742.90561,0.00232
1740.84544,0.00255
1738.78527,0.00279
1736.72509,0.00299
1734.66492,0.00284
1732.60475,0.00245
1730.54458,0.00232
1728.48441,0.00239
1726.42423,0.00247
1724.36406,0.00254
1722.30389,0.00262
1720.24372,0.00269
1718.18355,0.00272
1716.12337,0.00273
1714.06320,0.00281
1712.00303,0.00299
1709.94286,0.00327
1707.88268,0.00356
1705.82251,0.00384
1703.76234,0.00418
1701.70217,0.00455
1699.64200,0.00463
1697.58182,0.00445
1695.52165,0.00452
1693.46148,0.00503
1691.40131,0.00565
1689.34114,0.00614
1687.28096,0.00656
1685.22079,0.00707
1683.16062,0.00763
1681.10045,0.00810
1679.04028,0.00857
1676.98010,0.00908
1674.91993,0.00954
1672.85976,0.00983
1670.79959,0.01006
1668.73941,0.01049
1666.67924,0.01105
1664.61907,0.01153
1662.55890,0.01190
1660.49873,0.01213
1658.43855,0.01234
1656.37838,0.01263
1654.31821,0.01296
1652.25804,0.01317
1650.19787,0.01318
1648.13769,0.01313
1646.07752,0.01296
1644.01735,0.01275
1641.95718,0.01263
1639.89701,0.01256
1637.83683,0.01240
1635.77666,0.01216
1633.71649,0.01197
1631.65632,0.01182
1629.59614,0.01161
1627.53597,0.01133
1625.47580,0.01108
1623.41563,0.01079
1621.35546,0.01047
1619.29528,0.01023
1617.23511,0.00996
1615.17494,0.00965
1613.11477,0.00953
1611.05460,0.00954
1608.99442,0.00945
1606.93425,0.00919
1604.87408,0.00900
1602.81391,0.00896
1600.75373,0.00888
1598.69356,0.00862
1596.63339,0.00834
1594.57322,0.00818
1592.51305,0.00810
1590.45287,0.00802
1588.39270,0.00791
1586.33253,0.00777
1584.27236,0.00755
1582.21219,0.00732
1580.15201,0.00728
1578.09184,0.00744
1576.03167,0.00748
1573.97150,0.00728
1571.91133,0.00709
1569.85115,0.00695
1567.79098,0.00686
1565.73081,0.00686
1563.67064,0.00687
1561.61046,0.00689
1559.55029,0.00697
1557.49012,0.00697
1555.42995,0.00683
1553.36978,0.00669
1551.30960,0.00659
1549.24943,0.00651
1547.18926,0.00644
1545.12909,0.00645
1543.06892,0.00650
1541.00874,0.00629
1538.94857,0.00578
1536.88840,0.00559
1534.82823,0.00572
1532.76805,0.00571
1530.70788,0.00546
1528.64771,0.00515
1526.58754,0.00486
1524.52737,0.00473
1522.46719,0.00472
1520.40702,0.00466
1518.34685,0.00454
1516.28668,0.00433
1514.22651,0.00410
1512.16633,0.00392
1510.10616,0.00370
1508.04599,0.00326
1505.98582,0.00286
1503.92565,0.00296
1501.86547,0.00336
1499.80530,0.00374
1497.74513,0.00383
1495.68496,0.00352
1493.62478,0.00311
1491.56461,0.00270
1489.50444,0.00228
1487.44427,0.00213
1485.38410,0.00225
1483.32392,0.00239
1481.26375,0.00253
1479.20358,0.00270
1477.14341,0.00288
1475.08324,0.00293
1473.02306,0.00286
1470.96289,0.00286
1468.90272,0.00300
1466.84255,0.00321
1464.78238,0.00337
1462.72220,0.00343
1460.66203,0.00353
1458.60186,0.00360
1456.54169,0.00342
1454.48151,0.00321
1452.42134,0.00322
1450.36117,0.00332
1448.30100,0.00341
1446.24083,0.00351
1444.18065,0.00354
1442.12048,0.00343
1440.06031,0.00334
1438.00014,0.00338
1435.93997,0.00346
1433.87979,0.00355
1431.81962,0.00363
1429.75945,0.00362
1427.69928,0.00358
1425.63910,0.00368
1423.57893,0.00394
1421.51876,0.00415
1419.45859,0.00416
1417.39842,0.00406
1415.33824,0.00409
1413.27807,0.00423
1411.21790,0.00428
1409.15773,0.00430
1407.09756,0.00435
1405.03738,0.00432
1402.97721,0.00418
1400.91704,0.00410
1398.85687,0.00410
1396.79670,0.00405
1394.73652,0.00385
1392.67635,0.00354
1390.61618,0.00330
1388.55601,0.00320
1386.49583,0.00324
1384.43566,0.00336
1382.37549,0.00346
1380.31532,0.00343
1378.25515,0.00324
1376.19497,0.00302
1374.13480,0.00299
1372.07463,0.00307
1370.01446,0.00301
1367.95429,0.00288
1365.89411,0.00287
1363.83394,0.00290
1361.77377,0.00284
1359.71360,0.00274
1357.65343,0.00260
1355.59325,0.00243
1353.53308,0.00231
1351.47291,0.00233
1349.41274,0.00241
1347.35256,0.00241
1345.29239,0.00234
1343.23222,0.00228
1341.17205,0.00224
1339.11188,0.00219
1337.05170,0.00216
1334.99153,0.00216
1332.93136,0.00219
1330.87119,0.00219
1328.81102,0.00215
1326.75084,0.00210
1324.69067,0.00207
1322.63050,0.00206
1320.57033,0.00213
1318.51015,0.00218
1316.44998,0.00211
1314.38981,0.00203
1312.32964,0.00205
1310.26947,0.00211
1308.20929,0.00210
1306.14912,0.00204
1304.08895,0.00204
1302.02878,0.00219
1299.96861,0.00240
1297.90843,0.00250
1295.84826,0.00241
1293.78809,0.00229
1291.72792,0.00227
1289.66775,0.00230
1287.60757,0.00235
1285.54740,0.00235
1283.48723,0.00223
1281.42706,0.00209
1279.36688,0.00214
1277.30671,0.00239
1275.24654,0.00256
1273.18637,0.00252
1271.12620,0.00236
1269.06602,0.00224
1267.00585,0.00224
1264.94568,0.00233
1262.88551,0.00248
1260.82534,0.00263
1258.76516,0.00278
1256.70499,0.00292
1254.64482,0.00299
1252.58465,0.00294
1250.52447,0.00278
1248.46430,0.00251
1246.40413,0.00234
1244.34396,0.00236
1242.28379,0.00243
1240.22361,0.00239
1238.16344,0.00230
1236.10327,0.00241
1234.04310,0.00259
1231.98293,0.00253
1229.92275,0.00220
1227.86258,0.00183
1225.80241,0.00167
1223.74224,0.00163
1221.68207,0.00150
1219.62189,0.00129
1217.56172,0.00112
1215.50155,0.00104
1213.44138,0.00100
1211.38120,0.00098
1209.32103,0.00091
1207.26086,0.00065
1205.20069,0.00035
1203.14052,0.00028
1201.08034,0.00037
1199.02017,0.00029
1196.96000,0.00005
1194.89983,0.00000
1192.83966,0.00005
1190.77948,-0.00002
1188.71931,-0.00010
1186.65914,-0.00009
1184.59897,-0.00007
1182.53880,0.00014
1180.47862,0.00042
1178.41845,0.00054
1176.35828,0.00056
1174.29811,0.00055
1172.23793,0.00064
1170.17776,0.00092
1168.11759,0.00118
1166.05742,0.00121
1163.99725,0.00114
1161.93707,0.00121
1159.87690,0.00143
1157.81673,0.00171
1155.75656,0.00199
1153.69639,0.00210
1151.63621,0.00217
1149.57604,0.00246
1147.51587,0.00288
1145.45570,0.00329
1143.39552,0.00358
1141.33535,0.00371
1139.27518,0.00381
1137.21501,0.00405
1135.15484,0.00443
1133.09466,0.00482
1131.03449,0.00510
1128.97432,0.00542
1126.91415,0.00593
1124.85398,0.00640
1122.79380,0.00677
1120.73363,0.00729
1118.67346,0.00792
1116.61329,0.00848
1114.55312,0.00893
1112.49294,0.00931
1110.43277,0.00975
1108.37260,0.01024
1106.31243,0.01070
1104.25225,0.01130
1102.19208,0.01198
1100.13191,0.01240
1098.07174,0.01266
1096.01157,0.01303
1093.95139,0.01356
1091.89122,0.01414
1089.83105,0.01457
1087.77088,0.01492
1085.71071,0.01511
1083.65053,0.01511
1081.59036,0.01533
1079.53019,0.01572
1077.47002,0.01601
1075.40985,0.01632
1073.34967,0.01664
1071.28950,0.01689
1069.22933,0.01704
1067.16916,0.01702
1065.10898,0.01696
1063.04881,0.01700
1060.98864,0.01710
1058.92847,0.01706
1056.86830,0.01690
1054.80812,0.01687
1052.74795,0.01679
1050.68778,0.01654
1048.62761,0.01618
1046.56744,0.01580
1044.50726,0.01565
1042.44709,0.01565
1040.38692,0.01539
1038.32675,0.01481
1036.26657,0.01410
1034.20640,0.01342
1032.14623,0.01287
1030.08606,0.01243
1028.02589,0.01191
1025.96571,0.01132
1023.90554,0.01093
1021.84537,0.01059
1019.78520,0.01010
1017.72503,0.00970
1015.66485,0.00942
1013.60468,0.00924
1011.54451,0.00910
1009.48434,0.00889
1007.42417,0.00869
1005.36399,0.00865
1003.30382,0.00884
1001.24365,0.00921
999.18348,0.00961
997.12330,0.00994
995.06313,0.01023
993.00296,0.01062
990.94279,0.01109
988.88262,0.01141
986.82244,0.01151
984.76227,0.01153
982.70210,0.01154
980.64193,0.01148
978.58176,0.01128
976.52158,0.01112
974.46141,0.01110
972.40124,0.01082
970.34107,0.01011
968.28089,0.00955
966.22072,0.00942
964.16055,0.00933
962.10038,0.00893
960.04021,0.00828
957.98003,0.00779
955.91986,0.00744
953.85969,0.00696
951.79952,0.00645
949.73935,0.00586
947.67917,0.00518
945.61900,0.00467
943.55883,0.00442
941.49866,0.00427
939.43849,0.00394
937.37831,0.00360
935.31814,0.00349
933.25797,0.00329
931.19780,0.00278
929.13762,0.00226
927.07745,0.00213
925.01728,0.00222
922.95711,0.00224
920.89694,0.00218
918.83676,0.00209
916.77659,0.00190
914.71642,0.00170
912.65625,0.00157
910.59608,0.00142
908.53590,0.00131
906.47573,0.00137
904.41556,0.00145
902.35539,0.00138
900.29522,0.00129
898.23504,0.00125
896.17487,0.00116
894.11470,0.00109
892.05453,0.00128
889.99435,0.00165
887.93418,0.00180
885.87401,0.00177
883.81384,0.00186
881.75367,0.00217
879.69349,0.00270
877.63332,0.00320
875.57315,0.00337
873.51298,0.00344
871.45281,0.00366
869.39263,0.00399
867.33246,0.00418
865.27229,0.00407
863.21212,0.00394
861.15194,0.00405
859.09177,0.00427
857.03160,0.00446
854.97143,0.00467
852.91126,0.00486
850.85108,0.00489
848.79091,0.00484
846.73074,0.00460
844.67057,0.00398
842.61040,0.00359
840.55022,0.00381
838.49005,0.00408
836.42988,0.00411
834.36971,0.00413
832.30954,0.00427
830.24936,0.00428
828.18919,0.00411
826.12902,0.00387
824.06885,0.00361
822.00867,0.00343
819.94850,0.00310
817.88833,0.00253
815.82816,0.00249
813.76799,0.00300
811.70781,0.00325
809.64764,0.00298
807.58747,0.00242
805.52730,0.00202
803.46713,0.00191
801.40695,0.00197
799.34678,0.00210
797.28661,0.00212
795.22644,0.00201
793.16627,0.00210
791.10609,0.00262
789.04592,0.00292
786.98575,0.00245
784.92558,0.00198
782.86540,0.00226
780.80523,0.00282
778.74506,0.00305
776.68489,0.00287
774.62472,0.00252
772.56454,0.00232
770.50437,0.00214
768.44420,0.00186
766.38403,0.00189
764.32386,0.00220
762.26368,0.00216
760.20351,0.00189
758.14334,0.00216
756.08317,0.00268
754.02299,0.00267
751.96282,0.00254
749.90265,0.00272
747.84248,0.00274
745.78231,0.00257
743.72213,0.00243
741.66196,0.00212
739.60179,0.00211
737.54162,0.00257
735.48145,0.00297
733.42127,0.00305
731.36110,0.00269
729.30093,0.00232
727.24076,0.00253
725.18059,0.00310
723.12041,0.00317
721.06024,0.00320
719.00007,0.00272
716.93990,0.00234
714.87972,0.00235
712.81955,0.00249
710.75938,0.00261
708.69921,0.00301
706.63904,0.00342
704.57886,0.00311
702.51869,0.00221
700.45852,0.00169
698.39835,0.00193
696.33818,0.00224
694.27800,0.00228
692.21783,0.00238
690.15766,0.00240
688.09749,0.00215
686.03731,0.00188
683.97714,0.00191
681.91697,0.00231
679.85680,0.00243
677.79663,0.00195
675.73645,0.00163
673.67628,0.00143
671.61611,0.00040
669.55594,0.00234
667.49577,0.00691
665.43559,0.00223
663.37542,0.00186
661.31525,0.00196
659.25508,0.00169
657.19491,0.00183
655.13473,0.00232
653.07456,0.00331
651.01439,0.00432
648.95422,0.00410
646.89404,0.00297
644.83387,0.00268
642.77370,0.00230
640.71353,0.00087
638.65336,0.00000
636.59318,0.00078
634.53301,0.00190
632.47284,0.00143
630.41267,-0.00013
628.35250,-0.00089
626.29232,0.00004
624.23215,0.00127
622.17198,0.00164
620.11181,0.00190
618.05164,0.00216
615.99146,0.00102
613.93129,-0.00052
611.87112,0.00019
609.81095,0.00111
607.75077,-0.00109
605.69060,-0.00276
603.63043,-0.00127
601.57026,0.00020
599.51009,0.00000
