3996.73391,0.00023
3994.67373,0.00029
3992.61356,0.00008
3990.55339,-0.00006
3988.49322,-0.00003
3986.43305,-0.00001
3984.37287,-0.00001
3982.31270,0.00006
3980.25253,0.00007
3978.19236,0.00000
3976.13219,0.00005
3974.07201,0.00019
3972.01184,0.00034
3969.95167,0.00061
3967.89150,0.00075
3965.83133,0.00056
3963.77115,0.00049
3961.71098,0.00084
3959.65081,0.00115
3957.59064,0.00109
3955.53046,0.00083
3953.47029,0.00051
3951.41012,0.00036
3949.34995,0.00051
3947.28978,0.00064
3945.22960,0.00047
3943.16943,0.00029
3941.10926,0.00040
3939.04909,0.00054
3936.98892,0.00046
3934.92874,0.00036
3932.86857,0.00056
3930.80840,0.00083
3928.74823,0.00085
3926.68805,0.00077
3924.62788,0.00085
3922.56771,0.00095
3920.50754,0.00067
3918.44737,0.00023
3916.38719,0.00021
3914.32702,0.00059
3912.26685,0.00089
3910.20668,0.00098
3908.14651,0.00120
3906.08633,0.00147
3904.02616,0.00113
3901.96599,0.00035
3899.90582,0.00008
3897.84565,0.00052
3895.78547,0.00123
3893.72530,0.00169
3891.66513,0.00167
3889.60496,0.00138
3887.54478,0.00101
3885.48461,0.00062
3883.42444,0.00050
3881.36427,0.00070
3879.30410,0.00084
3877.24392,0.00064
3875.18375,0.00036
3873.12358,0.00046
3871.06341,0.00097
3869.00324,0.00141
3866.94306,0.00156
3864.88289,0.00166
3862.82272,0.00165
3860.76255,0.00150
3858.70237,0.00132
3856.64220,0.00121
3854.58203,0.00128
3852.52186,0.00125
3850.46169,0.00079
3848.40151,0.00038
3846.34134,0.00041
3844.28117,0.00066
3842.22100,0.00054
3840.16083,0.00004
3838.10065,0.00000
3836.04048,0.00066
3833.98031,0.00122
3831.92014,0.00115
3829.85997,0.00063
3827.79979,0.00016
3825.73962,0.00024
3823.67945,0.00096
3821.61928,0.00187
3819.55910,0.00224
3817.49893,0.00194
3815.43876,0.00128
3813.37859,0.00076
3811.31842,0.00064
3809.25824,0.00067
3807.19807,0.00067
3805.13790,0.00071
3803.07773,0.00071
3801.01756,0.00067
3798.95738,0.00073
3796.89721,0.00080
3794.83704,0.00078
3792.77687,0.00071
3790.71670,0.00061
3788.65652,0.00047
3786.59635,0.00041
3784.53618,0.00041
3782.47601,0.00040
3780.41583,0.00038
3778.35566,0.00032
3776.29549,0.00032
3774.23532,0.00058
3772.17515,0.00081
3770.11497,0.00075
3768.05480,0.00077
3765.99463,0.00110
3763.93446,0.00136
3761.87429,0.00125
3759.81411,0.00092
3757.75394,0.00074
3755.69377,0.00078
3753.63360,0.00082
3751.57342,0.00087
3749.51325,0.00108
3747.45308,0.00127
3745.39291,0.00107
3743.33274,0.00059
3741.27256,0.00032
3739.21239,0.00041
3737.15222,0.00074
3735.09205,0.00096
3733.03188,0.00098
3730.97170,0.00101
3728.91153,0.00095
3726.85136,0.00087
3724.79119,0.00106
3722.73102,0.00136
3720.67084,0.00137
3718.61067,0.00102
3716.55050,0.00058
3714.49033,0.00041
3712.43015,0.00048
3710.36998,0.00053
3708.30981,0.00057
3706.24964,0.00067
3704.18947,0.00082
3702.12929,0.00099
3700.06912,0.00122
3698.00895,0.00142
3695.94878,0.00139
3693.88861,0.00117
3691.82843,0.00090
3689.76826,0.00060
3687.70809,0.00040
3685.64792,0.00070
3683.58775,0.00123
3681.52757,0.00157
3679.46740,0.00163
3677.40723,0.00157
3675.34706,0.00162
3673.28688,0.00163
3671.22671,0.00153
3669.16654,0.00145
3667.10637,0.00146
3665.04620,0.00156
3662.98602,0.00182
3660.92585,0.00220
3658.86568,0.00260
3656.80551,0.00302
3654.74534,0.00306
3652.68516,0.00249
3650.62499,0.00186
3648.56482,0.00192
3646.50465,0.00259
3644.44447,0.00318
3642.38430,0.00347
3640.32413,0.00357
3638.26396,0.00378
3636.20379,0.00432
3634.14361,0.00485
3632.08344,0.00503
3630.02327,0.00491
3627.96310,0.00478
3625.90293,0.00487
3623.84275,0.00507
3621.78258,0.00524
3619.72241,0.00551
3617.66224,0.00589
3615.60207,0.00611
3613.54189,0.00612
3611.48172,0.00621
3609.42155,0.00639
3607.36138,0.00643
3605.30120,0.00654
3603.24103,0.00704
3601.18086,0.00770
3599.12069,0.00807
3597.06052,0.00822
3595.00034,0.00839
3592.94017,0.00860
3590.88000,0.00877
3588.81983,0.00875
3586.75966,0.00854
3584.69948,0.00852
3582.63931,0.00881
3580.57914,0.00924
3578.51897,0.00977
3576.45879,0.01021
3574.39862,0.01025
3572.33845,0.01010
3570.27828,0.01033
3568.21811,0.01101
3566.15793,0.01146
3564.09776,0.01133
3562.03759,0.01117
3559.97742,0.01123
3557.91725,0.01145
3555.85707,0.01177
3553.79690,0.01208
3551.73673,0.01229
3549.67656,0.01254
3547.61639,0.01289
3545.55621,0.01316
3543.49604,0.01317
3541.43587,0.01321
3539.37570,0.01358
3537.31552,0.01379
3535.25535,0.01352
3533.19518,0.01330
3531.13501,0.01366
3529.07484,0.01438
3527.01466,0.01485
3524.95449,0.01498
3522.89432,0.01513
3520.83415,0.01529
3518.77398,0.01540
3516.71380,0.01564
3514.65363,0.01589
3512.59346,0.01587
3510.53329,0.01573
3508.47312,0.01574
3506.41294,0.01603
3504.35277,0.01657
3502.29260,0.01717
3500.23243,0.01764
3498.17225,0.01786
3496.11208,0.01783
3494.05191,0.01778
3491.99174,0.01786
3489.93157,0.01799
3487.87139,0.01829
3485.81122,0.01861
3483.75105,0.01860
3481.69088,0.01858
3479.63071,0.01898
3477.57053,0.01937
3475.51036,0.01951
3473.45019,0.01964
3471.39002,0.01994
3469.32984,0.02030
3467.26967,0.02050
3465.20950,0.02056
3463.14933,0.02063
3461.08916,0.02072
3459.02898,0.02084
3456.96881,0.02101
3454.90864,0.02128
3452.84847,0.02169
3450.78830,0.02210
3448.72812,0.02215
3446.66795,0.02184
3444.60778,0.02153
3442.54761,0.02155
3440.48744,0.02190
3438.42726,0.02243
3436.36709,0.02291
3434.30692,0.02296
3432.24675,0.02263
3430.18657,0.02237
3428.12640,0.02245
3426.06623,0.02272
3424.00606,0.02296
3421.94589,0.02303
3419.88571,0.02279
3417.82554,0.02258
3415.76537,0.02293
3413.70520,0.02363
3411.64503,0.02382
3409.58485,0.02365
3407.52468,0.02396
3405.46451,0.02431
3403.40434,0.02415
3401.34416,0.02402
3399.28399,0.02429
3397.22382,0.02441
3395.16365,0.02417
3393.10348,0.02414
3391.04330,0.02436
3388.98313,0.02449
3386.92296,0.02479
3384.86279,0.02519
3382.80262,0.02524
3380.74244,0.02510
3378.68227,0.02505
3376.62210,0.02498
3374.56193,0.02493
3372.50176,0.02505
3370.44158,0.02523
3368.38141,0.02537
3366.32124,0.02556
3364.26107,0.02589
3362.20089,0.02623
3360.14072,0.02629
3358.08055,0.02607
3356.02038,0.02591
3353.96021,0.02605
3351.90003,0.02634
3349.83986,0.02651
3347.77969,0.02653
3345.71952,0.02644
3343.65935,0.02622
3341.59917,0.02609
3339.53900,0.02624
3337.47883,0.02648
3335.41866,0.02659
3333.35849,0.02658
3331.29831,0.02666
3329.23814,0.02682
3327.17797,0.02694
3325.11780,0.02701
3323.05762,0.02691
3320.99745,0.02660
3318.93728,0.02629
3316.87711,0.02630
3314.81694,0.02644
3312.75676,0.02637
3310.69659,0.02634
3308.63642,0.02642
3306.57625,0.02649
3304.51608,0.02661
3302.45590,0.02681
3300.39573,0.02695
3298.33556,0.02695
3296.27539,0.02695
3294.21521,0.02717
3292.15504,0.02743
3290.09487,0.02738
3288.03470,0.02714
3285.97453,0.02706
3283.91435,0.02719
3281.85418,0.02729
3279.79401,0.02740
3277.73384,0.02763
3275.67367,0.02777
3273.61349,0.02756
3271.55332,0.02713
3269.49315,0.02688
3267.43298,0.02699
3265.37281,0.02724
3263.31263,0.02751
3261.25246,0.02789
3259.19229,0.02815
3257.13212,0.02792
3255.07194,0.02751
3253.01177,0.02738
3250.95160,0.02747
3248.89143,0.02756
3246.83126,0.02751
3244.77108,0.02745
3242.71091,0.02749
3240.65074,0.02747
3238.59057,0.02739
3236.53040,0.02751
3234.47022,0.02781
3232.41005,0.02802
3230.34988,0.02793
3228.28971,0.02766
3226.22954,0.02757
3224.16936,0.02771
3222.10919,0.02774
3220.04902,0.02765
3217.98885,0.02771
3215.92867,0.02770
3213.86850,0.02750
3211.80833,0.02739
3209.74816,0.02753
3207.68799,0.02781
3205.62781,0.02791
3203.56764,0.02766
3201.50747,0.02738
3199.44730,0.02744
3197.38713,0.02766
3195.32695,0.02777
3193.26678,0.02778
3191.20661,0.02785
3189.14644,0.02805
3187.08626,0.02810
3185.02609,0.02776
3182.96592,0.02735
3180.90575,0.02727
3178.84558,0.02737
3176.78540,0.02744
3174.72523,0.02748
3172.66506,0.02740
3170.60489,0.02722
3168.54472,0.02716
3166.48454,0.02704
3164.42437,0.02680
3162.36420,0.02684
3160.30403,0.02720
3158.24386,0.02754
3156.18368,0.02768
3154.12351,0.02755
3152.06334,0.02735
3150.00317,0.02721
3147.94299,0.02705
3145.88282,0.02690
3143.82265,0.02681
3141.76248,0.02679
3139.70231,0.02679
3137.64213,0.02658
3135.58196,0.02620
3133.52179,0.02600
3131.46162,0.02593
3129.40145,0.02578
3127.34127,0.02578
3125.28110,0.02603
3123.22093,0.02623
3121.16076,0.02606
3119.10058,0.02570
3117.04041,0.02544
3114.98024,0.02519
3112.92007,0.02494
3110.85990,0.02486
3108.79972,0.02485
3106.73955,0.02476
3104.67938,0.02481
3102.61921,0.02494
3100.55904,0.02481
3098.49886,0.02455
3096.43869,0.02446
3094.37852,0.02455
3092.31835,0.02467
3090.25818,0.02465
3088.19800,0.02460
3086.13783,0.02463
3084.07766,0.02468
3082.01749,0.02470
3079.95731,0.02462
3077.89714,0.02443
3075.83697,0.02409
3073.77680,0.02375
3071.71663,0.02367
3069.65645,0.02361
3067.59628,0.02332
3065.53611,0.02319
3063.47594,0.02324
3061.41577,0.02307
3059.35559,0.02282
3057.29542,0.02282
3055.23525,0.02289
3053.17508,0.02277
3051.11491,0.02259
3049.05473,0.02250
3046.99456,0.02241
3044.93439,0.02227
3042.87422,0.02210
3040.81404,0.02194
3038.75387,0.02192
3036.69370,0.02194
3034.63353,0.02179
3032.57336,0.02165
3030.51318,0.02170
3028.45301,0.02173
3026.39284,0.02164
3024.33267,0.02144
3022.27250,0.02108
3020.21232,0.02069
3018.15215,0.02050
3016.09198,0.02052
3014.03181,0.02057
3011.97163,0.02055
3009.91146,0.02044
3007.85129,0.02016
3005.79112,0.01989
3003.73095,0.01987
3001.67077,0.01999
2999.61060,0.02009
2997.55043,0.02014
2995.49026,0.02013
2993.43009,0.01996
2991.36991,0.01957
2989.30974,0.01926
2987.24957,0.01928
2985.18940,0.01937
2983.12923,0.01929
2981.06905,0.01917
2979.00888,0.01900
2976.94871,0.01877
2974.88854,0.01869
2972.82836,0.01873
2970.76819,0.01881
2968.70802,0.01890
2966.64785,0.01877
2964.58768,0.01857
2962.52750,0.01853
2960.46733,0.01855
2958.40716,0.01854
2956.34699,0.01842
2954.28682,0.01826
2952.22664,0.01842
2950.16647,0.01870
2948.10630,0.01864
2946.04613,0.01832
2943.98596,0.01797
2941.92578,0.01771
2939.86561,0.01765
2937.80544,0.01780
2935.74527,0.01792
2933.68509,0.01779
2931.62492,0.01757
2929.56475,0.01754
2927.50458,0.01766
2925.44441,0.01764
2923.38423,0.01741
2921.32406,0.01718
2919.26389,0.01701
2917.20372,0.01679
2915.14355,0.01653
2913.08337,0.01645
2911.02320,0.01668
2908.96303,0.01688
2906.90286,0.01675
2904.84268,0.01659
2902.78251,0.01651
2900.72234,0.01619
2898.66217,0.01574
2896.60200,0.01558
2894.54182,0.01564
2892.48165,0.01564
2890.42148,0.01566
2888.36131,0.01570
2886.30114,0.01555
2884.24096,0.01522
2882.18079,0.01506
2880.12062,0.01518
2878.06045,0.01539
2876.00028,0.01544
2873.94010,0.01515
2871.87993,0.01479
2869.81976,0.01478
2867.75959,0.01504
2865.69941,0.01512
2863.63924,0.01495
2861.57907,0.01477
2859.51890,0.01462
2857.45873,0.01434
2855.39855,0.01406
2853.33838,0.01401
2851.27821,0.01407
2849.21804,0.01404
2847.15787,0.01389
2845.09769,0.01374
2843.03752,0.01363
2840.97735,0.01344
2838.91718,0.01326
2836.85700,0.01315
2834.79683,0.01312
2832.73666,0.01318
2830.67649,0.01321
2828.61632,0.01317
2826.55614,0.01313
2824.49597,0.01303
2822.43580,0.01295
2820.37563,0.01287
2818.31546,0.01271
2816.25528,0.01269
2814.19511,0.01264
2812.13494,0.01232
2810.07477,0.01203
2808.01460,0.01199
2805.95442,0.01198
2803.89425,0.01184
2801.83408,0.01161
2799.77391,0.01152
2797.71373,0.01168
2795.65356,0.01182
2793.59339,0.01178
2791.53322,0.01166
2789.47305,0.01155
2787.41287,0.01145
2785.35270,0.01130
2783.29253,0.01107
2781.23236,0.01100
2779.17219,0.01117
2777.11201,0.01130
2775.05184,0.01123
2772.99167,0.01105
2770.93150,0.01091
2768.87133,0.01090
2766.81115,0.01095
2764.75098,0.01085
2762.69081,0.01069
2760.63064,0.01065
2758.57046,0.01061
2756.51029,0.01052
2754.45012,0.01043
2752.38995,0.01020
2750.32978,0.00993
2748.26960,0.00986
2746.20943,0.00993
2744.14926,0.00997
2742.08909,0.00997
2740.02892,0.01007
2737.96874,0.01023
2735.90857,0.01015
2733.84840,0.00984
2731.78823,0.00960
2729.72805,0.00964
2727.66788,0.00985
2725.60771,0.00990
2723.54754,0.00974
2721.48737,0.00954
2719.42719,0.00944
2717.36702,0.00952
2715.30685,0.00954
2713.24668,0.00930
2711.18651,0.00900
2709.12633,0.00889
2707.06616,0.00888
2705.00599,0.00888
2702.94582,0.00875
2700.88565,0.00860
2698.82547,0.00865
2696.76530,0.00876
2694.70513,0.00874
2692.64496,0.00864
2690.58478,0.00846
2688.52461,0.00826
2686.46444,0.00820
2684.40427,0.00825
2682.34410,0.00832
2680.28392,0.00836
2678.22375,0.00822
2676.16358,0.00789
2674.10341,0.00765
2672.04324,0.00760
2669.98306,0.00755
2667.92289,0.00741
2665.86272,0.00723
2663.80255,0.00720
2661.74238,0.00752
2659.68220,0.00786
2657.62203,0.00789
2655.56186,0.00775
2653.50169,0.00768
2651.44151,0.00772
2649.38134,0.00763
2647.32117,0.00734
2645.26100,0.00715
2643.20083,0.00706
2641.14065,0.00705
2639.08048,0.00723
2637.02031,0.00731
2634.96014,0.00721
2632.89997,0.00718
2630.83979,0.00720
2628.77962,0.00709
2626.71945,0.00689
2624.65928,0.00673
2622.59910,0.00661
2620.53893,0.00658
2618.47876,0.00663
2616.41859,0.00660
2614.35842,0.00645
2612.29824,0.00633
2610.23807,0.00634
2608.17790,0.00638
2606.11773,0.00627
2604.05756,0.00601
2601.99738,0.00591
2599.93721,0.00602
2597.87704,0.00608
2595.81687,0.00605
2593.75670,0.00593
2591.69652,0.00580
2589.63635,0.00590
2587.57618,0.00602
2585.51601,0.00580
2583.45583,0.00556
2581.39566,0.00548
2579.33549,0.00547
2577.27532,0.00559
2575.21515,0.00567
2573.15497,0.00550
2571.09480,0.00526
2569.03463,0.00524
2566.97446,0.00540
2564.91429,0.00548
2562.85411,0.00530
2560.79394,0.00499
2558.73377,0.00506
2556.67360,0.00558
2554.61342,0.00593
2552.55325,0.00581
2550.49308,0.00557
2548.43291,0.00542
2546.37274,0.00537
2544.31256,0.00536
2542.25239,0.00538
2540.19222,0.00542
2538.13205,0.00541
2536.07188,0.00538
2534.01170,0.00545
2531.95153,0.00551
2529.89136,0.00558
2527.83119,0.00573
2525.77102,0.00588
2523.71084,0.00601
2521.65067,0.00597
2519.59050,0.00588
2517.53033,0.00611
2515.47015,0.00628
2513.40998,0.00578
2511.34981,0.00529
2509.28964,0.00540
2507.22947,0.00547
2505.16929,0.00552
2503.10912,0.00577
2501.04895,0.00575
2498.98878,0.00553
2496.92861,0.00541
2494.86843,0.00547
2492.80826,0.00566
2490.74809,0.00579
2488.68792,0.00571
2486.62775,0.00573
2484.56757,0.00599
2482.50740,0.00609
2480.44723,0.00587
2478.38706,0.00545
2476.32688,0.00520
2474.26671,0.00539
2472.20654,0.00574
2470.14637,0.00613
2468.08620,0.00640
2466.02602,0.00629
2463.96585,0.00615
2461.90568,0.00619
2459.84551,0.00624
2457.78534,0.00626
2455.72516,0.00643
2453.66499,0.00660
2451.60482,0.00637
2449.54465,0.00608
2447.48447,0.00610
2445.42430,0.00631
2443.36413,0.00661
2441.30396,0.00675
2439.24379,0.00644
2437.18361,0.00584
2435.12344,0.00554
2433.06327,0.00564
2431.00310,0.00555
2428.94293,0.00543
2426.88275,0.00557
2424.82258,0.00563
2422.76241,0.00572
2420.70224,0.00581
2418.64207,0.00575
2416.58189,0.00584
2414.52172,0.00604
2412.46155,0.00598
2410.40138,0.00583
2408.34120,0.00594
2406.28103,0.00614
2404.22086,0.00616
2402.16069,0.00622
2400.10052,0.00634
2398.04034,0.00600
2395.98017,0.00585
2393.92000,0.00602
2391.85983,0.00612
2389.79966,0.00600
2387.73948,0.00577
2385.67931,0.00555
2383.61914,0.00541
2381.55897,0.00545
2379.49880,0.00572
2377.43862,0.00613
2375.37845,0.00645
2373.31828,0.00635
2371.25811,0.00609
2369.19793,0.00613
2367.13776,0.00638
2365.07759,0.00664
2363.01742,0.00710
2360.95725,0.00690
2358.89707,0.00648
2356.83690,0.00625
2354.77673,0.00680
2352.71656,0.00716
2350.65639,0.00646
2348.59621,0.00608
2346.53604,0.00708
2344.47587,0.00688
2342.41570,0.00624
2340.35552,0.00601
2338.29535,0.00615
2336.23518,0.00626
2334.17501,0.00592
2332.11484,0.00564
2330.05466,0.00570
2327.99449,0.00608
2325.93432,0.00635
2323.87415,0.00673
2321.81398,0.00656
2319.75380,0.00605
2317.69363,0.00547
2315.63346,0.00559
2313.57329,0.00597
2311.51312,0.00586
2309.45294,0.00553
2307.39277,0.00553
2305.33260,0.00569
2303.27243,0.00577
2301.21225,0.00586
2299.15208,0.00582
2297.09191,0.00566
2295.03174,0.00567
2292.97157,0.00587
2290.91139,0.00592
2288.85122,0.00575
2286.79105,0.00564
2284.73088,0.00578
2282.67071,0.00606
2280.61053,0.00596
2278.55036,0.00523
2276.49019,0.00472
2274.43002,0.00523
2272.36984,0.00611
2270.30967,0.00630
2268.24950,0.00600
2266.18933,0.00575
2264.12916,0.00537
2262.06898,0.00482
2260.00881,0.00433
2257.94864,0.00412
2255.88847,0.00444
2253.82830,0.00505
2251.76812,0.00516
2249.70795,0.00441
2247.64778,0.00381
2245.58761,0.00419
2243.52744,0.00534
2241.46726,0.00617
2239.40709,0.00578
2237.34692,0.00474
2235.28675,0.00384
2233.22657,0.00346
2231.16640,0.00386
2229.10623,0.00453
2227.04606,0.00452
2224.98589,0.00400
2222.92571,0.00379
2220.86554,0.00370
2218.80537,0.00335
2216.74520,0.00331
2214.68503,0.00375
2212.62485,0.00412
2210.56468,0.00442
2208.50451,0.00451
2206.44434,0.00408
2204.38417,0.00375
2202.32399,0.00418
2200.26382,0.00494
2198.20365,0.00500
2196.14348,0.00482
2194.08330,0.00533
2192.02313,0.00584
2189.96296,0.00576
2187.90279,0.00524
2185.84262,0.00463
2183.78244,0.00407
2181.72227,0.00339
2179.66210,0.00257
2177.60193,0.00239
2175.54176,0.00300
2173.48158,0.00314
2171.42141,0.00334
2169.36124,0.00444
2167.30107,0.00499
2165.24089,0.00441
2163.18072,0.00344
2161.12055,0.00220
2159.06038,0.00192
2157.00021,0.00305
2154.94003,0.00351
2152.87986,0.00268
2150.81969,0.00177
2148.75952,0.00192
2146.69935,0.00280
2144.63917,0.00302
2142.57900,0.00260
2140.51883,0.00243
2138.45866,0.00205
2136.39849,0.00162
2134.33831,0.00216
2132.27814,0.00285
2130.21797,0.00259
2128.15780,0.00241
2126.09762,0.00289
2124.03745,0.00347
2121.97728,0.00374
2119.91711,0.00332
2117.85694,0.00283
2115.79676,0.00288
2113.73659,0.00320
2111.67642,0.00336
2109.61625,0.00313
2107.55608,0.00277
2105.49590,0.00270
2103.43573,0.00316
2101.37556,0.00362
2099.31539,0.00362
2097.25521,0.00375
2095.19504,0.00408
2093.13487,0.00380
2091.07470,0.00296
2089.01453,0.00255
2086.95435,0.00280
2084.89418,0.00315
2082.83401,0.00310
2080.77384,0.00283
2078.71367,0.00305
2076.65349,0.00345
2074.59332,0.00344
2072.53315,0.00336
2070.47298,0.00329
2068.41281,0.00293
2066.35263,0.00235
2064.29246,0.00230
2062.23229,0.00299
2060.17212,0.00319
2058.11194,0.00226
2056.05177,0.00159
2053.99160,0.00224
2051.93143,0.00262
2049.87126,0.00183
2047.81108,0.00132
2045.75091,0.00187
2043.69074,0.00274
2041.63057,0.00377
2039.57040,0.00430
2037.51022,0.00285
2035.45005,0.00107
2033.38988,0.00146
2031.32971,0.00246
2029.26954,0.00179
2027.20936,0.00096
2025.14919,0.00154
2023.08902,0.00191
2021.02885,0.00091
2018.96867,0.00020
2016.90850,0.00144
2014.84833,0.00329
2012.78816,0.00370
2010.72799,0.00265
2008.66781,0.00118
2006.60764,0.00023
2004.54747,0.00008
2002.48730,0.00022
2000.42713,0.00010
1998.36695,0.00000
1996.30678,0.00016
1994.24661,0.00084
1992.18644,0.00217
1990.12626,0.00284
1988.06609,0.00223
1986.00592,0.00211
1983.94575,0.00277
1981.88558,0.00303
1979.82540,0.00346
1977.76523,0.00389
1975.70506,0.00278
1973.64489,0.00138
1971.58472,0.00154
1969.52454,0.00248
1967.46437,0.00280
1965.40420,0.00226
1963.34403,0.00155
1961.28386,0.00130
1959.22368,0.00150
1957.16351,0.00202
1955.10334,0.00276
1953.04317,0.00333
1950.98299,0.00350
1948.92282,0.00308
1946.86265,0.00195
1944.80248,0.00085
1942.74231,0.00047
1940.68213,0.00056
1938.62196,0.00084
1936.56179,0.00134
1934.50162,0.00185
1932.44145,0.00203
1930.38127,0.00207
1928.32110,0.00224
1926.26093,0.00226
1924.20076,0.00205
1922.14059,0.00204
1920.08041,0.00220
1918.02024,0.00204
1915.96007,0.00183
1913.89990,0.00213
1911.83972,0.00254
1909.77955,0.00260
1907.71938,0.00240
1905.65921,0.00216
1903.59904,0.00214
1901.53886,0.00233
1899.47869,0.00228
1897.41852,0.00213
1895.35835,0.00212
1893.29818,0.00204
1891.23800,0.00197
1889.17783,0.00190
1887.11766,0.00159
1885.05749,0.00114
1882.99731,0.00076
1880.93714,0.00065
1878.87697,0.00098
1876.81680,0.00149
1874.75663,0.00175
1872.69645,0.00178
1870.63628,0.00177
1868.57611,0.00171
1866.51594,0.00156
1864.45577,0.00142
1862.39559,0.00140
1860.33542,0.00149
1858.27525,0.00155
1856.21508,0.00153
1854.15491,0.00149
1852.09473,0.00139
1850.03456,0.00128
1847.97439,0.00133
1845.91422,0.00155
1843.85404,0.00172
1841.79387,0.00181
1839.73370,0.00195
1837.67353,0.00204
1835.61336,0.00187
1833.55318,0.00143
1831.49301,0.00107
1829.43284,0.00103
1827.37267,0.00123
1825.31250,0.00134
1823.25232,0.00129
1821.19215,0.00125
1819.13198,0.00139
1817.07181,0.00171
1815.01163,0.00198
1812.95146,0.00195
1810.89129,0.00174
1808.83112,0.00164
1806.77095,0.00166
1804.71077,0.00158
1802.65060,0.00141
1800.59043,0.00134
1798.53026,0.00153
1796.47009,0.00196
1794.40991,0.00231
1792.34974,0.00210
1790.28957,0.00171
1788.22940,0.00176
1786.16923,0.00211
1784.10905,0.00229
1782.04888,0.00215
1779.98871,0.00187
1777.92854,0.00170
1775.86836,0.00173
1773.80819,0.00189
1771.74802,0.00204
1769.68785,0.00212
1767.62768,0.00220
1765.56750,0.00228
1763.50733,0.00219
1761.44716,0.00197
1759.38699,0.00189
1757.32682,0.00197
1755.26664,0.00205
1753.20647,0.00205
1751.14630,0.00201
1749.08613,0.00212
1747.02596,0.00243
1744.96578,0.00274
1742.90561,0.00294
1740.84544,0.00310
1738.78527,0.00332
1736.72509,0.00349
1734.66492,0.00337
1732.60475,0.00313
1730.54458,0.00322
1728.48441,0.00341
1726.42423,0.00351
1724.36406,0.00357
1722.30389,0.00365
1720.24372,0.00377
1718.18355,0.00394
1716.12337,0.00419
1714.06320,0.00435
1712.00303,0.00446
1709.94286,0.00464
1707.88268,0.00484
1705.82251,0.00496
1703.76234,0.00506
1701.70217,0.00524
1699.64200,0.00529
1697.58182,0.00516
1695.52165,0.00534
1693.46148,0.00594
1691.40131,0.00650
1689.34114,0.00677
1687.28096,0.00688
1685.22079,0.00709
1683.16062,0.00751
1681.10045,0.00797
1679.04028,0.00844
1676.98010,0.00888
1674.91993,0.00917
1672.85976,0.00932
1670.79959,0.00948
1668.73941,0.00983
1666.67924,0.01036
1664.61907,0.01080
1662.55890,0.01100
1660.49873,0.01106
1658.43855,0.01125
1656.37838,0.01162
1654.31821,0.01181
1652.25804,0.01163
1650.19787,0.01166
1648.13769,0.01177
1646.07752,0.01157
1644.01735,0.01144
1641.95718,0.01150
1639.89701,0.01146
1637.83683,0.01111
1635.77666,0.01059
1633.71649,0.01041
1631.65632,0.01062
1629.59614,0.01072
1627.53597,0.01058
1625.47580,0.01036
1623.41563,0.01007
1621.35546,0.00978
1619.29528,0.00965
1617.23511,0.00949
1615.17494,0.00926
1613.11477,0.00924
1611.05460,0.00934
1608.99442,0.00929
1606.93425,0.00911
1604.87408,0.00900
1602.81391,0.00901
1600.75373,0.00890
1598.69356,0.00855
1596.63339,0.00817
1594.57322,0.00802
1592.51305,0.00807
1590.45287,0.00801
1588.39270,0.00778
1586.33253,0.00758
1584.27236,0.00748
1582.21219,0.00735
1580.15201,0.00720
1578.09184,0.00708
1576.03167,0.00692
1573.97150,0.00683
1571.91133,0.00683
1569.85115,0.00671
1567.79098,0.00649
1565.73081,0.00642
1563.67064,0.00642
1561.61046,0.00634
1559.55029,0.00607
1557.49012,0.00568
1555.42995,0.00560
1553.36978,0.00573
1551.30960,0.00578
1549.24943,0.00570
1547.18926,0.00570
1545.12909,0.00586
1543.06892,0.00579
1541.00874,0.00507
1538.94857,0.00430
1536.88840,0.00441
1534.82823,0.00483
1532.76805,0.00484
1530.70788,0.00460
1528.64771,0.00445
1526.58754,0.00434
1524.52737,0.00425
1522.46719,0.00422
1520.40702,0.00426
1518.34685,0.00438
1516.28668,0.00440
1514.22651,0.00421
1512.16633,0.00406
1510.10616,0.00404
1508.04599,0.00370
1505.98582,0.00301
1503.92565,0.00280
1501.86547,0.00296
1499.80530,0.00315
1497.74513,0.00329
1495.68496,0.00326
1493.62478,0.00315
1491.56461,0.00302
1489.50444,0.00274
1487.44427,0.00242
1485.38410,0.00227
1483.32392,0.00220
1481.26375,0.00222
1479.20358,0.00236
1477.14341,0.00262
1475.08324,0.00280
1473.02306,0.00275
1470.96289,0.00266
1468.90272,0.00275
1466.84255,0.00289
1464.78238,0.00297
1462.72220,0.00299
1460.66203,0.00297
1458.60186,0.00278
1456.54169,0.00251
1454.48151,0.00250
1452.42134,0.00269
1450.36117,0.00284
1448.30100,0.00286
1446.24083,0.00285
1444.18065,0.00285
1442.12048,0.00281
1440.06031,0.00275
1438.00014,0.00274
1435.93997,0.00276
1433.87979,0.00281
1431.81962,0.00289
1429.75945,0.00291
1427.69928,0.00292
1425.63910,0.00300
1423.57893,0.00305
1421.51876,0.00299
1419.45859,0.00290
1417.39842,0.00292
1415.33824,0.00309
1413.27807,0.00326
1411.21790,0.00333
1409.15773,0.00334
1407.09756,0.00332
1405.03738,0.00324
1402.97721,0.00317
1400.91704,0.00313
1398.85687,0.00301
1396.79670,0.00277
1394.73652,0.00261
1392.67635,0.00257
1390.61618,0.00260
1388.55601,0.00255
1386.49583,0.00239
1384.43566,0.00224
1382.37549,0.00225
1380.31532,0.00242
1378.25515,0.00258
1376.19497,0.00255
1374.13480,0.00239
1372.07463,0.00224
1370.01446,0.00219
1367.95429,0.00220
1365.89411,0.00223
1363.83394,0.00222
1361.77377,0.00211
1359.71360,0.00202
1357.65343,0.00202
1355.59325,0.00206
1353.53308,0.00205
1351.47291,0.00200
1349.41274,0.00193
1347.35256,0.00184
1345.29239,0.00177
1343.23222,0.00176
1341.17205,0.00175
1339.11188,0.00170
1337.05170,0.00158
1334.99153,0.00152
1332.93136,0.00161
1330.87119,0.00172
1328.81102,0.00173
1326.75084,0.00166
1324.69067,0.00153
1322.63050,0.00142
1320.57033,0.00141
1318.51015,0.00148
1316.44998,0.00154
1314.38981,0.00162
1312.32964,0.00168
1310.26947,0.00170
1308.20929,0.00176
1306.14912,0.00180
1304.08895,0.00180
1302.02878,0.00184
1299.96861,0.00185
1297.90843,0.00179
1295.84826,0.00175
1293.78809,0.00174
1291.72792,0.00176
1289.66775,0.00182
1287.60757,0.00191
1285.54740,0.00198
1283.48723,0.00193
1281.42706,0.00184
1279.36688,0.00191
1277.30671,0.00213
1275.24654,0.00230
1273.18637,0.00232
1271.12620,0.00219
1269.06602,0.00202
1267.00585,0.00205
1264.94568,0.00223
1262.88551,0.00237
1260.82534,0.00248
1258.76516,0.00262
1256.70499,0.00272
1254.64482,0.00266
1252.58465,0.00248
1250.52447,0.00234
1248.46430,0.00224
1246.40413,0.00212
1244.34396,0.00203
1242.28379,0.00207
1240.22361,0.00219
1238.16344,0.00220
1236.10327,0.00217
1234.04310,0.00212
1231.98293,0.00198
1229.92275,0.00181
1227.86258,0.00165
1225.80241,0.00161
1223.74224,0.00168
1221.68207,0.00159
1219.62189,0.00134
1217.56172,0.00120
1215.50155,0.00118
1213.44138,0.00101
1211.38120,0.00072
1209.32103,0.00049
1207.26086,0.00035
1205.20069,0.00027
1203.14052,0.00027
1201.08034,0.00022
1199.02017,0.00008
1196.96000,0.00000
1194.89983,0.00013
1192.83966,0.00033
1190.77948,0.00021
1188.71931,-0.00009
1186.65914,-0.00016
1184.59897,0.00007
1182.53880,0.00046
1180.47862,0.00071
1178.41845,0.00074
1176.35828,0.00077
1174.29811,0.00091
1172.23793,0.00120
1170.17776,0.00151
1168.11759,0.00161
1166.05742,0.00166
1163.99725,0.00183
1161.93707,0.00199
1159.87690,0.00216
1157.81673,0.00253
1155.75656,0.00299
1153.69639,0.00332
1151.63621,0.00357
1149.57604,0.00395
1147.51587,0.00449
1145.45570,0.00505
1143.39552,0.00549
1141.33535,0.00581
1139.27518,0.00644
1137.21501,0.00738
1135.15484,0.00818
1133.09466,0.00889
1131.03449,0.00957
1128.97432,0.01018
1126.91415,0.01099
1124.85398,0.01197
1122.79380,0.01284
1120.73363,0.01366
1118.67346,0.01464
1116.61329,0.01578
1114.55312,0.01683
1112.49294,0.01755
1110.43277,0.01820
1108.37260,0.01909
1106.31243,0.02016
1104.25225,0.02123
1102.19208,0.02209
1100.13191,0.02264
1098.07174,0.02315
1096.01157,0.02394
1093.95139,0.02483
1091.89122,0.02544
1089.83105,0.02591
1087.77088,0.02646
1085.71071,0.02690
1083.65053,0.02734
1081.59036,0.02802
1079.53019,0.02868
1077.47002,0.02904
1075.40985,0.02921
1073.34967,0.02946
1071.28950,0.02975
1069.22933,0.02990
1067.16916,0.02992
1065.10898,0.02985
1063.04881,0.02969
1060.98864,0.02943
1058.92847,0.02900
1056.86830,0.02843
1054.80812,0.02789
1052.74795,0.02721
1050.68778,0.02609
1048.62761,0.02463
1046.56744,0.02325
1044.50726,0.02213
1042.44709,0.02114
1040.38692,0.02011
1038.32675,0.01910
1036.26657,0.01811
1034.20640,0.01700
1032.14623,0.01591
1030.08606,0.01508
1028.02589,0.01438
1025.96571,0.01354
1023.90554,0.01271
1021.84537,0.01218
1019.78520,0.01182
1017.72503,0.01128
1015.66485,0.01067
1013.60468,0.01049
1011.54451,0.01068
1009.48434,0.01089
1007.42417,0.01111
1005.36399,0.01139
1003.30382,0.01193
1001.24365,0.01280
999.18348,0.01383
997.12330,0.01474
995.06313,0.01532
993.00296,0.01583
990.94279,0.01643
988.88262,0.01698
986.82244,0.01757
984.76227,0.01819
982.70210,0.01857
980.64193,0.01862
978.58176,0.01835
976.52158,0.01794
974.46141,0.01761
972.40124,0.01713
970.34107,0.01622
968.28089,0.01533
966.22072,0.01478
964.16055,0.01414
962.10038,0.01310
960.04021,0.01194
957.98003,0.01092
955.91986,0.00996
953.85969,0.00915
951.79952,0.00872
949.73935,0.00830
947.67917,0.00750
945.61900,0.00681
943.55883,0.00647
941.49866,0.00593
939.43849,0.00511
937.37831,0.00449
935.31814,0.00432
933.25797,0.00430
931.19780,0.00401
929.13762,0.00360
927.07745,0.00345
925.01728,0.00344
922.95711,0.00309
920.89694,0.00247
918.83676,0.00212
916.77659,0.00216
914.71642,0.00228
912.65625,0.00222
910.59608,0.00202
908.53590,0.00182
906.47573,0.00173
904.41556,0.00175
902.35539,0.00178
900.29522,0.00177
898.23504,0.00195
896.17487,0.00235
894.11470,0.00263
892.05453,0.00287
889.99435,0.00328
887.93418,0.00368
885.87401,0.00376
883.81384,0.00382
881.75367,0.00432
879.69349,0.00502
877.63332,0.00556
875.57315,0.00591
873.51298,0.00599
871.45281,0.00610
869.39263,0.00652
867.33246,0.00685
865.27229,0.00696
863.21212,0.00697
861.15194,0.00686
859.09177,0.00701
857.03160,0.00760
854.97143,0.00822
852.91126,0.00847
850.85108,0.00825
848.79091,0.00772
846.73074,0.00712
844.67057,0.00677
842.61040,0.00680
840.55022,0.00658
838.49005,0.00607
836.42988,0.00589
834.36971,0.00583
832.30954,0.00549
830.24936,0.00493
828.18919,0.00431
826.12902,0.00420
824.06885,0.00448
822.00867,0.00433
819.94850,0.00374
817.88833,0.00303
815.82816,0.00265
813.76799,0.00281
811.70781,0.00299
809.64764,0.00283
807.58747,0.00242
805.52730,0.00203
803.46713,0.00170
801.40695,0.00155
799.34678,0.00185
797.28661,0.00204
795.22644,0.00173
793.16627,0.00142
791.10609,0.00164
789.04592,0.00189
786.98575,0.00144
784.92558,0.00077
782.86540,0.00062
780.80523,0.00102
778.74506,0.00173
776.68489,0.00202
774.62472,0.00191
772.56454,0.00209
770.50437,0.00220
768.44420,0.00187
766.38403,0.00157
764.32386,0.00152
762.26368,0.00134
760.20351,0.00087
758.14334,0.00067
756.08317,0.00099
754.02299,0.00130
751.96282,0.00143
749.90265,0.00150
747.84248,0.00121
745.78231,0.00085
743.72213,0.00097
741.66196,0.00100
739.60179,0.00072
737.54162,0.00055
735.48145,0.00079
733.42127,0.00121
731.36110,0.00118
729.30093,0.00087
727.24076,0.00101
725.18059,0.00168
723.12041,0.00220
721.06024,0.00198
719.00007,0.00112
716.93990,0.00095
714.87972,0.00165
712.81955,0.00199
710.75938,0.00152
708.69921,0.00105
706.63904,0.00098
704.57886,0.00088
702.51869,0.00055
700.45852,0.00030
698.39835,0.00031
696.33818,0.00055
694.27800,0.00108
692.21783,0.00182
690.15766,0.00231
688.09749,0.00199
686.03731,0.00101
683.97714,0.00078
681.91697,0.00203
679.85680,0.00327
677.79663,0.00326
675.73645,0.00253
673.67628,0.00161
671.61611,0.00049
669.55594,0.00144
667.49577,0.00383
665.43559,0.00207
663.37542,0.00262
661.31525,0.00304
659.25508,0.00307
657.19491,0.00337
655.13473,0.00354
653.07456,0.00335
651.01439,0.00318
648.95422,0.00308
646.89404,0.00297
644.83387,0.00318
642.77370,0.00333
640.71353,0.00333
638.65336,0.00384
636.59318,0.00458
634.53301,0.00439
632.47284,0.00339
630.41267,0.00307
628.35250,0.00397
626.29232,0.00406
624.23215,0.00176
622.17198,0.00000
620.11181,0.00099
618.05164,0.00414
615.99146,0.00589
613.93129,0.00430
611.87112,0.00275
609.81095,0.00257
607.75077,0.00150
605.69060,0.00031
603.63043,0.00057
601.57026,0.00075
599.51009,0.00000
