3996.73391,0.00053
3994.67373,0.00041
3992.61356,0.00030
3990.55339,0.00017
3988.49322,0.00004
3986.43305,0.00000
3984.37287,0.00016
3982.31270,0.00034
3980.25253,0.00034
3978.19236,0.00037
3976.13219,0.00051
3974.07201,0.00052
3972.01184,0.00041
3969.95167,0.00045
3967.89150,0.00062
3965.83133,0.00067
3963.77115,0.00061
3961.71098,0.00062
3959.65081,0.00085
3957.59064,0.00110
3955.53046,0.00120
3953.47029,0.00125
3951.41012,0.00117
3949.34995,0.00085
3947.28978,0.00054
3945.22960,0.00054
3943.16943,0.00079
3941.10926,0.00113
3939.04909,0.00125
3936.98892,0.00096
3934.92874,0.00048
3932.86857,0.00015
3930.80840,0.00010
3928.74823,0.00028
3926.68805,0.00047
3924.62788,0.00059
3922.56771,0.00076
3920.50754,0.00074
3918.44737,0.00032
3916.38719,0.00000
3914.32702,0.00020
3912.26685,0.00056
3910.20668,0.00072
3908.14651,0.00073
3906.08633,0.00073
3904.02616,0.00059
3901.96599,0.00033
3899.90582,0.00029
3897.84565,0.00055
3895.78547,0.00086
3893.72530,0.00102
3891.66513,0.00089
3889.60496,0.00069
3887.54478,0.00071
3885.48461,0.00080
3883.42444,0.00072
3881.36427,0.00060
3879.30410,0.00067
3877.24392,0.00080
3875.18375,0.00074
3873.12358,0.00055
3871.06341,0.00045
3869.00324,0.00059
3866.94306,0.00084
3864.88289,0.00086
3862.82272,0.00069
3860.76255,0.00068
3858.70237,0.00084
3856.64220,0.00090
3854.58203,0.00082
3852.52186,0.00077
3850.46169,0.00085
3848.40151,0.00085
3846.34134,0.00091
3844.28117,0.00121
3842.22100,0.00154
3840.16083,0.00170
3838.10065,0.00175
3836.04048,0.00176
3833.98031,0.00173
3831.92014,0.00168
3829.85997,0.00154
3827.79979,0.00138
3825.73962,0.00134
3823.67945,0.00133
3821.61928,0.00108
3819.55910,0.00069
3817.49893,0.00076
3815.43876,0.00123
3813.37859,0.00161
3811.31842,0.00167
3809.25824,0.00145
3807.19807,0.00109
3805.13790,0.00083
3803.07773,0.00074
3801.01756,0.00081
3798.95738,0.00097
3796.89721,0.00098
3794.83704,0.00099
3792.77687,0.00116
3790.71670,0.00128
3788.65652,0.00134
3786.59635,0.00158
3784.53618,0.00191
3782.47601,0.00213
3780.41583,0.00222
3778.35566,0.00222
3776.29549,0.00221
3774.23532,0.00220
3772.17515,0.00201
3770.11497,0.00161
3768.05480,0.00137
3765.99463,0.00150
3763.93446,0.00173
3761.87429,0.00170
3759.81411,0.00132
3757.75394,0.00097
3755.69377,0.00086
3753.63360,0.00054
3751.57342,0.00000
3749.51325,0.00011
3747.45308,0.00068
3745.39291,0.00079
3743.33274,0.00071
3741.27256,0.00084
3739.21239,0.00106
3737.15222,0.00125
3735.09205,0.00111
3733.03188,0.00099
3730.97170,0.00158
3728.91153,0.00241
3726.85136,0.00255
3724.79119,0.00191
3722.73102,0.00140
3720.67084,0.00150
3718.61067,0.00188
3716.55050,0.00234
3714.49033,0.00299
3712.43015,0.00377
3710.36998,0.00388
3708.30981,0.00314
3706.24964,0.00254
3704.18947,0.00245
3702.12929,0.00233
3700.06912,0.00205
3698.00895,0.00213
3695.94878,0.00246
3693.88861,0.00251
3691.82843,0.00224
3689.76826,0.00223
3687.70809,0.00261
3685.64792,0.00283
3683.58775,0.00271
3681.52757,0.00235
3679.46740,0.00168
3677.40723,0.00076
3675.34706,0.00025
3673.28688,0.00077
3671.22671,0.00153
3669.16654,0.00180
3667.10637,0.00201
3665.04620,0.00253
3662.98602,0.00314
3660.92585,0.00354
3658.86568,0.00373
3656.80551,0.00374
3654.74534,0.00389
3652.68516,0.00448
3650.62499,0.00485
3648.56482,0.00425
3646.50465,0.00362
3644.44447,0.00345
3642.38430,0.00355
3640.32413,0.00374
3638.26396,0.00378
3636.20379,0.00369
3634.14361,0.00379
3632.08344,0.00420
3630.02327,0.00457
3627.96310,0.00462
3625.90293,0.00467
3623.84275,0.00472
3621.78258,0.00459
3619.72241,0.00448
3617.66224,0.00473
3615.60207,0.00505
3613.54189,0.00502
3611.48172,0.00481
3609.42155,0.00467
3607.36138,0.00463
3605.30120,0.00466
3603.24103,0.00494
3601.18086,0.00557
3599.12069,0.00608
3597.06052,0.00613
3595.00034,0.00611
3592.94017,0.00632
3590.88000,0.00654
3588.81983,0.00684
3586.75966,0.00735
3584.69948,0.00773
3582.63931,0.00783
3580.57914,0.00782
3578.51897,0.00777
3576.45879,0.00778
3574.39862,0.00791
3572.33845,0.00803
3570.27828,0.00797
3568.21811,0.00779
3566.15793,0.00793
3564.09776,0.00850
3562.03759,0.00896
3559.97742,0.00917
3557.91725,0.00932
3555.85707,0.00956
3553.79690,0.00982
3551.73673,0.00990
3549.67656,0.00988
3547.61639,0.01011
3545.55621,0.01060
3543.49604,0.01096
3541.43587,0.01093
3539.37570,0.01094
3537.31552,0.01130
3535.25535,0.01167
3533.19518,0.01172
3531.13501,0.01165
3529.07484,0.01163
3527.01466,0.01162
3524.95449,0.01170
3522.89432,0.01191
3520.83415,0.01206
3518.77398,0.01220
3516.71380,0.01248
3514.65363,0.01278
3512.59346,0.01294
3510.53329,0.01298
3508.47312,0.01302
3506.41294,0.01326
3504.35277,0.01355
3502.29260,0.01363
3500.23243,0.01371
3498.17225,0.01401
3496.11208,0.01430
3494.05191,0.01439
3491.99174,0.01448
3489.93157,0.01472
3487.87139,0.01493
3485.81122,0.01485
3483.75105,0.01455
3481.69088,0.01441
3479.63071,0.01471
3477.57053,0.01528
3475.51036,0.01565
3473.45019,0.01569
3471.39002,0.01558
3469.32984,0.01549
3467.26967,0.01555
3465.20950,0.01562
3463.14933,0.01552
3461.08916,0.01551
3459.02898,0.01576
3456.96881,0.01615
3454.90864,0.01646
3452.84847,0.01650
3450.78830,0.01640
3448.72812,0.01646
3446.66795,0.01666
3444.60778,0.01693
3442.54761,0.01725
3440.48744,0.01755
3438.42726,0.01773
3436.36709,0.01775
3434.30692,0.01772
3432.24675,0.01770
3430.18657,0.01766
3428.12640,0.01763
3426.06623,0.01776
3424.00606,0.01804
3421.94589,0.01817
3419.88571,0.01801
3417.82554,0.01788
3415.76537,0.01787
3413.70520,0.01781
3411.64503,0.01788
3409.58485,0.01822
3407.52468,0.01846
3405.46451,0.01833
3403.40434,0.01841
3401.34416,0.01897
3399.28399,0.01915
3397.22382,0.01906
3395.16365,0.01901
3393.10348,0.01914
3391.04330,0.01943
3388.98313,0.01978
3386.92296,0.01987
3384.86279,0.01959
3382.80262,0.01923
3380.74244,0.01918
3378.68227,0.01948
3376.62210,0.01977
3374.56193,0.01967
3372.50176,0.01934
3370.44158,0.01914
3368.38141,0.01907
3366.32124,0.01914
3364.26107,0.01941
3362.20089,0.01967
3360.14072,0.01975
3358.08055,0.01982
3356.02038,0.01999
3353.96021,0.02021
3351.90003,0.02044
3349.83986,0.02052
3347.77969,0.02050
3345.71952,0.02044
3343.65935,0.02018
3341.59917,0.01995
3339.53900,0.02004
3337.47883,0.02020
3335.41866,0.02029
3333.35849,0.02035
3331.29831,0.02041
3329.23814,0.02058
3327.17797,0.02071
3325.11780,0.02071
3323.05762,0.02067
3320.99745,0.02062
3318.93728,0.02055
3316.87711,0.02050
3314.81694,0.02049
3312.75676,0.02045
3310.69659,0.02058
3308.63642,0.02091
3306.57625,0.02095
3304.51608,0.02069
3302.45590,0.02060
3300.39573,0.02081
3298.33556,0.02107
3296.27539,0.02109
3294.21521,0.02086
3292.15504,0.02068
3290.09487,0.02068
3288.03470,0.02063
3285.97453,0.02052
3283.91435,0.02059
3281.85418,0.02082
3279.79401,0.02105
3277.73384,0.02126
3275.67367,0.02128
3273.61349,0.02107
3271.55332,0.02087
3269.49315,0.02072
3267.43298,0.02059
3265.37281,0.02068
3263.31263,0.02099
3261.25246,0.02121
3259.19229,0.02111
3257.13212,0.02070
3255.07194,0.02032
3253.01177,0.02032
3250.95160,0.02053
3248.89143,0.02064
3246.83126,0.02081
3244.77108,0.02113
3242.71091,0.02127
3240.65074,0.02109
3238.59057,0.02072
3236.53040,0.02025
3234.47022,0.01992
3232.41005,0.01992
3230.34988,0.02018
3228.28971,0.02040
3226.22954,0.02039
3224.16936,0.02040
3222.10919,0.02054
3220.04902,0.02061
3217.98885,0.02050
3215.92867,0.02026
3213.86850,0.02001
3211.80833,0.01976
3209.74816,0.01973
3207.68799,0.01999
3205.62781,0.02026
3203.56764,0.02037
3201.50747,0.02035
3199.44730,0.02020
3197.38713,0.02012
3195.32695,0.02021
3193.26678,0.02036
3191.20661,0.02048
3189.14644,0.02039
3187.08626,0.02015
3185.02609,0.02005
3182.96592,0.02014
3180.90575,0.02040
3178.84558,0.02061
3176.78540,0.02053
3174.72523,0.02034
3172.66506,0.02023
3170.60489,0.02030
3168.54472,0.02045
3166.48454,0.02026
3164.42437,0.01973
3162.36420,0.01947
3160.30403,0.01967
3158.24386,0.01987
3156.18368,0.01975
3154.12351,0.01940
3152.06334,0.01912
3150.00317,0.01901
3147.94299,0.01892
3145.88282,0.01878
3143.82265,0.01865
3141.76248,0.01856
3139.70231,0.01856
3137.64213,0.01865
3135.58196,0.01878
3133.52179,0.01881
3131.46162,0.01878
3129.40145,0.01885
3127.34127,0.01891
3125.28110,0.01898
3123.22093,0.01907
3121.16076,0.01900
3119.10058,0.01890
3117.04041,0.01890
3114.98024,0.01890
3112.92007,0.01887
3110.85990,0.01875
3108.79972,0.01855
3106.73955,0.01836
3104.67938,0.01812
3102.61921,0.01791
3100.55904,0.01798
3098.49886,0.01826
3096.43869,0.01839
3094.37852,0.01833
3092.31835,0.01812
3090.25818,0.01791
3088.19800,0.01782
3086.13783,0.01770
3084.07766,0.01756
3082.01749,0.01760
3079.95731,0.01779
3077.89714,0.01783
3075.83697,0.01748
3073.77680,0.01716
3071.71663,0.01718
3069.65645,0.01717
3067.59628,0.01700
3065.53611,0.01681
3063.47594,0.01669
3061.41577,0.01669
3059.35559,0.01675
3057.29542,0.01675
3055.23525,0.01673
3053.17508,0.01672
3051.11491,0.01668
3049.05473,0.01664
3046.99456,0.01670
3044.93439,0.01670
3042.87422,0.01638
3040.81404,0.01589
3038.75387,0.01555
3036.69370,0.01538
3034.63353,0.01536
3032.57336,0.01540
3030.51318,0.01535
3028.45301,0.01537
3026.39284,0.01550
3024.33267,0.01544
3022.27250,0.01521
3020.21232,0.01513
3018.15215,0.01521
3016.09198,0.01530
3014.03181,0.01532
3011.97163,0.01536
3009.91146,0.01543
3007.85129,0.01542
3005.79112,0.01525
3003.73095,0.01501
3001.67077,0.01489
2999.61060,0.01491
2997.55043,0.01487
2995.49026,0.01478
2993.43009,0.01471
2991.36991,0.01463
2989.30974,0.01461
2987.24957,0.01470
2985.18940,0.01471
2983.12923,0.01453
2981.06905,0.01451
2979.00888,0.01464
2976.94871,0.01465
2974.88854,0.01464
2972.82836,0.01474
2970.76819,0.01495
2968.70802,0.01512
2966.64785,0.01515
2964.58768,0.01522
2962.52750,0.01520
2960.46733,0.01504
2958.40716,0.01498
2956.34699,0.01495
2954.28682,0.01482
2952.22664,0.01478
2950.16647,0.01498
2948.10630,0.01516
2946.04613,0.01503
2943.98596,0.01480
2941.92578,0.01479
2939.86561,0.01486
2937.80544,0.01476
2935.74527,0.01469
2933.68509,0.01486
2931.62492,0.01516
2929.56475,0.01540
2927.50458,0.01541
2925.44441,0.01529
2923.38423,0.01517
2921.32406,0.01507
2919.26389,0.01515
2917.20372,0.01527
2915.14355,0.01521
2913.08337,0.01508
2911.02320,0.01497
2908.96303,0.01478
2906.90286,0.01453
2904.84268,0.01445
2902.78251,0.01431
2900.72234,0.01397
2898.66217,0.01371
2896.60200,0.01357
2894.54182,0.01354
2892.48165,0.01356
2890.42148,0.01354
2888.36131,0.01360
2886.30114,0.01359
2884.24096,0.01340
2882.18079,0.01330
2880.12062,0.01339
2878.06045,0.01338
2876.00028,0.01312
2873.94010,0.01278
2871.87993,0.01264
2869.81976,0.01276
2867.75959,0.01297
2865.69941,0.01320
2863.63924,0.01337
2861.57907,0.01332
2859.51890,0.01293
2857.45873,0.01256
2855.39855,0.01258
2853.33838,0.01267
2851.27821,0.01258
2849.21804,0.01252
2847.15787,0.01252
2845.09769,0.01227
2843.03752,0.01182
2840.97735,0.01158
2838.91718,0.01165
2836.85700,0.01182
2834.79683,0.01179
2832.73666,0.01150
2830.67649,0.01132
2828.61632,0.01134
2826.55614,0.01126
2824.49597,0.01109
2822.43580,0.01102
2820.37563,0.01096
2818.31546,0.01081
2816.25528,0.01074
2814.19511,0.01081
2812.13494,0.01085
2810.07477,0.01085
2808.01460,0.01073
2805.95442,0.01056
2803.89425,0.01051
2801.83408,0.01055
2799.77391,0.01061
2797.71373,0.01057
2795.65356,0.01037
2793.59339,0.01019
2791.53322,0.01012
2789.47305,0.01002
2787.41287,0.00986
2785.35270,0.00976
2783.29253,0.00953
2781.23236,0.00927
2779.17219,0.00937
2777.11201,0.00978
2775.05184,0.01005
2772.99167,0.00999
2770.93150,0.00979
2768.87133,0.00968
2766.81115,0.00964
2764.75098,0.00955
2762.69081,0.00943
2760.63064,0.00948
2758.57046,0.00972
2756.51029,0.00986
2754.45012,0.00987
2752.38995,0.00985
2750.32978,0.00975
2748.26960,0.00961
2746.20943,0.00947
2744.14926,0.00941
2742.08909,0.00935
2740.02892,0.00924
2737.96874,0.00917
2735.90857,0.00920
2733.84840,0.00931
2731.78823,0.00933
2729.72805,0.00907
2727.66788,0.00874
2725.60771,0.00862
2723.54754,0.00866
2721.48737,0.00860
2719.42719,0.00849
2717.36702,0.00864
2715.30685,0.00879
2713.24668,0.00864
2711.18651,0.00842
2709.12633,0.00833
2707.06616,0.00838
2705.00599,0.00847
2702.94582,0.00846
2700.88565,0.00828
2698.82547,0.00814
2696.76530,0.00820
2694.70513,0.00834
2692.64496,0.00843
2690.58478,0.00843
2688.52461,0.00828
2686.46444,0.00812
2684.40427,0.00811
2682.34410,0.00811
2680.28392,0.00788
2678.22375,0.00776
2676.16358,0.00795
2674.10341,0.00804
2672.04324,0.00791
2669.98306,0.00778
2667.92289,0.00766
2665.86272,0.00759
2663.80255,0.00756
2661.74238,0.00760
2659.68220,0.00787
2657.62203,0.00819
2655.56186,0.00815
2653.50169,0.00789
2651.44151,0.00776
2649.38134,0.00793
2647.32117,0.00810
2645.26100,0.00794
2643.20083,0.00761
2641.14065,0.00746
2639.08048,0.00759
2637.02031,0.00777
2634.96014,0.00779
2632.89997,0.00766
2630.83979,0.00751
2628.77962,0.00748
2626.71945,0.00762
2624.65928,0.00769
2622.59910,0.00750
2620.53893,0.00720
2618.47876,0.00698
2616.41859,0.00685
2614.35842,0.00667
2612.29824,0.00644
2610.23807,0.00627
2608.17790,0.00616
2606.11773,0.00617
2604.05756,0.00626
2601.99738,0.00644
2599.93721,0.00668
2597.87704,0.00678
2595.81687,0.00661
2593.75670,0.00623
2591.69652,0.00616
2589.63635,0.00653
2587.57618,0.00682
2585.51601,0.00688
2583.45583,0.00705
2581.39566,0.00706
2579.33549,0.00672
2577.27532,0.00650
2575.21515,0.00631
2573.15497,0.00605
2571.09480,0.00596
2569.03463,0.00599
2566.97446,0.00618
2564.91429,0.00634
2562.85411,0.00625
2560.79394,0.00619
2558.73377,0.00608
2556.67360,0.00582
2554.61342,0.00583
2552.55325,0.00620
2550.49308,0.00635
2548.43291,0.00623
2546.37274,0.00632
2544.31256,0.00656
2542.25239,0.00657
2540.19222,0.00644
2538.13205,0.00623
2536.07188,0.00591
2534.01170,0.00580
2531.95153,0.00612
2529.89136,0.00624
2527.83119,0.00601
2525.77102,0.00594
2523.71084,0.00608
2521.65067,0.00629
2519.59050,0.00644
2517.53033,0.00644
2515.47015,0.00635
2513.40998,0.00645
2511.34981,0.00659
2509.28964,0.00624
2507.22947,0.00557
2505.16929,0.00530
2503.10912,0.00552
2501.04895,0.00565
2498.98878,0.00551
2496.92861,0.00563
2494.86843,0.00605
2492.80826,0.00628
2490.74809,0.00621
2488.68792,0.00615
2486.62775,0.00612
2484.56757,0.00618
2482.50740,0.00633
2480.44723,0.00638
2478.38706,0.00651
2476.32688,0.00670
2474.26671,0.00668
2472.20654,0.00651
2470.14637,0.00629
2468.08620,0.00619
2466.02602,0.00643
2463.96585,0.00673
2461.90568,0.00681
2459.84551,0.00686
2457.78534,0.00689
2455.72516,0.00684
2453.66499,0.00689
2451.60482,0.00694
2449.54465,0.00664
2447.48447,0.00623
2445.42430,0.00607
2443.36413,0.00631
2441.30396,0.00667
2439.24379,0.00670
2437.18361,0.00655
2435.12344,0.00651
2433.06327,0.00649
2431.00310,0.00631
2428.94293,0.00611
2426.88275,0.00610
2424.82258,0.00624
2422.76241,0.00634
2420.70224,0.00614
2418.64207,0.00590
2416.58189,0.00608
2414.52172,0.00655
2412.46155,0.00691
2410.40138,0.00678
2408.34120,0.00633
2406.28103,0.00616
2404.22086,0.00619
2402.16069,0.00624
2400.10052,0.00632
2398.04034,0.00613
2395.98017,0.00602
2393.92000,0.00593
2391.85983,0.00604
2389.79966,0.00630
2387.73948,0.00645
2385.67931,0.00650
2383.61914,0.00653
2381.55897,0.00653
2379.49880,0.00666
2377.43862,0.00693
2375.37845,0.00713
2373.31828,0.00697
2371.25811,0.00673
2369.19793,0.00721
2367.13776,0.00832
2365.07759,0.00898
2363.01742,0.00936
2360.95725,0.00929
2358.89707,0.00910
2356.83690,0.00876
2354.77673,0.00869
2352.71656,0.00843
2350.65639,0.00752
2348.59621,0.00711
2346.53604,0.00832
2344.47587,0.00860
2342.41570,0.00900
2340.35552,0.00964
2338.29535,0.00957
2336.23518,0.00896
2334.17501,0.00833
2332.11484,0.00809
2330.05466,0.00808
2327.99449,0.00826
2325.93432,0.00804
2323.87415,0.00797
2321.81398,0.00795
2319.75380,0.00800
2317.69363,0.00783
2315.63346,0.00786
2313.57329,0.00781
2311.51312,0.00757
2309.45294,0.00743
2307.39277,0.00731
2305.33260,0.00718
2303.27243,0.00710
2301.21225,0.00712
2299.15208,0.00716
2297.09191,0.00724
2295.03174,0.00727
2292.97157,0.00718
2290.91139,0.00727
2288.85122,0.00753
2286.79105,0.00747
2284.73088,0.00708
2282.67071,0.00673
2280.61053,0.00664
2278.55036,0.00684
2276.49019,0.00704
2274.43002,0.00683
2272.36984,0.00638
2270.30967,0.00598
2268.24950,0.00583
2266.18933,0.00603
2264.12916,0.00628
2262.06898,0.00630
2260.00881,0.00622
2257.94864,0.00643
2255.88847,0.00693
2253.82830,0.00668
2251.76812,0.00541
2249.70795,0.00457
2247.64778,0.00502
2245.58761,0.00560
2243.52744,0.00584
2241.46726,0.00587
2239.40709,0.00604
2237.34692,0.00637
2235.28675,0.00640
2233.22657,0.00648
2231.16640,0.00664
2229.10623,0.00621
2227.04606,0.00572
2224.98589,0.00571
2222.92571,0.00599
2220.86554,0.00630
2218.80537,0.00616
2216.74520,0.00612
2214.68503,0.00588
2212.62485,0.00438
2210.56468,0.00328
2208.50451,0.00365
2206.44434,0.00404
2204.38417,0.00387
2202.32399,0.00378
2200.26382,0.00383
2198.20365,0.00428
2196.14348,0.00522
2194.08330,0.00563
2192.02313,0.00524
2189.96296,0.00466
2187.90279,0.00465
2185.84262,0.00502
2183.78244,0.00467
2181.72227,0.00360
2179.66210,0.00288
2177.60193,0.00327
2175.54176,0.00400
2173.48158,0.00361
2171.42141,0.00246
2169.36124,0.00248
2167.30107,0.00360
2165.24089,0.00402
2163.18072,0.00350
2161.12055,0.00233
2159.06038,0.00082
2157.00021,0.00000
2154.94003,0.00056
2152.87986,0.00189
2150.81969,0.00252
2148.75952,0.00249
2146.69935,0.00290
2144.63917,0.00353
2142.57900,0.00386
2140.51883,0.00395
2138.45866,0.00354
2136.39849,0.00246
2134.33831,0.00131
2132.27814,0.00123
2130.21797,0.00239
2128.15780,0.00338
2126.09762,0.00361
2124.03745,0.00389
2121.97728,0.00441
2119.91711,0.00475
2117.85694,0.00478
2115.79676,0.00445
2113.73659,0.00398
2111.67642,0.00398
2109.61625,0.00456
2107.55608,0.00481
2105.49590,0.00443
2103.43573,0.00452
2101.37556,0.00474
2099.31539,0.00415
2097.25521,0.00360
2095.19504,0.00398
2093.13487,0.00426
2091.07470,0.00419
2089.01453,0.00446
2086.95435,0.00457
2084.89418,0.00427
2082.83401,0.00424
2080.77384,0.00429
2078.71367,0.00393
2076.65349,0.00371
2074.59332,0.00413
2072.53315,0.00481
2070.47298,0.00523
2068.41281,0.00529
2066.35263,0.00496
2064.29246,0.00413
2062.23229,0.00349
2060.17212,0.00340
2058.11194,0.00305
2056.05177,0.00259
2053.99160,0.00305
2051.93143,0.00396
2049.87126,0.00392
2047.81108,0.00322
2045.75091,0.00321
2043.69074,0.00366
2041.63057,0.00379
2039.57040,0.00376
2037.51022,0.00397
2035.45005,0.00403
2033.38988,0.00405
2031.32971,0.00416
2029.26954,0.00365
2027.20936,0.00284
2025.14919,0.00223
2023.08902,0.00178
2021.02885,0.00118
2018.96867,0.00040
2016.90850,0.00000
2014.84833,0.00055
2012.78816,0.00195
2010.72799,0.00297
2008.66781,0.00325
2006.60764,0.00371
2004.54747,0.00405
2002.48730,0.00368
2000.42713,0.00321
1998.36695,0.00314
1996.30678,0.00334
1994.24661,0.00330
1992.18644,0.00284
1990.12626,0.00257
1988.06609,0.00301
1986.00592,0.00360
1983.94575,0.00371
1981.88558,0.00360
1979.82540,0.00312
1977.76523,0.00233
1975.70506,0.00229
1973.64489,0.00279
1971.58472,0.00302
1969.52454,0.00258
1967.46437,0.00178
1965.40420,0.00175
1963.34403,0.00209
1961.28386,0.00193
1959.22368,0.00228
1957.16351,0.00316
1955.10334,0.00308
1953.04317,0.00241
1950.98299,0.00243
1948.92282,0.00269
1946.86265,0.00249
1944.80248,0.00215
1942.74231,0.00192
1940.68213,0.00188
1938.62196,0.00209
1936.56179,0.00212
1934.50162,0.00179
1932.44145,0.00129
1930.38127,0.00081
1928.32110,0.00079
1926.26093,0.00130
1924.20076,0.00165
1922.14059,0.00137
1920.08041,0.00122
1918.02024,0.00199
1915.96007,0.00285
1913.89990,0.00277
1911.83972,0.00227
1909.77955,0.00202
1907.71938,0.00196
1905.65921,0.00190
1903.59904,0.00186
1901.53886,0.00198
1899.47869,0.00216
1897.41852,0.00208
1895.35835,0.00193
1893.29818,0.00206
1891.23800,0.00240
1889.17783,0.00279
1887.11766,0.00298
1885.05749,0.00272
1882.99731,0.00249
1880.93714,0.00277
1878.87697,0.00305
1876.81680,0.00291
1874.75663,0.00251
1872.69645,0.00212
1870.63628,0.00198
1868.57611,0.00219
1866.51594,0.00253
1864.45577,0.00282
1862.39559,0.00297
1860.33542,0.00277
1858.27525,0.00240
1856.21508,0.00228
1854.15491,0.00236
1852.09473,0.00240
1850.03456,0.00238
1847.97439,0.00230
1845.91422,0.00219
1843.85404,0.00207
1841.79387,0.00187
1839.73370,0.00169
1837.67353,0.00179
1835.61336,0.00220
1833.55318,0.00269
1831.49301,0.00304
1829.43284,0.00304
1827.37267,0.00262
1825.31250,0.00221
1823.25232,0.00215
1821.19215,0.00211
1819.13198,0.00190
1817.07181,0.00191
1815.01163,0.00222
1812.95146,0.00235
1810.89129,0.00217
1808.83112,0.00198
1806.77095,0.00195
1804.71077,0.00200
1802.65060,0.00201
1800.59043,0.00204
1798.53026,0.00205
1796.47009,0.00201
1794.40991,0.00200
1792.34974,0.00212
1790.28957,0.00233
1788.22940,0.00245
1786.16923,0.00239
1784.10905,0.00237
1782.04888,0.00245
1779.98871,0.00237
1777.92854,0.00220
1775.86836,0.00225
1773.80819,0.00238
1771.74802,0.00236
1769.68785,0.00228
1767.62768,0.00235
1765.56750,0.00246
1763.50733,0.00248
1761.44716,0.00250
1759.38699,0.00258
1757.32682,0.00268
1755.26664,0.00285
1753.20647,0.00308
1751.14630,0.00323
1749.08613,0.00333
1747.02596,0.00347
1744.96578,0.00363
1742.90561,0.00375
1740.84544,0.00374
1738.78527,0.00371
1736.72509,0.00379
1734.66492,0.00394
1732.60475,0.00410
1730.54458,0.00418
1728.48441,0.00408
1726.42423,0.00401
1724.36406,0.00404
1722.30389,0.00404
1720.24372,0.00406
1718.18355,0.00415
1716.12337,0.00409
1714.06320,0.00391
1712.00303,0.00381
1709.94286,0.00383
1707.88268,0.00394
1705.82251,0.00404
1703.76234,0.00411
1701.70217,0.00437
1699.64200,0.00493
1697.58182,0.00559
1695.52165,0.00611
1693.46148,0.00638
1691.40131,0.00650
1689.34114,0.00671
1687.28096,0.00709
1685.22079,0.00764
1683.16062,0.00816
1681.10045,0.00847
1679.04028,0.00879
1676.98010,0.00930
1674.91993,0.00981
1672.85976,0.01003
1670.79959,0.01021
1668.73941,0.01073
1666.67924,0.01129
1664.61907,0.01170
1662.55890,0.01208
1660.49873,0.01231
1658.43855,0.01225
1656.37838,0.01220
1654.31821,0.01249
1652.25804,0.01284
1650.19787,0.01268
1648.13769,0.01229
1646.07752,0.01221
1644.01735,0.01229
1641.95718,0.01216
1639.89701,0.01191
1637.83683,0.01179
1635.77666,0.01186
1633.71649,0.01181
1631.65632,0.01151
1629.59614,0.01120
1627.53597,0.01091
1625.47580,0.01059
1623.41563,0.01037
1621.35546,0.01028
1619.29528,0.01019
1617.23511,0.01012
1615.17494,0.01005
1613.11477,0.00989
1611.05460,0.00977
1608.99442,0.00977
1606.93425,0.00971
1604.87408,0.00948
1602.81391,0.00922
1600.75373,0.00908
1598.69356,0.00896
1596.63339,0.00879
1594.57322,0.00872
1592.51305,0.00880
1590.45287,0.00880
1588.39270,0.00860
1586.33253,0.00831
1584.27236,0.00801
1582.21219,0.00778
1580.15201,0.00760
1578.09184,0.00752
1576.03167,0.00762
1573.97150,0.00768
1571.91133,0.00743
1569.85115,0.00697
1567.79098,0.00653
1565.73081,0.00621
1563.67064,0.00609
1561.61046,0.00615
1559.55029,0.00592
1557.49012,0.00530
1555.42995,0.00504
1553.36978,0.00517
1551.30960,0.00539
1549.24943,0.00546
1547.18926,0.00536
1545.12909,0.00523
1543.06892,0.00515
1541.00874,0.00519
1538.94857,0.00526
1536.88840,0.00506
1534.82823,0.00468
1532.76805,0.00432
1530.70788,0.00401
1528.64771,0.00370
1526.58754,0.00335
1524.52737,0.00305
1522.46719,0.00290
1520.40702,0.00286
1518.34685,0.00278
1516.28668,0.00259
1514.22651,0.00243
1512.16633,0.00235
1510.10616,0.00238
1508.04599,0.00252
1505.98582,0.00269
1503.92565,0.00265
1501.86547,0.00250
1499.80530,0.00247
1497.74513,0.00250
1495.68496,0.00253
1493.62478,0.00255
1491.56461,0.00247
1489.50444,0.00234
1487.44427,0.00233
1485.38410,0.00243
1483.32392,0.00254
1481.26375,0.00261
1479.20358,0.00263
1477.14341,0.00279
1475.08324,0.00303
1473.02306,0.00313
1470.96289,0.00313
1468.90272,0.00324
1466.84255,0.00354
1464.78238,0.00387
1462.72220,0.00394
1460.66203,0.00379
1458.60186,0.00359
1456.54169,0.00344
1454.48151,0.00344
1452.42134,0.00347
1450.36117,0.00352
1448.30100,0.00361
1446.24083,0.00373
1444.18065,0.00383
1442.12048,0.00386
1440.06031,0.00387
1438.00014,0.00389
1435.93997,0.00382
1433.87979,0.00372
1431.81962,0.00379
1429.75945,0.00403
1427.69928,0.00420
1425.63910,0.00421
1423.57893,0.00420
1421.51876,0.00421
1419.45859,0.00416
1417.39842,0.00414
1415.33824,0.00428
1413.27807,0.00445
1411.21790,0.00446
1409.15773,0.00430
1407.09756,0.00416
1405.03738,0.00410
1402.97721,0.00405
1400.91704,0.00395
1398.85687,0.00377
1396.79670,0.00359
1394.73652,0.00354
1392.67635,0.00354
1390.61618,0.00352
1388.55601,0.00356
1386.49583,0.00372
1384.43566,0.00385
1382.37549,0.00382
1380.31532,0.00364
1378.25515,0.00345
1376.19497,0.00334
1374.13480,0.00336
1372.07463,0.00336
1370.01446,0.00329
1367.95429,0.00318
1365.89411,0.00304
1363.83394,0.00289
1361.77377,0.00282
1359.71360,0.00286
1357.65343,0.00294
1355.59325,0.00303
1353.53308,0.00311
1351.47291,0.00316
1349.41274,0.00316
1347.35256,0.00307
1345.29239,0.00288
1343.23222,0.00264
1341.17205,0.00240
1339.11188,0.00226
1337.05170,0.00229
1334.99153,0.00236
1332.93136,0.00237
1330.87119,0.00237
1328.81102,0.00238
1326.75084,0.00239
1324.69067,0.00242
1322.63050,0.00242
1320.57033,0.00237
1318.51015,0.00237
1316.44998,0.00248
1314.38981,0.00262
1312.32964,0.00268
1310.26947,0.00271
1308.20929,0.00277
1306.14912,0.00278
1304.08895,0.00273
1302.02878,0.00278
1299.96861,0.00291
1297.90843,0.00303
1295.84826,0.00315
1293.78809,0.00333
1291.72792,0.00347
1289.66775,0.00341
1287.60757,0.00314
1285.54740,0.00286
1283.48723,0.00279
1281.42706,0.00290
1279.36688,0.00300
1277.30671,0.00311
1275.24654,0.00317
1273.18637,0.00307
1271.12620,0.00299
1269.06602,0.00308
1267.00585,0.00319
1264.94568,0.00312
1262.88551,0.00299
1260.82534,0.00307
1258.76516,0.00322
1256.70499,0.00317
1254.64482,0.00301
1252.58465,0.00306
1250.52447,0.00325
1248.46430,0.00317
1246.40413,0.00292
1244.34396,0.00285
1242.28379,0.00289
1240.22361,0.00289
1238.16344,0.00284
1236.10327,0.00276
1234.04310,0.00267
1231.98293,0.00247
1229.92275,0.00212
1227.86258,0.00195
1225.80241,0.00208
1223.74224,0.00213
1221.68207,0.00191
1219.62189,0.00164
1217.56172,0.00148
1215.50155,0.00138
1213.44138,0.00117
1211.38120,0.00084
1209.32103,0.00059
1207.26086,0.00051
1205.20069,0.00047
1203.14052,0.00039
1201.08034,0.00036
1199.02017,0.00049
1196.96000,0.00060
1194.89983,0.00050
1192.83966,0.00033
1190.77948,0.00031
1188.71931,0.00040
1186.65914,0.00047
1184.59897,0.00059
1182.53880,0.00078
1180.47862,0.00088
1178.41845,0.00089
1176.35828,0.00089
1174.29811,0.00106
1172.23793,0.00135
1170.17776,0.00156
1168.11759,0.00170
1166.05742,0.00194
1163.99725,0.00233
1161.93707,0.00274
1159.87690,0.00307
1157.81673,0.00341
1155.75656,0.00383
1153.69639,0.00424
1151.63621,0.00448
1149.57604,0.00478
1147.51587,0.00540
1145.45570,0.00614
1143.39552,0.00671
1141.33535,0.00715
1139.27518,0.00756
1137.21501,0.00797
1135.15484,0.00852
1133.09466,0.00908
1131.03449,0.00952
1128.97432,0.01001
1126.91415,0.01078
1124.85398,0.01168
1122.79380,0.01250
1120.73363,0.01321
1118.67346,0.01387
1116.61329,0.01452
1114.55312,0.01511
1112.49294,0.01567
1110.43277,0.01630
1108.37260,0.01698
1106.31243,0.01762
1104.25225,0.01829
1102.19208,0.01910
1100.13191,0.01985
1098.07174,0.02028
1096.01157,0.02044
1093.95139,0.02066
1091.89122,0.02115
1089.83105,0.02182
1087.77088,0.02237
1085.71071,0.02269
1083.65053,0.02295
1081.59036,0.02330
1079.53019,0.02363
1077.47002,0.02377
1075.40985,0.02385
1073.34967,0.02410
1071.28950,0.02435
1069.22933,0.02441
1067.16916,0.02442
1065.10898,0.02444
1063.04881,0.02445
1060.98864,0.02449
1058.92847,0.02446
1056.86830,0.02427
1054.80812,0.02395
1052.74795,0.02351
1050.68778,0.02309
1048.62761,0.02251
1046.56744,0.02162
1044.50726,0.02080
1042.44709,0.02026
1040.38692,0.01966
1038.32675,0.01882
1036.26657,0.01789
1034.20640,0.01694
1032.14623,0.01597
1030.08606,0.01523
1028.02589,0.01475
1025.96571,0.01418
1023.90554,0.01348
1021.84537,0.01284
1019.78520,0.01219
1017.72503,0.01181
1015.66485,0.01167
1013.60468,0.01134
1011.54451,0.01094
1009.48434,0.01089
1007.42417,0.01099
1005.36399,0.01117
1003.30382,0.01165
1001.24365,0.01228
999.18348,0.01287
997.12330,0.01338
995.06313,0.01380
993.00296,0.01413
990.94279,0.01432
988.88262,0.01454
986.82244,0.01495
984.76227,0.01542
982.70210,0.01569
980.64193,0.01558
978.58176,0.01529
976.52158,0.01511
974.46141,0.01506
972.40124,0.01506
970.34107,0.01489
968.28089,0.01440
966.22072,0.01386
964.16055,0.01347
962.10038,0.01307
960.04021,0.01243
957.98003,0.01166
955.91986,0.01093
953.85969,0.01025
951.79952,0.00975
949.73935,0.00941
947.67917,0.00895
945.61900,0.00836
943.55883,0.00763
941.49866,0.00685
939.43849,0.00639
937.37831,0.00627
935.31814,0.00605
933.25797,0.00556
931.19780,0.00507
929.13762,0.00471
927.07745,0.00445
925.01728,0.00439
922.95711,0.00446
920.89694,0.00435
918.83676,0.00397
916.77659,0.00354
914.71642,0.00331
912.65625,0.00329
910.59608,0.00320
908.53590,0.00311
906.47573,0.00311
904.41556,0.00296
902.35539,0.00269
900.29522,0.00265
898.23504,0.00294
896.17487,0.00338
894.11470,0.00372
892.05453,0.00387
889.99435,0.00389
887.93418,0.00414
885.87401,0.00464
883.81384,0.00505
881.75367,0.00515
879.69349,0.00528
877.63332,0.00571
875.57315,0.00605
873.51298,0.00641
871.45281,0.00679
869.39263,0.00696
867.33246,0.00731
865.27229,0.00782
863.21212,0.00791
861.15194,0.00761
859.09177,0.00749
857.03160,0.00759
854.97143,0.00757
852.91126,0.00760
850.85108,0.00763
848.79091,0.00735
846.73074,0.00728
844.67057,0.00751
842.61040,0.00750
840.55022,0.00750
838.49005,0.00737
836.42988,0.00684
834.36971,0.00634
832.30954,0.00579
830.24936,0.00505
828.18919,0.00473
826.12902,0.00479
824.06885,0.00470
822.00867,0.00468
819.94850,0.00486
817.88833,0.00469
815.82816,0.00423
813.76799,0.00400
811.70781,0.00405
809.64764,0.00413
807.58747,0.00419
805.52730,0.00424
803.46713,0.00400
801.40695,0.00375
799.34678,0.00378
797.28661,0.00389
795.22644,0.00379
793.16627,0.00349
791.10609,0.00323
789.04592,0.00297
786.98575,0.00274
784.92558,0.00282
782.86540,0.00318
780.80523,0.00336
778.74506,0.00328
776.68489,0.00337
774.62472,0.00358
772.56454,0.00342
770.50437,0.00301
768.44420,0.00267
766.38403,0.00221
764.32386,0.00200
762.26368,0.00242
760.20351,0.00299
758.14334,0.00311
756.08317,0.00290
754.02299,0.00302
751.96282,0.00325
749.90265,0.00291
747.84248,0.00259
745.78231,0.00298
743.72213,0.00336
741.66196,0.00323
739.60179,0.00288
737.54162,0.00238
735.48145,0.00214
733.42127,0.00203
731.36110,0.00183
729.30093,0.00225
727.24076,0.00316
725.18059,0.00371
723.12041,0.00396
721.06024,0.00419
719.00007,0.00421
716.93990,0.00389
714.87972,0.00341
712.81955,0.00313
710.75938,0.00311
708.69921,0.00324
706.63904,0.00346
704.57886,0.00348
702.51869,0.00315
700.45852,0.00318
698.39835,0.00402
696.33818,0.00500
694.27800,0.00559
692.21783,0.00563
690.15766,0.00511
688.09749,0.00427
686.03731,0.00327
683.97714,0.00239
681.91697,0.00235
679.85680,0.00312
677.79663,0.00357
675.73645,0.00352
673.67628,0.00309
671.61611,0.00175
669.55594,0.00226
667.49577,0.00480
665.43559,0.00337
663.37542,0.00446
661.31525,0.00515
659.25508,0.00479
657.19491,0.00407
655.13473,0.00364
653.07456,0.00384
651.01439,0.00410
648.95422,0.00415
646.89404,0.00419
644.83387,0.00393
642.77370,0.00304
640.71353,0.00193
638.65336,0.00096
636.59318,0.00049
634.53301,0.00088
632.47284,0.00243
630.41267,0.00430
628.35250,0.00427
626.29232,0.00170
624.23215,0.00072
622.17198,0.00269
620.11181,0.00379
618.05164,0.00249
615.99146,0.00137
613.93129,0.00152
611.87112,0.00095
609.81095,0.00000
607.75077,0.00148
605.69060,0.00368
603.63043,0.00277
601.57026,0.00069
599.51009,0.00000
