3996.73391,0.00065
3994.67373,0.00063
3992.61356,0.00068
3990.55339,0.00064
3988.49322,0.00057
3986.43305,0.00055
3984.37287,0.00045
3982.31270,0.00036
3980.25253,0.00052
3978.19236,0.00074
3976.13219,0.00073
3974.07201,0.00056
3972.01184,0.00050
3969.95167,0.00060
3967.89150,0.00084
3965.83133,0.00109
3963.77115,0.00107
3961.71098,0.00074
3959.65081,0.00034
3957.59064,0.00002
3955.53046,0.00000
3953.47029,0.00037
3951.41012,0.00072
3949.34995,0.00084
3947.28978,0.00092
3945.22960,0.00113
3943.16943,0.00130
3941.10926,0.00115
3939.04909,0.00090
3936.98892,0.00083
3934.92874,0.00085
3932.86857,0.00095
3930.80840,0.00111
3928.74823,0.00117
3926.68805,0.00118
3924.62788,0.00124
3922.56771,0.00107
3920.50754,0.00048
3918.44737,0.00001
3916.38719,0.00035
3914.32702,0.00116
3912.26685,0.00154
3910.20668,0.00134
3908.14651,0.00117
3906.08633,0.00143
3904.02616,0.00173
3901.96599,0.00159
3899.90582,0.00126
3897.84565,0.00109
3895.78547,0.00099
3893.72530,0.00097
3891.66513,0.00100
3889.60496,0.00087
3887.54478,0.00072
3885.48461,0.00084
3883.42444,0.00110
3881.36427,0.00128
3879.30410,0.00124
3877.24392,0.00085
3875.18375,0.00056
3873.12358,0.00090
3871.06341,0.00165
3869.00324,0.00218
3866.94306,0.00230
3864.88289,0.00215
3862.82272,0.00189
3860.76255,0.00166
3858.70237,0.00154
3856.64220,0.00166
3854.58203,0.00199
3852.52186,0.00203
3850.46169,0.00161
3848.40151,0.00125
3846.34134,0.00105
3844.28117,0.00092
3842.22100,0.00114
3840.16083,0.00173
3838.10065,0.00211
3836.04048,0.00209
3833.98031,0.00202
3831.92014,0.00186
3829.85997,0.00151
3827.79979,0.00125
3825.73962,0.00133
3823.67945,0.00171
3821.61928,0.00192
3819.55910,0.00143
3817.49893,0.00077
3815.43876,0.00072
3813.37859,0.00107
3811.31842,0.00113
3809.25824,0.00088
3807.19807,0.00078
3805.13790,0.00101
3803.07773,0.00128
3801.01756,0.00128
3798.95738,0.00103
3796.89721,0.00099
3794.83704,0.00121
3792.77687,0.00147
3790.71670,0.00168
3788.65652,0.00170
3786.59635,0.00158
3784.53618,0.00155
3782.47601,0.00163
3780.41583,0.00164
3778.35566,0.00138
3776.29549,0.00105
3774.23532,0.00108
3772.17515,0.00148
3770.11497,0.00187
3768.05480,0.00196
3765.99463,0.00171
3763.93446,0.00137
3761.87429,0.00140
3759.81411,0.00168
3757.75394,0.00170
3755.69377,0.00175
3753.63360,0.00211
3751.57342,0.00207
3749.51325,0.00152
3747.45308,0.00151
3745.39291,0.00223
3743.33274,0.00281
3741.27256,0.00276
3739.21239,0.00275
3737.15222,0.00340
3735.09205,0.00408
3733.03188,0.00373
3730.97170,0.00288
3728.91153,0.00248
3726.85136,0.00228
3724.79119,0.00200
3722.73102,0.00196
3720.67084,0.00202
3718.61067,0.00198
3716.55050,0.00172
3714.49033,0.00152
3712.43015,0.00167
3710.36998,0.00153
3708.30981,0.00126
3706.24964,0.00156
3704.18947,0.00248
3702.12929,0.00302
3700.06912,0.00266
3698.00895,0.00226
3695.94878,0.00227
3693.88861,0.00248
3691.82843,0.00265
3689.76826,0.00258
3687.70809,0.00213
3685.64792,0.00173
3683.58775,0.00155
3681.52757,0.00164
3679.46740,0.00198
3677.40723,0.00244
3675.34706,0.00270
3673.28688,0.00262
3671.22671,0.00258
3669.16654,0.00271
3667.10637,0.00275
3665.04620,0.00274
3662.98602,0.00282
3660.92585,0.00291
3658.86568,0.00291
3656.80551,0.00303
3654.74534,0.00327
3652.68516,0.00351
3650.62499,0.00396
3648.56482,0.00434
3646.50465,0.00404
3644.44447,0.00356
3642.38430,0.00332
3640.32413,0.00331
3638.26396,0.00349
3636.20379,0.00382
3634.14361,0.00441
3632.08344,0.00522
3630.02327,0.00584
3627.96310,0.00580
3625.90293,0.00550
3623.84275,0.00529
3621.78258,0.00516
3619.72241,0.00510
3617.66224,0.00521
3615.60207,0.00554
3613.54189,0.00587
3611.48172,0.00615
3609.42155,0.00648
3607.36138,0.00698
3605.30120,0.00760
3603.24103,0.00782
3601.18086,0.00752
3599.12069,0.00717
3597.06052,0.00718
3595.00034,0.00719
3592.94017,0.00709
3590.88000,0.00699
3588.81983,0.00703
3586.75966,0.00714
3584.69948,0.00730
3582.63931,0.00761
3580.57914,0.00798
3578.51897,0.00823
3576.45879,0.00832
3574.39862,0.00822
3572.33845,0.00798
3570.27828,0.00803
3568.21811,0.00864
3566.15793,0.00937
3564.09776,0.00978
3562.03759,0.00997
3559.97742,0.01013
3557.91725,0.01031
3555.85707,0.01045
3553.79690,0.01056
3551.73673,0.01071
3549.67656,0.01079
3547.61639,0.01069
3545.55621,0.01065
3543.49604,0.01069
3541.43587,0.01058
3539.37570,0.01070
3537.31552,0.01118
3535.25535,0.01152
3533.19518,0.01150
3531.13501,0.01151
3529.07484,0.01176
3527.01466,0.01212
3524.95449,0.01242
3522.89432,0.01251
3520.83415,0.01238
3518.77398,0.01206
3516.71380,0.01164
3514.65363,0.01165
3512.59346,0.01239
3510.53329,0.01329
3508.47312,0.01359
3506.41294,0.01337
3504.35277,0.01323
3502.29260,0.01344
3500.23243,0.01360
3498.17225,0.01352
3496.11208,0.01372
3494.05191,0.01425
3491.99174,0.01436
3489.93157,0.01408
3487.87139,0.01407
3485.81122,0.01453
3483.75105,0.01523
3481.69088,0.01587
3479.63071,0.01601
3477.57053,0.01566
3475.51036,0.01517
3473.45019,0.01485
3471.39002,0.01513
3469.32984,0.01589
3467.26967,0.01630
3465.20950,0.01623
3463.14933,0.01624
3461.08916,0.01642
3459.02898,0.01638
3456.96881,0.01621
3454.90864,0.01625
3452.84847,0.01652
3450.78830,0.01690
3448.72812,0.01713
3446.66795,0.01694
3444.60778,0.01685
3442.54761,0.01717
3440.48744,0.01738
3438.42726,0.01752
3436.36709,0.01798
3434.30692,0.01833
3432.24675,0.01824
3430.18657,0.01822
3428.12640,0.01839
3426.06623,0.01845
3424.00606,0.01857
3421.94589,0.01901
3419.88571,0.01963
3417.82554,0.01989
3415.76537,0.01953
3413.70520,0.01887
3411.64503,0.01865
3409.58485,0.01905
3407.52468,0.01942
3405.46451,0.01955
3403.40434,0.01962
3401.34416,0.01950
3399.28399,0.01918
3397.22382,0.01905
3395.16365,0.01913
3393.10348,0.01926
3391.04330,0.01956
3388.98313,0.01964
3386.92296,0.01943
3384.86279,0.01965
3382.80262,0.02011
3380.74244,0.02003
3378.68227,0.01974
3376.62210,0.01984
3374.56193,0.02012
3372.50176,0.02023
3370.44158,0.02030
3368.38141,0.02063
3366.32124,0.02105
3364.26107,0.02132
3362.20089,0.02151
3360.14072,0.02136
3358.08055,0.02078
3356.02038,0.02044
3353.96021,0.02060
3351.90003,0.02075
3349.83986,0.02069
3347.77969,0.02071
3345.71952,0.02075
3343.65935,0.02076
3341.59917,0.02104
3339.53900,0.02125
3337.47883,0.02096
3335.41866,0.02064
3333.35849,0.02088
3331.29831,0.02144
3329.23814,0.02166
3327.17797,0.02166
3325.11780,0.02181
3323.05762,0.02177
3320.99745,0.02157
3318.93728,0.02162
3316.87711,0.02177
3314.81694,0.02184
3312.75676,0.02195
3310.69659,0.02203
3308.63642,0.02190
3306.57625,0.02161
3304.51608,0.02161
3302.45590,0.02196
3300.39573,0.02225
3298.33556,0.02217
3296.27539,0.02186
3294.21521,0.02178
3292.15504,0.02207
3290.09487,0.02257
3288.03470,0.02298
3285.97453,0.02277
3283.91435,0.02214
3281.85418,0.02191
3279.79401,0.02219
3277.73384,0.02240
3275.67367,0.02232
3273.61349,0.02228
3271.55332,0.02242
3269.49315,0.02260
3267.43298,0.02255
3265.37281,0.02213
3263.31263,0.02181
3261.25246,0.02191
3259.19229,0.02215
3257.13212,0.02244
3255.07194,0.02271
3253.01177,0.02268
3250.95160,0.02256
3248.89143,0.02256
3246.83126,0.02245
3244.77108,0.02240
3242.71091,0.02247
3240.65074,0.02231
3238.59057,0.02211
3236.53040,0.02224
3234.47022,0.02247
3232.41005,0.02263
3230.34988,0.02282
3228.28971,0.02285
3226.22954,0.02270
3224.16936,0.02258
3222.10919,0.02251
3220.04902,0.02248
3217.98885,0.02255
3215.92867,0.02265
3213.86850,0.02258
3211.80833,0.02235
3209.74816,0.02231
3207.68799,0.02236
3205.62781,0.02217
3203.56764,0.02202
3201.50747,0.02208
3199.44730,0.02209
3197.38713,0.02193
3195.32695,0.02175
3193.26678,0.02178
3191.20661,0.02199
3189.14644,0.02209
3187.08626,0.02198
3185.02609,0.02179
3182.96592,0.02164
3180.90575,0.02147
3178.84558,0.02143
3176.78540,0.02175
3174.72523,0.02216
3172.66506,0.02234
3170.60489,0.02234
3168.54472,0.02220
3166.48454,0.02202
3164.42437,0.02195
3162.36420,0.02197
3160.30403,0.02202
3158.24386,0.02200
3156.18368,0.02176
3154.12351,0.02134
3152.06334,0.02112
3150.00317,0.02128
3147.94299,0.02159
3145.88282,0.02185
3143.82265,0.02180
3141.76248,0.02142
3139.70231,0.02106
3137.64213,0.02083
3135.58196,0.02078
3133.52179,0.02098
3131.46162,0.02096
3129.40145,0.02059
3127.34127,0.02054
3125.28110,0.02087
3123.22093,0.02103
3121.16076,0.02090
3119.10058,0.02074
3117.04041,0.02051
3114.98024,0.02024
3112.92007,0.02016
3110.85990,0.02030
3108.79972,0.02043
3106.73955,0.02050
3104.67938,0.02041
3102.61921,0.02011
3100.55904,0.01978
3098.49886,0.01970
3096.43869,0.01987
3094.37852,0.01992
3092.31835,0.01962
3090.25818,0.01926
3088.19800,0.01918
3086.13783,0.01940
3084.07766,0.01966
3082.01749,0.01978
3079.95731,0.01971
3077.89714,0.01962
3075.83697,0.01967
3073.77680,0.01975
3071.71663,0.01964
3069.65645,0.01939
3067.59628,0.01920
3065.53611,0.01912
3063.47594,0.01902
3061.41577,0.01885
3059.35559,0.01879
3057.29542,0.01880
3055.23525,0.01875
3053.17508,0.01869
3051.11491,0.01860
3049.05473,0.01856
3046.99456,0.01857
3044.93439,0.01849
3042.87422,0.01839
3040.81404,0.01841
3038.75387,0.01854
3036.69370,0.01854
3034.63353,0.01836
3032.57336,0.01831
3030.51318,0.01840
3028.45301,0.01824
3026.39284,0.01791
3024.33267,0.01783
3022.27250,0.01794
3020.21232,0.01781
3018.15215,0.01759
3016.09198,0.01754
3014.03181,0.01745
3011.97163,0.01744
3009.91146,0.01767
3007.85129,0.01788
3005.79112,0.01783
3003.73095,0.01751
3001.67077,0.01717
2999.61060,0.01702
2997.55043,0.01700
2995.49026,0.01689
2993.43009,0.01682
2991.36991,0.01691
2989.30974,0.01690
2987.24957,0.01674
2985.18940,0.01672
2983.12923,0.01684
2981.06905,0.01709
2979.00888,0.01732
2976.94871,0.01722
2974.88854,0.01697
2972.82836,0.01680
2970.76819,0.01664
2968.70802,0.01659
2966.64785,0.01670
2964.58768,0.01685
2962.52750,0.01695
2960.46733,0.01693
2958.40716,0.01681
2956.34699,0.01665
2954.28682,0.01659
2952.22664,0.01677
2950.16647,0.01703
2948.10630,0.01707
2946.04613,0.01683
2943.98596,0.01640
2941.92578,0.01613
2939.86561,0.01628
2937.80544,0.01659
2935.74527,0.01671
2933.68509,0.01661
2931.62492,0.01650
2929.56475,0.01653
2927.50458,0.01655
2925.44441,0.01643
2923.38423,0.01627
2921.32406,0.01603
2919.26389,0.01580
2917.20372,0.01580
2915.14355,0.01606
2913.08337,0.01628
2911.02320,0.01614
2908.96303,0.01571
2906.90286,0.01528
2904.84268,0.01525
2902.78251,0.01562
2900.72234,0.01584
2898.66217,0.01555
2896.60200,0.01514
2894.54182,0.01496
2892.48165,0.01493
2890.42148,0.01494
2888.36131,0.01511
2886.30114,0.01525
2884.24096,0.01508
2882.18079,0.01485
2880.12062,0.01487
2878.06045,0.01506
2876.00028,0.01515
2873.94010,0.01501
2871.87993,0.01489
2869.81976,0.01493
2867.75959,0.01488
2865.69941,0.01456
2863.63924,0.01411
2861.57907,0.01390
2859.51890,0.01406
2857.45873,0.01418
2855.39855,0.01412
2853.33838,0.01390
2851.27821,0.01366
2849.21804,0.01352
2847.15787,0.01336
2845.09769,0.01319
2843.03752,0.01319
2840.97735,0.01339
2838.91718,0.01346
2836.85700,0.01331
2834.79683,0.01326
2832.73666,0.01318
2830.67649,0.01283
2828.61632,0.01246
2826.55614,0.01234
2824.49597,0.01238
2822.43580,0.01232
2820.37563,0.01227
2818.31546,0.01227
2816.25528,0.01225
2814.19511,0.01226
2812.13494,0.01232
2810.07477,0.01229
2808.01460,0.01217
2805.95442,0.01209
2803.89425,0.01205
2801.83408,0.01203
2799.77391,0.01211
2797.71373,0.01218
2795.65356,0.01208
2793.59339,0.01181
2791.53322,0.01158
2789.47305,0.01137
2787.41287,0.01117
2785.35270,0.01123
2783.29253,0.01135
2781.23236,0.01122
2779.17219,0.01114
2777.11201,0.01128
2775.05184,0.01133
2772.99167,0.01117
2770.93150,0.01101
2768.87133,0.01104
2766.81115,0.01127
2764.75098,0.01146
2762.69081,0.01143
2760.63064,0.01140
2758.57046,0.01144
2756.51029,0.01138
2754.45012,0.01123
2752.38995,0.01114
2750.32978,0.01115
2748.26960,0.01110
2746.20943,0.01097
2744.14926,0.01087
2742.08909,0.01079
2740.02892,0.01066
2737.96874,0.01047
2735.90857,0.01033
2733.84840,0.01022
2731.78823,0.01018
2729.72805,0.01037
2727.66788,0.01056
2725.60771,0.01055
2723.54754,0.01037
2721.48737,0.01009
2719.42719,0.01000
2717.36702,0.01008
2715.30685,0.01001
2713.24668,0.01002
2711.18651,0.01023
2709.12633,0.01028
2707.06616,0.01009
2705.00599,0.01001
2702.94582,0.00992
2700.88565,0.00964
2698.82547,0.00968
2696.76530,0.01007
2694.70513,0.01010
2692.64496,0.00970
2690.58478,0.00950
2688.52461,0.00973
2686.46444,0.00992
2684.40427,0.00969
2682.34410,0.00936
2680.28392,0.00931
2678.22375,0.00945
2676.16358,0.00962
2674.10341,0.00976
2672.04324,0.00970
2669.98306,0.00942
2667.92289,0.00918
2665.86272,0.00920
2663.80255,0.00929
2661.74238,0.00926
2659.68220,0.00921
2657.62203,0.00924
2655.56186,0.00924
2653.50169,0.00908
2651.44151,0.00890
2649.38134,0.00896
2647.32117,0.00911
2645.26100,0.00927
2643.20083,0.00944
2641.14065,0.00930
2639.08048,0.00890
2637.02031,0.00873
2634.96014,0.00889
2632.89997,0.00911
2630.83979,0.00910
2628.77962,0.00896
2626.71945,0.00895
2624.65928,0.00881
2622.59910,0.00849
2620.53893,0.00835
2618.47876,0.00825
2616.41859,0.00799
2614.35842,0.00794
2612.29824,0.00837
2610.23807,0.00897
2608.17790,0.00909
2606.11773,0.00869
2604.05756,0.00827
2601.99738,0.00821
2599.93721,0.00839
2597.87704,0.00825
2595.81687,0.00793
2593.75670,0.00797
2591.69652,0.00819
2589.63635,0.00822
2587.57618,0.00811
2585.51601,0.00814
2583.45583,0.00829
2581.39566,0.00828
2579.33549,0.00817
2577.27532,0.00821
2575.21515,0.00832
2573.15497,0.00835
2571.09480,0.00829
2569.03463,0.00829
2566.97446,0.00835
2564.91429,0.00811
2562.85411,0.00766
2560.79394,0.00734
2558.73377,0.00721
2556.67360,0.00734
2554.61342,0.00743
2552.55325,0.00719
2550.49308,0.00692
2548.43291,0.00704
2546.37274,0.00747
2544.31256,0.00787
2542.25239,0.00827
2540.19222,0.00863
2538.13205,0.00852
2536.07188,0.00816
2534.01170,0.00805
2531.95153,0.00805
2529.89136,0.00792
2527.83119,0.00770
2525.77102,0.00748
2523.71084,0.00742
2521.65067,0.00735
2519.59050,0.00714
2517.53033,0.00713
2515.47015,0.00723
2513.40998,0.00726
2511.34981,0.00756
2509.28964,0.00804
2507.22947,0.00834
2505.16929,0.00831
2503.10912,0.00799
2501.04895,0.00787
2498.98878,0.00823
2496.92861,0.00831
2494.86843,0.00777
2492.80826,0.00742
2490.74809,0.00762
2488.68792,0.00783
2486.62775,0.00800
2484.56757,0.00830
2482.50740,0.00845
2480.44723,0.00843
2478.38706,0.00849
2476.32688,0.00854
2474.26671,0.00843
2472.20654,0.00817
2470.14637,0.00792
2468.08620,0.00796
2466.02602,0.00819
2463.96585,0.00842
2461.90568,0.00863
2459.84551,0.00868
2457.78534,0.00851
2455.72516,0.00831
2453.66499,0.00814
2451.60482,0.00819
2449.54465,0.00849
2447.48447,0.00858
2445.42430,0.00845
2443.36413,0.00832
2441.30396,0.00805
2439.24379,0.00776
2437.18361,0.00749
2435.12344,0.00720
2433.06327,0.00723
2431.00310,0.00761
2428.94293,0.00794
2426.88275,0.00809
2424.82258,0.00826
2422.76241,0.00838
2420.70224,0.00821
2418.64207,0.00791
2416.58189,0.00796
2414.52172,0.00840
2412.46155,0.00877
2410.40138,0.00888
2408.34120,0.00879
2406.28103,0.00858
2404.22086,0.00822
2402.16069,0.00788
2400.10052,0.00798
2398.04034,0.00825
2395.98017,0.00852
2393.92000,0.00856
2391.85983,0.00841
2389.79966,0.00830
2387.73948,0.00840
2385.67931,0.00854
2383.61914,0.00856
2381.55897,0.00856
2379.49880,0.00887
2377.43862,0.00946
2375.37845,0.01031
2373.31828,0.01051
2371.25811,0.01017
2369.19793,0.01053
2367.13776,0.01069
2365.07759,0.00890
2363.01742,0.00671
2360.95725,0.00405
2358.89707,0.00612
2356.83690,0.01047
2354.77673,0.01312
2352.71656,0.01229
2350.65639,0.00741
2348.59621,0.00515
2346.53604,0.01108
2344.47587,0.01267
2342.41570,0.01195
2340.35552,0.01167
2338.29535,0.01111
2336.23518,0.01059
2334.17501,0.00991
2332.11484,0.00989
2330.05466,0.00992
2327.99449,0.01035
2325.93432,0.00964
2323.87415,0.00970
2321.81398,0.00971
2319.75380,0.01025
2317.69363,0.00949
2315.63346,0.00907
2313.57329,0.00924
2311.51312,0.00945
2309.45294,0.00963
2307.39277,0.00959
2305.33260,0.00938
2303.27243,0.00903
2301.21225,0.00902
2299.15208,0.00912
2297.09191,0.00933
2295.03174,0.00964
2292.97157,0.00968
2290.91139,0.00957
2288.85122,0.00963
2286.79105,0.00958
2284.73088,0.00909
2282.67071,0.00837
2280.61053,0.00794
2278.55036,0.00798
2276.49019,0.00845
2274.43002,0.00916
2272.36984,0.00959
2270.30967,0.00953
2268.24950,0.00925
2266.18933,0.00858
2264.12916,0.00770
2262.06898,0.00754
2260.00881,0.00787
2257.94864,0.00773
2255.88847,0.00764
2253.82830,0.00798
2251.76812,0.00781
2249.70795,0.00717
2247.64778,0.00738
2245.58761,0.00806
2243.52744,0.00813
2241.46726,0.00783
2239.40709,0.00767
2237.34692,0.00769
2235.28675,0.00778
2233.22657,0.00798
2231.16640,0.00820
2229.10623,0.00793
2227.04606,0.00743
2224.98589,0.00764
2222.92571,0.00828
2220.86554,0.00844
2218.80537,0.00816
2216.74520,0.00783
2214.68503,0.00728
2212.62485,0.00669
2210.56468,0.00627
2208.50451,0.00600
2206.44434,0.00636
2204.38417,0.00710
2202.32399,0.00688
2200.26382,0.00596
2198.20365,0.00598
2196.14348,0.00671
2194.08330,0.00719
2192.02313,0.00784
2189.96296,0.00849
2187.90279,0.00803
2185.84262,0.00705
2183.78244,0.00699
2181.72227,0.00740
2179.66210,0.00733
2177.60193,0.00722
2175.54176,0.00785
2173.48158,0.00894
2171.42141,0.00927
2169.36124,0.00832
2167.30107,0.00769
2165.24089,0.00789
2163.18072,0.00700
2161.12055,0.00513
2159.06038,0.00305
2157.00021,0.00071
2154.94003,0.00088
2152.87986,0.00400
2150.81969,0.00589
2148.75952,0.00540
2146.69935,0.00466
2144.63917,0.00465
2142.57900,0.00509
2140.51883,0.00558
2138.45866,0.00587
2136.39849,0.00559
2134.33831,0.00505
2132.27814,0.00501
2130.21797,0.00553
2128.15780,0.00632
2126.09762,0.00693
2124.03745,0.00701
2121.97728,0.00700
2119.91711,0.00720
2117.85694,0.00693
2115.79676,0.00627
2113.73659,0.00626
2111.67642,0.00679
2109.61625,0.00701
2107.55608,0.00691
2105.49590,0.00699
2103.43573,0.00754
2101.37556,0.00802
2099.31539,0.00793
2097.25521,0.00757
2095.19504,0.00724
2093.13487,0.00702
2091.07470,0.00716
2089.01453,0.00741
2086.95435,0.00696
2084.89418,0.00605
2082.83401,0.00595
2080.77384,0.00628
2078.71367,0.00611
2076.65349,0.00588
2074.59332,0.00579
2072.53315,0.00563
2070.47298,0.00537
2068.41281,0.00520
2066.35263,0.00572
2064.29246,0.00636
2062.23229,0.00590
2060.17212,0.00493
2058.11194,0.00477
2056.05177,0.00537
2053.99160,0.00559
2051.93143,0.00482
2049.87126,0.00390
2047.81108,0.00407
2045.75091,0.00469
2043.69074,0.00431
2041.63057,0.00382
2039.57040,0.00468
2037.51022,0.00607
2035.45005,0.00653
2033.38988,0.00587
2031.32971,0.00497
2029.26954,0.00474
2027.20936,0.00515
2025.14919,0.00551
2023.08902,0.00555
2021.02885,0.00519
2018.96867,0.00432
2016.90850,0.00338
2014.84833,0.00284
2012.78816,0.00284
2010.72799,0.00391
2008.66781,0.00506
2006.60764,0.00437
2004.54747,0.00272
2002.48730,0.00217
2000.42713,0.00319
1998.36695,0.00466
1996.30678,0.00527
1994.24661,0.00481
1992.18644,0.00416
1990.12626,0.00431
1988.06609,0.00496
1986.00592,0.00538
1983.94575,0.00555
1981.88558,0.00548
1979.82540,0.00514
1977.76523,0.00527
1975.70506,0.00521
1973.64489,0.00391
1971.58472,0.00384
1969.52454,0.00568
1967.46437,0.00645
1965.40420,0.00570
1963.34403,0.00538
1961.28386,0.00551
1959.22368,0.00501
1957.16351,0.00396
1955.10334,0.00342
1953.04317,0.00381
1950.98299,0.00424
1948.92282,0.00436
1946.86265,0.00454
1944.80248,0.00465
1942.74231,0.00447
1940.68213,0.00430
1938.62196,0.00429
1936.56179,0.00418
1934.50162,0.00427
1932.44145,0.00448
1930.38127,0.00429
1928.32110,0.00420
1926.26093,0.00426
1924.20076,0.00397
1922.14059,0.00400
1920.08041,0.00457
1918.02024,0.00484
1915.96007,0.00485
1913.89990,0.00495
1911.83972,0.00467
1909.77955,0.00399
1907.71938,0.00357
1905.65921,0.00350
1903.59904,0.00366
1901.53886,0.00394
1899.47869,0.00409
1897.41852,0.00405
1895.35835,0.00386
1893.29818,0.00368
1891.23800,0.00390
1889.17783,0.00440
1887.11766,0.00459
1885.05749,0.00426
1882.99731,0.00381
1880.93714,0.00364
1878.87697,0.00380
1876.81680,0.00398
1874.75663,0.00387
1872.69645,0.00361
1870.63628,0.00373
1868.57611,0.00437
1866.51594,0.00482
1864.45577,0.00441
1862.39559,0.00362
1860.33542,0.00331
1858.27525,0.00371
1856.21508,0.00416
1854.15491,0.00409
1852.09473,0.00373
1850.03456,0.00343
1847.97439,0.00336
1845.91422,0.00359
1843.85404,0.00383
1841.79387,0.00381
1839.73370,0.00370
1837.67353,0.00375
1835.61336,0.00400
1833.55318,0.00438
1831.49301,0.00462
1829.43284,0.00435
1827.37267,0.00374
1825.31250,0.00337
1823.25232,0.00330
1821.19215,0.00328
1819.13198,0.00333
1817.07181,0.00335
1815.01163,0.00330
1812.95146,0.00350
1810.89129,0.00379
1808.83112,0.00385
1806.77095,0.00387
1804.71077,0.00406
1802.65060,0.00424
1800.59043,0.00437
1798.53026,0.00440
1796.47009,0.00426
1794.40991,0.00418
1792.34974,0.00433
1790.28957,0.00447
1788.22940,0.00428
1786.16923,0.00395
1784.10905,0.00387
1782.04888,0.00408
1779.98871,0.00421
1777.92854,0.00410
1775.86836,0.00404
1773.80819,0.00425
1771.74802,0.00456
1769.68785,0.00467
1767.62768,0.00450
1765.56750,0.00431
1763.50733,0.00442
1761.44716,0.00468
1759.38699,0.00479
1757.32682,0.00481
1755.26664,0.00486
1753.20647,0.00499
1751.14630,0.00520
1749.08613,0.00546
1747.02596,0.00578
1744.96578,0.00606
1742.90561,0.00607
1740.84544,0.00580
1738.78527,0.00562
1736.72509,0.00586
1734.66492,0.00628
1732.60475,0.00623
1730.54458,0.00567
1728.48441,0.00524
1726.42423,0.00517
1724.36406,0.00527
1722.30389,0.00543
1720.24372,0.00562
1718.18355,0.00581
1716.12337,0.00584
1714.06320,0.00572
1712.00303,0.00571
1709.94286,0.00584
1707.88268,0.00597
1705.82251,0.00613
1703.76234,0.00638
1701.70217,0.00664
1699.64200,0.00699
1697.58182,0.00750
1695.52165,0.00792
1693.46148,0.00825
1691.40131,0.00876
1689.34114,0.00939
1687.28096,0.00994
1685.22079,0.01041
1683.16062,0.01075
1681.10045,0.01101
1679.04028,0.01130
1676.98010,0.01161
1674.91993,0.01198
1672.85976,0.01253
1670.79959,0.01319
1668.73941,0.01354
1666.67924,0.01363
1664.61907,0.01394
1662.55890,0.01447
1660.49873,0.01484
1658.43855,0.01511
1656.37838,0.01552
1654.31821,0.01582
1652.25804,0.01569
1650.19787,0.01564
1648.13769,0.01588
1646.07752,0.01589
1644.01735,0.01559
1641.95718,0.01544
1639.89701,0.01557
1637.83683,0.01562
1635.77666,0.01513
1633.71649,0.01443
1631.65632,0.01413
1629.59614,0.01403
1627.53597,0.01381
1625.47580,0.01350
1623.41563,0.01315
1621.35546,0.01274
1619.29528,0.01237
1617.23511,0.01196
1615.17494,0.01149
1613.11477,0.01123
1611.05460,0.01119
1608.99442,0.01107
1606.93425,0.01077
1604.87408,0.01039
1602.81391,0.01007
1600.75373,0.00992
1598.69356,0.00990
1596.63339,0.00979
1594.57322,0.00952
1592.51305,0.00925
1590.45287,0.00909
1588.39270,0.00895
1586.33253,0.00875
1584.27236,0.00859
1582.21219,0.00852
1580.15201,0.00855
1578.09184,0.00864
1576.03167,0.00863
1573.97150,0.00841
1571.91133,0.00823
1569.85115,0.00817
1567.79098,0.00811
1565.73081,0.00805
1563.67064,0.00816
1561.61046,0.00855
1559.55029,0.00902
1557.49012,0.00908
1555.42995,0.00887
1553.36978,0.00868
1551.30960,0.00853
1549.24943,0.00840
1547.18926,0.00842
1545.12909,0.00878
1543.06892,0.00935
1541.00874,0.00932
1538.94857,0.00835
1536.88840,0.00763
1534.82823,0.00752
1532.76805,0.00744
1530.70788,0.00724
1528.64771,0.00726
1526.58754,0.00758
1524.52737,0.00796
1522.46719,0.00803
1520.40702,0.00763
1518.34685,0.00727
1516.28668,0.00705
1514.22651,0.00676
1512.16633,0.00675
1510.10616,0.00728
1508.04599,0.00767
1505.98582,0.00694
1503.92565,0.00596
1501.86547,0.00567
1499.80530,0.00569
1497.74513,0.00556
1495.68496,0.00526
1493.62478,0.00507
1491.56461,0.00508
1489.50444,0.00504
1487.44427,0.00476
1485.38410,0.00454
1483.32392,0.00463
1481.26375,0.00481
1479.20358,0.00489
1477.14341,0.00504
1475.08324,0.00540
1473.02306,0.00561
1470.96289,0.00541
1468.90272,0.00515
1466.84255,0.00524
1464.78238,0.00553
1462.72220,0.00574
1460.66203,0.00602
1458.60186,0.00635
1456.54169,0.00608
1454.48151,0.00532
1452.42134,0.00494
1450.36117,0.00502
1448.30100,0.00517
1446.24083,0.00518
1444.18065,0.00517
1442.12048,0.00527
1440.06031,0.00537
1438.00014,0.00542
1435.93997,0.00546
1433.87979,0.00552
1431.81962,0.00551
1429.75945,0.00537
1427.69928,0.00518
1425.63910,0.00522
1423.57893,0.00553
1421.51876,0.00590
1419.45859,0.00606
1417.39842,0.00581
1415.33824,0.00539
1413.27807,0.00529
1411.21790,0.00542
1409.15773,0.00545
1407.09756,0.00538
1405.03738,0.00534
1402.97721,0.00532
1400.91704,0.00546
1398.85687,0.00566
1396.79670,0.00562
1394.73652,0.00532
1392.67635,0.00500
1390.61618,0.00488
1388.55601,0.00487
1386.49583,0.00480
1384.43566,0.00462
1382.37549,0.00448
1380.31532,0.00448
1378.25515,0.00459
1376.19497,0.00467
1374.13480,0.00456
1372.07463,0.00437
1370.01446,0.00436
1367.95429,0.00452
1365.89411,0.00466
1363.83394,0.00465
1361.77377,0.00440
1359.71360,0.00408
1357.65343,0.00392
1355.59325,0.00389
1353.53308,0.00379
1351.47291,0.00357
1349.41274,0.00336
1347.35256,0.00329
1345.29239,0.00335
1343.23222,0.00347
1341.17205,0.00365
1339.11188,0.00378
1337.05170,0.00371
1334.99153,0.00353
1332.93136,0.00341
1330.87119,0.00338
1328.81102,0.00340
1326.75084,0.00343
1324.69067,0.00348
1322.63050,0.00355
1320.57033,0.00360
1318.51015,0.00362
1316.44998,0.00357
1314.38981,0.00347
1312.32964,0.00343
1310.26947,0.00354
1308.20929,0.00369
1306.14912,0.00376
1304.08895,0.00377
1302.02878,0.00378
1299.96861,0.00382
1297.90843,0.00386
1295.84826,0.00383
1293.78809,0.00376
1291.72792,0.00386
1289.66775,0.00406
1287.60757,0.00416
1285.54740,0.00412
1283.48723,0.00397
1281.42706,0.00379
1279.36688,0.00372
1277.30671,0.00371
1275.24654,0.00370
1273.18637,0.00371
1271.12620,0.00379
1269.06602,0.00386
1267.00585,0.00379
1264.94568,0.00371
1262.88551,0.00376
1260.82534,0.00385
1258.76516,0.00384
1256.70499,0.00373
1254.64482,0.00369
1252.58465,0.00375
1250.52447,0.00371
1248.46430,0.00357
1246.40413,0.00351
1244.34396,0.00352
1242.28379,0.00343
1240.22361,0.00318
1238.16344,0.00302
1236.10327,0.00307
1234.04310,0.00308
1231.98293,0.00297
1229.92275,0.00292
1227.86258,0.00283
1225.80241,0.00260
1223.74224,0.00240
1221.68207,0.00230
1219.62189,0.00228
1217.56172,0.00225
1215.50155,0.00214
1213.44138,0.00198
1211.38120,0.00187
1209.32103,0.00186
1207.26086,0.00192
1205.20069,0.00181
1203.14052,0.00144
1201.08034,0.00118
1199.02017,0.00129
1196.96000,0.00144
1194.89983,0.00130
1192.83966,0.00109
1190.77948,0.00112
1188.71931,0.00127
1186.65914,0.00129
1184.59897,0.00131
1182.53880,0.00150
1180.47862,0.00178
1178.41845,0.00189
1176.35828,0.00180
1174.29811,0.00170
1172.23793,0.00177
1170.17776,0.00206
1168.11759,0.00251
1166.05742,0.00289
1163.99725,0.00305
1161.93707,0.00304
1159.87690,0.00312
1157.81673,0.00354
1155.75656,0.00406
1153.69639,0.00441
1151.63621,0.00469
1149.57604,0.00492
1147.51587,0.00500
1145.45570,0.00501
1143.39552,0.00522
1141.33535,0.00576
1139.27518,0.00638
1137.21501,0.00681
1135.15484,0.00729
1133.09466,0.00812
1131.03449,0.00896
1128.97432,0.00929
1126.91415,0.00940
1124.85398,0.00979
1122.79380,0.01037
1120.73363,0.01110
1118.67346,0.01198
1116.61329,0.01264
1114.55312,0.01307
1112.49294,0.01373
1110.43277,0.01447
1108.37260,0.01491
1106.31243,0.01522
1104.25225,0.01583
1102.19208,0.01681
1100.13191,0.01776
1098.07174,0.01842
1096.01157,0.01889
1093.95139,0.01918
1091.89122,0.01944
1089.83105,0.01992
1087.77088,0.02051
1085.71071,0.02101
1083.65053,0.02140
1081.59036,0.02173
1079.53019,0.02208
1077.47002,0.02251
1075.40985,0.02289
1073.34967,0.02306
1071.28950,0.02321
1069.22933,0.02351
1067.16916,0.02387
1065.10898,0.02402
1063.04881,0.02397
1060.98864,0.02384
1058.92847,0.02369
1056.86830,0.02361
1054.80812,0.02338
1052.74795,0.02287
1050.68778,0.02229
1048.62761,0.02184
1046.56744,0.02145
1044.50726,0.02080
1042.44709,0.01992
1040.38692,0.01924
1038.32675,0.01884
1036.26657,0.01835
1034.20640,0.01761
1032.14623,0.01671
1030.08606,0.01586
1028.02589,0.01531
1025.96571,0.01492
1023.90554,0.01435
1021.84537,0.01375
1019.78520,0.01331
1017.72503,0.01299
1015.66485,0.01280
1013.60468,0.01256
1011.54451,0.01225
1009.48434,0.01207
1007.42417,0.01210
1005.36399,0.01231
1003.30382,0.01261
1001.24365,0.01288
999.18348,0.01312
997.12330,0.01335
995.06313,0.01364
993.00296,0.01432
990.94279,0.01516
988.88262,0.01558
986.82244,0.01573
984.76227,0.01607
982.70210,0.01652
980.64193,0.01683
978.58176,0.01680
976.52158,0.01636
974.46141,0.01575
972.40124,0.01540
970.34107,0.01528
968.28089,0.01486
966.22072,0.01423
964.16055,0.01376
962.10038,0.01345
960.04021,0.01318
957.98003,0.01295
955.91986,0.01271
953.85969,0.01219
951.79952,0.01142
949.73935,0.01090
947.67917,0.01069
945.61900,0.01029
943.55883,0.00963
941.49866,0.00889
939.43849,0.00825
937.37831,0.00791
935.31814,0.00775
933.25797,0.00747
931.19780,0.00720
929.13762,0.00723
927.07745,0.00739
925.01728,0.00751
922.95711,0.00750
920.89694,0.00720
918.83676,0.00693
916.77659,0.00697
914.71642,0.00721
912.65625,0.00731
910.59608,0.00728
908.53590,0.00739
906.47573,0.00745
904.41556,0.00741
902.35539,0.00763
900.29522,0.00788
898.23504,0.00785
896.17487,0.00758
894.11470,0.00742
892.05453,0.00769
889.99435,0.00825
887.93418,0.00881
885.87401,0.00915
883.81384,0.00934
881.75367,0.00958
879.69349,0.00971
877.63332,0.00976
875.57315,0.01002
873.51298,0.01025
871.45281,0.01023
869.39263,0.01058
867.33246,0.01122
865.27229,0.01131
863.21212,0.01098
861.15194,0.01080
859.09177,0.01113
857.03160,0.01167
854.97143,0.01181
852.91126,0.01160
850.85108,0.01119
848.79091,0.01069
846.73074,0.01030
844.67057,0.00981
842.61040,0.00931
840.55022,0.00915
838.49005,0.00901
836.42988,0.00847
834.36971,0.00792
832.30954,0.00784
830.24936,0.00780
828.18919,0.00700
826.12902,0.00581
824.06885,0.00536
822.00867,0.00540
819.94850,0.00524
817.88833,0.00492
815.82816,0.00476
813.76799,0.00507
811.70781,0.00577
809.64764,0.00632
807.58747,0.00625
805.52730,0.00576
803.46713,0.00546
801.40695,0.00551
799.34678,0.00564
797.28661,0.00536
795.22644,0.00496
793.16627,0.00516
791.10609,0.00557
789.04592,0.00576
786.98575,0.00626
784.92558,0.00690
782.86540,0.00702
780.80523,0.00682
778.74506,0.00682
776.68489,0.00703
774.62472,0.00695
772.56454,0.00671
770.50437,0.00645
768.44420,0.00639
766.38403,0.00686
764.32386,0.00731
762.26368,0.00742
760.20351,0.00717
758.14334,0.00688
756.08317,0.00702
754.02299,0.00742
751.96282,0.00796
749.90265,0.00839
747.84248,0.00846
745.78231,0.00834
743.72213,0.00794
741.66196,0.00757
739.60179,0.00765
737.54162,0.00783
735.48145,0.00777
733.42127,0.00748
731.36110,0.00714
729.30093,0.00705
727.24076,0.00744
725.18059,0.00800
723.12041,0.00791
721.06024,0.00814
719.00007,0.00751
716.93990,0.00701
714.87972,0.00701
712.81955,0.00718
710.75938,0.00747
708.69921,0.00778
706.63904,0.00780
704.57886,0.00742
702.51869,0.00711
700.45852,0.00697
698.39835,0.00676
696.33818,0.00662
694.27800,0.00663
692.21783,0.00641
690.15766,0.00554
688.09749,0.00412
686.03731,0.00309
683.97714,0.00317
681.91697,0.00357
679.85680,0.00333
677.79663,0.00306
675.73645,0.00350
673.67628,0.00312
671.61611,0.00129
669.55594,0.00659
667.49577,0.01262
665.43559,0.00101
663.37542,0.00192
661.31525,0.00462
659.25508,0.00410
657.19491,0.00225
655.13473,0.00137
653.07456,0.00223
651.01439,0.00380
648.95422,0.00488
646.89404,0.00463
644.83387,0.00426
642.77370,0.00406
640.71353,0.00381
638.65336,0.00345
636.59318,0.00354
634.53301,0.00400
632.47284,0.00343
630.41267,0.00170
628.35250,0.00131
626.29232,0.00340
624.23215,0.00497
622.17198,0.00496
620.11181,0.00534
618.05164,0.00523
615.99146,0.00372
613.93129,0.00253
611.87112,0.00189
609.81095,0.00111
607.75077,0.00049
605.69060,0.00000
603.63043,-0.00028
601.57026,-0.00004
599.51009,0.00000
