3996.73391,0.00026
3994.67373,0.00033
3992.61356,0.00031
3990.55339,0.00016
3988.49322,0.00000
3986.43305,0.00020
3984.37287,0.00055
3982.31270,0.00072
3980.25253,0.00102
3978.19236,0.00143
3976.13219,0.00135
3974.07201,0.00092
3972.01184,0.00064
3969.95167,0.00053
3967.89150,0.00053
3965.83133,0.00070
3963.77115,0.00084
3961.71098,0.00072
3959.65081,0.00042
3957.59064,0.00024
3955.53046,0.00035
3953.47029,0.00056
3951.41012,0.00069
3949.34995,0.00091
3947.28978,0.00108
3945.22960,0.00097
3943.16943,0.00075
3941.10926,0.00058
3939.04909,0.00054
3936.98892,0.00068
3934.92874,0.00081
3932.86857,0.00077
3930.80840,0.00083
3928.74823,0.00110
3926.68805,0.00140
3924.62788,0.00160
3922.56771,0.00145
3920.50754,0.00078
3918.44737,0.00008
3916.38719,0.00001
3914.32702,0.00049
3912.26685,0.00091
3910.20668,0.00101
3908.14651,0.00100
3906.08633,0.00110
3904.02616,0.00119
3901.96599,0.00110
3899.90582,0.00103
3897.84565,0.00105
3895.78547,0.00088
3893.72530,0.00059
3891.66513,0.00039
3889.60496,0.00023
3887.54478,0.00023
3885.48461,0.00060
3883.42444,0.00114
3881.36427,0.00151
3879.30410,0.00141
3877.24392,0.00095
3875.18375,0.00064
3873.12358,0.00084
3871.06341,0.00140
3869.00324,0.00167
3866.94306,0.00153
3864.88289,0.00156
3862.82272,0.00186
3860.76255,0.00196
3858.70237,0.00186
3856.64220,0.00175
3854.58203,0.00167
3852.52186,0.00155
3850.46169,0.00118
3848.40151,0.00068
3846.34134,0.00040
3844.28117,0.00063
3842.22100,0.00129
3840.16083,0.00180
3838.10065,0.00169
3836.04048,0.00131
3833.98031,0.00111
3831.92014,0.00107
3829.85997,0.00096
3827.79979,0.00090
3825.73962,0.00118
3823.67945,0.00181
3821.61928,0.00229
3819.55910,0.00199
3817.49893,0.00116
3815.43876,0.00066
3813.37859,0.00072
3811.31842,0.00092
3809.25824,0.00102
3807.19807,0.00109
3805.13790,0.00116
3803.07773,0.00119
3801.01756,0.00122
3798.95738,0.00118
3796.89721,0.00110
3794.83704,0.00107
3792.77687,0.00117
3790.71670,0.00141
3788.65652,0.00160
3786.59635,0.00151
3784.53618,0.00132
3782.47601,0.00119
3780.41583,0.00099
3778.35566,0.00081
3776.29549,0.00089
3774.23532,0.00129
3772.17515,0.00182
3770.11497,0.00218
3768.05480,0.00218
3765.99463,0.00184
3763.93446,0.00129
3761.87429,0.00090
3759.81411,0.00101
3757.75394,0.00144
3755.69377,0.00194
3753.63360,0.00232
3751.57342,0.00224
3749.51325,0.00181
3747.45308,0.00160
3745.39291,0.00158
3743.33274,0.00157
3741.27256,0.00171
3739.21239,0.00222
3737.15222,0.00291
3735.09205,0.00296
3733.03188,0.00211
3730.97170,0.00151
3728.91153,0.00164
3726.85136,0.00183
3724.79119,0.00150
3722.73102,0.00104
3720.67084,0.00111
3718.61067,0.00137
3716.55050,0.00141
3714.49033,0.00117
3712.43015,0.00083
3710.36998,0.00084
3708.30981,0.00110
3706.24964,0.00145
3704.18947,0.00175
3702.12929,0.00198
3700.06912,0.00200
3698.00895,0.00178
3695.94878,0.00167
3693.88861,0.00181
3691.82843,0.00217
3689.76826,0.00238
3687.70809,0.00211
3685.64792,0.00176
3683.58775,0.00175
3681.52757,0.00192
3679.46740,0.00210
3677.40723,0.00209
3675.34706,0.00192
3673.28688,0.00179
3671.22671,0.00179
3669.16654,0.00214
3667.10637,0.00265
3665.04620,0.00289
3662.98602,0.00279
3660.92585,0.00246
3658.86568,0.00206
3656.80551,0.00187
3654.74534,0.00195
3652.68516,0.00209
3650.62499,0.00262
3648.56482,0.00376
3646.50465,0.00445
3644.44447,0.00430
3642.38430,0.00392
3640.32413,0.00360
3638.26396,0.00347
3636.20379,0.00384
3634.14361,0.00466
3632.08344,0.00546
3630.02327,0.00576
3627.96310,0.00559
3625.90293,0.00538
3623.84275,0.00547
3621.78258,0.00562
3619.72241,0.00557
3617.66224,0.00564
3615.60207,0.00617
3613.54189,0.00685
3611.48172,0.00717
3609.42155,0.00741
3607.36138,0.00785
3605.30120,0.00820
3603.24103,0.00818
3601.18086,0.00777
3599.12069,0.00736
3597.06052,0.00717
3595.00034,0.00723
3592.94017,0.00743
3590.88000,0.00777
3588.81983,0.00809
3586.75966,0.00823
3584.69948,0.00825
3582.63931,0.00852
3580.57914,0.00893
3578.51897,0.00897
3576.45879,0.00875
3574.39862,0.00873
3572.33845,0.00895
3570.27828,0.00928
3568.21811,0.00959
3566.15793,0.00967
3564.09776,0.00968
3562.03759,0.00994
3559.97742,0.01041
3557.91725,0.01072
3555.85707,0.01072
3553.79690,0.01074
3551.73673,0.01099
3549.67656,0.01134
3547.61639,0.01167
3545.55621,0.01189
3543.49604,0.01183
3541.43587,0.01161
3539.37570,0.01178
3537.31552,0.01238
3535.25535,0.01275
3533.19518,0.01267
3531.13501,0.01267
3529.07484,0.01299
3527.01466,0.01347
3524.95449,0.01383
3522.89432,0.01384
3520.83415,0.01360
3518.77398,0.01332
3516.71380,0.01315
3514.65363,0.01323
3512.59346,0.01376
3510.53329,0.01457
3508.47312,0.01510
3506.41294,0.01511
3504.35277,0.01486
3502.29260,0.01479
3500.23243,0.01506
3498.17225,0.01530
3496.11208,0.01548
3494.05191,0.01566
3491.99174,0.01561
3489.93157,0.01544
3487.87139,0.01549
3485.81122,0.01584
3483.75105,0.01633
3481.69088,0.01655
3479.63071,0.01637
3477.57053,0.01620
3475.51036,0.01624
3473.45019,0.01628
3471.39002,0.01647
3469.32984,0.01705
3467.26967,0.01776
3465.20950,0.01838
3463.14933,0.01874
3461.08916,0.01856
3459.02898,0.01816
3456.96881,0.01801
3454.90864,0.01812
3452.84847,0.01835
3450.78830,0.01857
3448.72812,0.01861
3446.66795,0.01853
3444.60778,0.01859
3442.54761,0.01884
3440.48744,0.01914
3438.42726,0.01944
3436.36709,0.01967
3434.30692,0.01990
3432.24675,0.02014
3430.18657,0.02033
3428.12640,0.02039
3426.06623,0.02042
3424.00606,0.02065
3421.94589,0.02086
3419.88571,0.02085
3417.82554,0.02071
3415.76537,0.02040
3413.70520,0.02009
3411.64503,0.02009
3409.58485,0.02038
3407.52468,0.02067
3405.46451,0.02081
3403.40434,0.02095
3401.34416,0.02106
3399.28399,0.02102
3397.22382,0.02109
3395.16365,0.02128
3393.10348,0.02152
3391.04330,0.02185
3388.98313,0.02198
3386.92296,0.02188
3384.86279,0.02201
3382.80262,0.02235
3380.74244,0.02257
3378.68227,0.02258
3376.62210,0.02241
3374.56193,0.02215
3372.50176,0.02197
3370.44158,0.02201
3368.38141,0.02227
3366.32124,0.02269
3364.26107,0.02301
3362.20089,0.02296
3360.14072,0.02269
3358.08055,0.02243
3356.02038,0.02229
3353.96021,0.02239
3351.90003,0.02285
3349.83986,0.02328
3347.77969,0.02316
3345.71952,0.02282
3343.65935,0.02293
3341.59917,0.02341
3339.53900,0.02358
3337.47883,0.02322
3335.41866,0.02279
3333.35849,0.02277
3331.29831,0.02322
3329.23814,0.02372
3327.17797,0.02388
3325.11780,0.02380
3323.05762,0.02372
3320.99745,0.02363
3318.93728,0.02355
3316.87711,0.02367
3314.81694,0.02402
3312.75676,0.02415
3310.69659,0.02391
3308.63642,0.02366
3306.57625,0.02379
3304.51608,0.02422
3302.45590,0.02459
3300.39573,0.02477
3298.33556,0.02475
3296.27539,0.02465
3294.21521,0.02455
3292.15504,0.02442
3290.09487,0.02442
3288.03470,0.02460
3285.97453,0.02466
3283.91435,0.02447
3281.85418,0.02436
3279.79401,0.02433
3277.73384,0.02405
3275.67367,0.02385
3273.61349,0.02408
3271.55332,0.02438
3269.49315,0.02466
3267.43298,0.02491
3265.37281,0.02497
3263.31263,0.02495
3261.25246,0.02488
3259.19229,0.02470
3257.13212,0.02478
3255.07194,0.02505
3253.01177,0.02508
3250.95160,0.02499
3248.89143,0.02503
3246.83126,0.02511
3244.77108,0.02513
3242.71091,0.02499
3240.65074,0.02470
3238.59057,0.02464
3236.53040,0.02494
3234.47022,0.02518
3232.41005,0.02515
3230.34988,0.02510
3228.28971,0.02514
3226.22954,0.02520
3224.16936,0.02528
3222.10919,0.02521
3220.04902,0.02502
3217.98885,0.02493
3215.92867,0.02510
3213.86850,0.02526
3211.80833,0.02512
3209.74816,0.02506
3207.68799,0.02522
3205.62781,0.02524
3203.56764,0.02513
3201.50747,0.02517
3199.44730,0.02528
3197.38713,0.02513
3195.32695,0.02467
3193.26678,0.02428
3191.20661,0.02428
3189.14644,0.02442
3187.08626,0.02444
3185.02609,0.02450
3182.96592,0.02475
3180.90575,0.02501
3178.84558,0.02511
3176.78540,0.02486
3174.72523,0.02447
3172.66506,0.02447
3170.60489,0.02481
3168.54472,0.02501
3166.48454,0.02507
3164.42437,0.02509
3162.36420,0.02491
3160.30403,0.02465
3158.24386,0.02439
3156.18368,0.02407
3154.12351,0.02384
3152.06334,0.02386
3150.00317,0.02397
3147.94299,0.02414
3145.88282,0.02435
3143.82265,0.02435
3141.76248,0.02403
3139.70231,0.02362
3137.64213,0.02346
3135.58196,0.02375
3133.52179,0.02430
3131.46162,0.02449
3129.40145,0.02417
3127.34127,0.02391
3125.28110,0.02406
3123.22093,0.02423
3121.16076,0.02420
3119.10058,0.02409
3117.04041,0.02390
3114.98024,0.02375
3112.92007,0.02366
3110.85990,0.02351
3108.79972,0.02338
3106.73955,0.02343
3104.67938,0.02351
3102.61921,0.02340
3100.55904,0.02330
3098.49886,0.02328
3096.43869,0.02304
3094.37852,0.02263
3092.31835,0.02253
3090.25818,0.02269
3088.19800,0.02283
3086.13783,0.02286
3084.07766,0.02285
3082.01749,0.02290
3079.95731,0.02292
3077.89714,0.02276
3075.83697,0.02234
3073.77680,0.02188
3071.71663,0.02175
3069.65645,0.02185
3067.59628,0.02193
3065.53611,0.02189
3063.47594,0.02166
3061.41577,0.02151
3059.35559,0.02163
3057.29542,0.02171
3055.23525,0.02161
3053.17508,0.02161
3051.11491,0.02174
3049.05473,0.02180
3046.99456,0.02166
3044.93439,0.02137
3042.87422,0.02111
3040.81404,0.02104
3038.75387,0.02114
3036.69370,0.02124
3034.63353,0.02118
3032.57336,0.02098
3030.51318,0.02075
3028.45301,0.02064
3026.39284,0.02059
3024.33267,0.02053
3022.27250,0.02057
3020.21232,0.02050
3018.15215,0.02021
3016.09198,0.02013
3014.03181,0.02034
3011.97163,0.02044
3009.91146,0.02031
3007.85129,0.02013
3005.79112,0.01999
3003.73095,0.01976
3001.67077,0.01951
2999.61060,0.01955
2997.55043,0.01967
2995.49026,0.01938
2993.43009,0.01905
2991.36991,0.01904
2989.30974,0.01909
2987.24957,0.01909
2985.18940,0.01902
2983.12923,0.01879
2981.06905,0.01868
2979.00888,0.01888
2976.94871,0.01906
2974.88854,0.01915
2972.82836,0.01910
2970.76819,0.01877
2968.70802,0.01843
2966.64785,0.01840
2964.58768,0.01850
2962.52750,0.01846
2960.46733,0.01833
2958.40716,0.01833
2956.34699,0.01836
2954.28682,0.01831
2952.22664,0.01832
2950.16647,0.01841
2948.10630,0.01834
2946.04613,0.01807
2943.98596,0.01782
2941.92578,0.01784
2939.86561,0.01804
2937.80544,0.01804
2935.74527,0.01786
2933.68509,0.01771
2931.62492,0.01762
2929.56475,0.01766
2927.50458,0.01776
2925.44441,0.01784
2923.38423,0.01777
2921.32406,0.01752
2919.26389,0.01725
2917.20372,0.01711
2915.14355,0.01714
2913.08337,0.01716
2911.02320,0.01707
2908.96303,0.01694
2906.90286,0.01675
2904.84268,0.01665
2902.78251,0.01672
2900.72234,0.01664
2898.66217,0.01631
2896.60200,0.01619
2894.54182,0.01626
2892.48165,0.01608
2890.42148,0.01578
2888.36131,0.01575
2886.30114,0.01600
2884.24096,0.01616
2882.18079,0.01605
2880.12062,0.01585
2878.06045,0.01575
2876.00028,0.01574
2873.94010,0.01566
2871.87993,0.01557
2869.81976,0.01546
2867.75959,0.01534
2865.69941,0.01525
2863.63924,0.01505
2861.57907,0.01487
2859.51890,0.01484
2857.45873,0.01478
2855.39855,0.01473
2853.33838,0.01477
2851.27821,0.01488
2849.21804,0.01490
2847.15787,0.01467
2845.09769,0.01430
2843.03752,0.01408
2840.97735,0.01415
2838.91718,0.01419
2836.85700,0.01406
2834.79683,0.01403
2832.73666,0.01395
2830.67649,0.01368
2828.61632,0.01359
2826.55614,0.01375
2824.49597,0.01378
2822.43580,0.01361
2820.37563,0.01353
2818.31546,0.01348
2816.25528,0.01338
2814.19511,0.01325
2812.13494,0.01318
2810.07477,0.01316
2808.01460,0.01313
2805.95442,0.01317
2803.89425,0.01324
2801.83408,0.01329
2799.77391,0.01333
2797.71373,0.01327
2795.65356,0.01302
2793.59339,0.01273
2791.53322,0.01263
2789.47305,0.01268
2787.41287,0.01273
2785.35270,0.01273
2783.29253,0.01251
2781.23236,0.01222
2779.17219,0.01227
2777.11201,0.01251
2775.05184,0.01247
2772.99167,0.01224
2770.93150,0.01210
2768.87133,0.01214
2766.81115,0.01222
2764.75098,0.01216
2762.69081,0.01215
2760.63064,0.01238
2758.57046,0.01249
2756.51029,0.01228
2754.45012,0.01205
2752.38995,0.01204
2750.32978,0.01216
2748.26960,0.01218
2746.20943,0.01213
2744.14926,0.01212
2742.08909,0.01191
2740.02892,0.01158
2737.96874,0.01142
2735.90857,0.01135
2733.84840,0.01119
2731.78823,0.01108
2729.72805,0.01120
2727.66788,0.01137
2725.60771,0.01137
2723.54754,0.01127
2721.48737,0.01116
2719.42719,0.01100
2717.36702,0.01075
2715.30685,0.01054
2713.24668,0.01060
2711.18651,0.01080
2709.12633,0.01077
2707.06616,0.01063
2705.00599,0.01073
2702.94582,0.01085
2700.88565,0.01068
2698.82547,0.01048
2696.76530,0.01042
2694.70513,0.01028
2692.64496,0.01008
2690.58478,0.01001
2688.52461,0.01017
2686.46444,0.01036
2684.40427,0.01027
2682.34410,0.00998
2680.28392,0.00980
2678.22375,0.00990
2676.16358,0.01019
2674.10341,0.01037
2672.04324,0.01028
2669.98306,0.01006
2667.92289,0.00990
2665.86272,0.00988
2663.80255,0.00986
2661.74238,0.00974
2659.68220,0.00958
2657.62203,0.00941
2655.56186,0.00929
2653.50169,0.00916
2651.44151,0.00914
2649.38134,0.00943
2647.32117,0.00974
2645.26100,0.00990
2643.20083,0.00990
2641.14065,0.00960
2639.08048,0.00936
2637.02031,0.00939
2634.96014,0.00935
2632.89997,0.00918
2630.83979,0.00896
2628.77962,0.00880
2626.71945,0.00887
2624.65928,0.00905
2622.59910,0.00906
2620.53893,0.00887
2618.47876,0.00860
2616.41859,0.00836
2614.35842,0.00847
2612.29824,0.00893
2610.23807,0.00924
2608.17790,0.00904
2606.11773,0.00868
2604.05756,0.00852
2601.99738,0.00861
2599.93721,0.00895
2597.87704,0.00915
2595.81687,0.00901
2593.75670,0.00891
2591.69652,0.00883
2589.63635,0.00852
2587.57618,0.00832
2585.51601,0.00849
2583.45583,0.00875
2581.39566,0.00896
2579.33549,0.00905
2577.27532,0.00887
2575.21515,0.00850
2573.15497,0.00807
2571.09480,0.00790
2569.03463,0.00827
2566.97446,0.00892
2564.91429,0.00919
2562.85411,0.00893
2560.79394,0.00851
2558.73377,0.00831
2556.67360,0.00860
2554.61342,0.00906
2552.55325,0.00884
2550.49308,0.00806
2548.43291,0.00760
2546.37274,0.00773
2544.31256,0.00803
2542.25239,0.00830
2540.19222,0.00855
2538.13205,0.00867
2536.07188,0.00865
2534.01170,0.00862
2531.95153,0.00878
2529.89136,0.00902
2527.83119,0.00886
2525.77102,0.00843
2523.71084,0.00822
2521.65067,0.00811
2519.59050,0.00791
2517.53033,0.00796
2515.47015,0.00830
2513.40998,0.00871
2511.34981,0.00916
2509.28964,0.00936
2507.22947,0.00931
2505.16929,0.00925
2503.10912,0.00907
2501.04895,0.00897
2498.98878,0.00922
2496.92861,0.00923
2494.86843,0.00871
2492.80826,0.00827
2490.74809,0.00830
2488.68792,0.00865
2486.62775,0.00888
2484.56757,0.00907
2482.50740,0.00928
2480.44723,0.00924
2478.38706,0.00931
2476.32688,0.00953
2474.26671,0.00943
2472.20654,0.00924
2470.14637,0.00943
2468.08620,0.00963
2466.02602,0.00940
2463.96585,0.00925
2461.90568,0.00972
2459.84551,0.01030
2457.78534,0.01029
2455.72516,0.00996
2453.66499,0.00972
2451.60482,0.00953
2449.54465,0.00928
2447.48447,0.00909
2445.42430,0.00921
2443.36413,0.00953
2441.30396,0.00956
2439.24379,0.00944
2437.18361,0.00950
2435.12344,0.00936
2433.06327,0.00904
2431.00310,0.00919
2428.94293,0.00964
2426.88275,0.00991
2424.82258,0.01004
2422.76241,0.00995
2420.70224,0.00955
2418.64207,0.00914
2416.58189,0.00910
2414.52172,0.00950
2412.46155,0.00995
2410.40138,0.01002
2408.34120,0.00976
2406.28103,0.00949
2404.22086,0.00934
2402.16069,0.00935
2400.10052,0.00942
2398.04034,0.00934
2395.98017,0.00943
2393.92000,0.00951
2391.85983,0.00941
2389.79966,0.00942
2387.73948,0.00982
2385.67931,0.01034
2383.61914,0.01050
2381.55897,0.01038
2379.49880,0.01065
2377.43862,0.01161
2375.37845,0.01218
2373.31828,0.01217
2371.25811,0.01184
2369.19793,0.01098
2367.13776,0.01010
2365.07759,0.00927
2363.01742,0.00716
2360.95725,0.00716
2358.89707,0.00776
2356.83690,0.00918
2354.77673,0.01066
2352.71656,0.01125
2350.65639,0.01378
2348.59621,0.01547
2346.53604,0.01164
2344.47587,0.01118
2342.41570,0.01258
2340.35552,0.01368
2338.29535,0.01424
2336.23518,0.01330
2334.17501,0.01197
2332.11484,0.01146
2330.05466,0.01239
2327.99449,0.01296
2325.93432,0.01324
2323.87415,0.01205
2321.81398,0.01141
2319.75380,0.01141
2317.69363,0.01234
2315.63346,0.01225
2313.57329,0.01164
2311.51312,0.01148
2309.45294,0.01142
2307.39277,0.01132
2305.33260,0.01120
2303.27243,0.01083
2301.21225,0.01009
2299.15208,0.00992
2297.09191,0.01032
2295.03174,0.01064
2292.97157,0.01078
2290.91139,0.01089
2288.85122,0.01102
2286.79105,0.01107
2284.73088,0.01083
2282.67071,0.01022
2280.61053,0.00967
2278.55036,0.00971
2276.49019,0.01014
2274.43002,0.01043
2272.36984,0.01048
2270.30967,0.01047
2268.24950,0.01042
2266.18933,0.01014
2264.12916,0.00973
2262.06898,0.00989
2260.00881,0.01049
2257.94864,0.01072
2255.88847,0.01032
2253.82830,0.00966
2251.76812,0.00878
2249.70795,0.00800
2247.64778,0.00845
2245.58761,0.00983
2243.52744,0.01058
2241.46726,0.01028
2239.40709,0.00942
2237.34692,0.00848
2235.28675,0.00821
2233.22657,0.00873
2231.16640,0.00928
2229.10623,0.00925
2227.04606,0.00884
2224.98589,0.00866
2222.92571,0.00876
2220.86554,0.00881
2218.80537,0.00871
2216.74520,0.00892
2214.68503,0.00923
2212.62485,0.00884
2210.56468,0.00809
2208.50451,0.00766
2206.44434,0.00801
2204.38417,0.00892
2202.32399,0.00938
2200.26382,0.00937
2198.20365,0.00937
2196.14348,0.00921
2194.08330,0.00897
2192.02313,0.00875
2189.96296,0.00812
2187.90279,0.00732
2185.84262,0.00751
2183.78244,0.00880
2181.72227,0.00974
2179.66210,0.00957
2177.60193,0.00881
2175.54176,0.00725
2173.48158,0.00636
2171.42141,0.00807
2169.36124,0.00974
2167.30107,0.00956
2165.24089,0.00983
2163.18072,0.01017
2161.12055,0.00821
2159.06038,0.00444
2157.00021,0.00066
2154.94003,0.00001
2152.87986,0.00313
2150.81969,0.00605
2148.75952,0.00700
2146.69935,0.00734
2144.63917,0.00802
2142.57900,0.00820
2140.51883,0.00776
2138.45866,0.00786
2136.39849,0.00769
2134.33831,0.00701
2132.27814,0.00691
2130.21797,0.00699
2128.15780,0.00693
2126.09762,0.00726
2124.03745,0.00770
2121.97728,0.00778
2119.91711,0.00790
2117.85694,0.00813
2115.79676,0.00824
2113.73659,0.00842
2111.67642,0.00855
2109.61625,0.00854
2107.55608,0.00834
2105.49590,0.00783
2103.43573,0.00754
2101.37556,0.00802
2099.31539,0.00872
2097.25521,0.00885
2095.19504,0.00853
2093.13487,0.00833
2091.07470,0.00829
2089.01453,0.00814
2086.95435,0.00746
2084.89418,0.00670
2082.83401,0.00685
2080.77384,0.00741
2078.71367,0.00725
2076.65349,0.00698
2074.59332,0.00748
2072.53315,0.00796
2070.47298,0.00784
2068.41281,0.00758
2066.35263,0.00763
2064.29246,0.00769
2062.23229,0.00702
2060.17212,0.00616
2058.11194,0.00614
2056.05177,0.00689
2053.99160,0.00751
2051.93143,0.00700
2049.87126,0.00537
2047.81108,0.00410
2045.75091,0.00381
2043.69074,0.00345
2041.63057,0.00332
2039.57040,0.00415
2037.51022,0.00464
2035.45005,0.00448
2033.38988,0.00552
2031.32971,0.00706
2029.26954,0.00747
2027.20936,0.00777
2025.14919,0.00858
2023.08902,0.00927
2021.02885,0.00937
2018.96867,0.00816
2016.90850,0.00561
2014.84833,0.00302
2012.78816,0.00203
2010.72799,0.00352
2008.66781,0.00500
2006.60764,0.00423
2004.54747,0.00320
2002.48730,0.00359
2000.42713,0.00469
1998.36695,0.00557
1996.30678,0.00614
1994.24661,0.00625
1992.18644,0.00563
1990.12626,0.00509
1988.06609,0.00579
1986.00592,0.00743
1983.94575,0.00833
1981.88558,0.00746
1979.82540,0.00639
1977.76523,0.00683
1975.70506,0.00716
1973.64489,0.00590
1971.58472,0.00456
1969.52454,0.00471
1967.46437,0.00533
1965.40420,0.00521
1963.34403,0.00503
1961.28386,0.00527
1959.22368,0.00593
1957.16351,0.00653
1955.10334,0.00642
1953.04317,0.00567
1950.98299,0.00490
1948.92282,0.00479
1946.86265,0.00492
1944.80248,0.00472
1942.74231,0.00498
1940.68213,0.00595
1938.62196,0.00649
1936.56179,0.00588
1934.50162,0.00484
1932.44145,0.00425
1930.38127,0.00419
1928.32110,0.00461
1926.26093,0.00487
1924.20076,0.00462
1922.14059,0.00445
1920.08041,0.00449
1918.02024,0.00455
1915.96007,0.00498
1913.89990,0.00542
1911.83972,0.00518
1909.77955,0.00459
1907.71938,0.00426
1905.65921,0.00431
1903.59904,0.00474
1901.53886,0.00505
1899.47869,0.00495
1897.41852,0.00497
1895.35835,0.00515
1893.29818,0.00503
1891.23800,0.00497
1889.17783,0.00530
1887.11766,0.00555
1885.05749,0.00528
1882.99731,0.00489
1880.93714,0.00476
1878.87697,0.00476
1876.81680,0.00474
1874.75663,0.00471
1872.69645,0.00454
1870.63628,0.00441
1868.57611,0.00473
1866.51594,0.00512
1864.45577,0.00495
1862.39559,0.00443
1860.33542,0.00418
1858.27525,0.00444
1856.21508,0.00472
1854.15491,0.00452
1852.09473,0.00397
1850.03456,0.00359
1847.97439,0.00376
1845.91422,0.00420
1843.85404,0.00444
1841.79387,0.00447
1839.73370,0.00444
1837.67353,0.00443
1835.61336,0.00443
1833.55318,0.00445
1831.49301,0.00454
1829.43284,0.00454
1827.37267,0.00431
1825.31250,0.00402
1823.25232,0.00394
1821.19215,0.00417
1819.13198,0.00444
1817.07181,0.00446
1815.01163,0.00433
1812.95146,0.00433
1810.89129,0.00438
1808.83112,0.00440
1806.77095,0.00460
1804.71077,0.00484
1802.65060,0.00483
1800.59043,0.00468
1798.53026,0.00464
1796.47009,0.00469
1794.40991,0.00474
1792.34974,0.00474
1790.28957,0.00476
1788.22940,0.00484
1786.16923,0.00488
1784.10905,0.00487
1782.04888,0.00490
1779.98871,0.00487
1777.92854,0.00466
1775.86836,0.00449
1773.80819,0.00472
1771.74802,0.00520
1769.68785,0.00534
1767.62768,0.00502
1765.56750,0.00474
1763.50733,0.00479
1761.44716,0.00508
1759.38699,0.00535
1757.32682,0.00542
1755.26664,0.00536
1753.20647,0.00528
1751.14630,0.00525
1749.08613,0.00532
1747.02596,0.00546
1744.96578,0.00560
1742.90561,0.00571
1740.84544,0.00569
1738.78527,0.00561
1736.72509,0.00564
1734.66492,0.00580
1732.60475,0.00588
1730.54458,0.00578
1728.48441,0.00569
1726.42423,0.00574
1724.36406,0.00582
1722.30389,0.00600
1720.24372,0.00632
1718.18355,0.00652
1716.12337,0.00647
1714.06320,0.00644
1712.00303,0.00652
1709.94286,0.00649
1707.88268,0.00636
1705.82251,0.00653
1703.76234,0.00694
1701.70217,0.00711
1699.64200,0.00709
1697.58182,0.00726
1695.52165,0.00762
1693.46148,0.00806
1691.40131,0.00853
1689.34114,0.00900
1687.28096,0.00940
1685.22079,0.00971
1683.16062,0.00994
1681.10045,0.01004
1679.04028,0.01015
1676.98010,0.01045
1674.91993,0.01080
1672.85976,0.01102
1670.79959,0.01120
1668.73941,0.01142
1666.67924,0.01155
1664.61907,0.01166
1662.55890,0.01191
1660.49873,0.01228
1658.43855,0.01260
1656.37838,0.01280
1654.31821,0.01276
1652.25804,0.01256
1650.19787,0.01275
1648.13769,0.01309
1646.07752,0.01295
1644.01735,0.01249
1641.95718,0.01227
1639.89701,0.01237
1637.83683,0.01254
1635.77666,0.01231
1633.71649,0.01177
1631.65632,0.01149
1629.59614,0.01142
1627.53597,0.01128
1625.47580,0.01101
1623.41563,0.01059
1621.35546,0.01016
1619.29528,0.00979
1617.23511,0.00932
1615.17494,0.00898
1613.11477,0.00909
1611.05460,0.00925
1608.99442,0.00908
1606.93425,0.00878
1604.87408,0.00853
1602.81391,0.00833
1600.75373,0.00826
1598.69356,0.00827
1596.63339,0.00813
1594.57322,0.00787
1592.51305,0.00776
1590.45287,0.00776
1588.39270,0.00767
1586.33253,0.00753
1584.27236,0.00747
1582.21219,0.00736
1580.15201,0.00716
1578.09184,0.00697
1576.03167,0.00681
1573.97150,0.00676
1571.91133,0.00678
1569.85115,0.00669
1567.79098,0.00658
1565.73081,0.00661
1563.67064,0.00672
1561.61046,0.00669
1559.55029,0.00643
1557.49012,0.00625
1555.42995,0.00638
1553.36978,0.00648
1551.30960,0.00638
1549.24943,0.00615
1547.18926,0.00599
1545.12909,0.00609
1543.06892,0.00634
1541.00874,0.00638
1538.94857,0.00605
1536.88840,0.00576
1534.82823,0.00566
1532.76805,0.00553
1530.70788,0.00537
1528.64771,0.00538
1526.58754,0.00553
1524.52737,0.00565
1522.46719,0.00566
1520.40702,0.00558
1518.34685,0.00550
1516.28668,0.00531
1514.22651,0.00498
1512.16633,0.00470
1510.10616,0.00461
1508.04599,0.00461
1505.98582,0.00442
1503.92565,0.00412
1501.86547,0.00407
1499.80530,0.00421
1497.74513,0.00420
1495.68496,0.00390
1493.62478,0.00366
1491.56461,0.00373
1489.50444,0.00388
1487.44427,0.00376
1485.38410,0.00354
1483.32392,0.00353
1481.26375,0.00360
1479.20358,0.00351
1477.14341,0.00340
1475.08324,0.00343
1473.02306,0.00350
1470.96289,0.00351
1468.90272,0.00349
1466.84255,0.00352
1464.78238,0.00363
1462.72220,0.00386
1460.66203,0.00422
1458.60186,0.00441
1456.54169,0.00394
1454.48151,0.00328
1452.42134,0.00308
1450.36117,0.00319
1448.30100,0.00338
1446.24083,0.00351
1444.18065,0.00353
1442.12048,0.00346
1440.06031,0.00329
1438.00014,0.00310
1435.93997,0.00310
1433.87979,0.00325
1431.81962,0.00327
1429.75945,0.00309
1427.69928,0.00291
1425.63910,0.00290
1423.57893,0.00306
1421.51876,0.00333
1419.45859,0.00359
1417.39842,0.00360
1415.33824,0.00340
1413.27807,0.00337
1411.21790,0.00355
1409.15773,0.00361
1407.09756,0.00348
1405.03738,0.00340
1402.97721,0.00340
1400.91704,0.00346
1398.85687,0.00352
1396.79670,0.00349
1394.73652,0.00324
1392.67635,0.00287
1390.61618,0.00272
1388.55601,0.00275
1386.49583,0.00269
1384.43566,0.00261
1382.37549,0.00266
1380.31532,0.00273
1378.25515,0.00270
1376.19497,0.00262
1374.13480,0.00253
1372.07463,0.00244
1370.01446,0.00246
1367.95429,0.00256
1365.89411,0.00265
1363.83394,0.00268
1361.77377,0.00264
1359.71360,0.00255
1357.65343,0.00243
1355.59325,0.00232
1353.53308,0.00224
1351.47291,0.00216
1349.41274,0.00207
1347.35256,0.00204
1345.29239,0.00200
1343.23222,0.00187
1341.17205,0.00181
1339.11188,0.00196
1337.05170,0.00206
1334.99153,0.00199
1332.93136,0.00186
1330.87119,0.00175
1328.81102,0.00176
1326.75084,0.00189
1324.69067,0.00201
1322.63050,0.00205
1320.57033,0.00197
1318.51015,0.00180
1316.44998,0.00167
1314.38981,0.00174
1312.32964,0.00196
1310.26947,0.00218
1308.20929,0.00230
1306.14912,0.00228
1304.08895,0.00214
1302.02878,0.00202
1299.96861,0.00204
1297.90843,0.00213
1295.84826,0.00220
1293.78809,0.00230
1291.72792,0.00245
1289.66775,0.00255
1287.60757,0.00255
1285.54740,0.00244
1283.48723,0.00232
1281.42706,0.00225
1279.36688,0.00215
1277.30671,0.00215
1275.24654,0.00234
1273.18637,0.00251
1271.12620,0.00253
1269.06602,0.00245
1267.00585,0.00232
1264.94568,0.00217
1262.88551,0.00214
1260.82534,0.00226
1258.76516,0.00242
1256.70499,0.00251
1254.64482,0.00251
1252.58465,0.00244
1250.52447,0.00231
1248.46430,0.00222
1246.40413,0.00226
1244.34396,0.00226
1242.28379,0.00211
1240.22361,0.00192
1238.16344,0.00187
1236.10327,0.00192
1234.04310,0.00189
1231.98293,0.00170
1229.92275,0.00158
1227.86258,0.00151
1225.80241,0.00135
1223.74224,0.00116
1221.68207,0.00101
1219.62189,0.00089
1217.56172,0.00077
1215.50155,0.00066
1213.44138,0.00062
1211.38120,0.00071
1209.32103,0.00087
1207.26086,0.00100
1205.20069,0.00098
1203.14052,0.00074
1201.08034,0.00041
1199.02017,0.00022
1196.96000,0.00020
1194.89983,0.00013
1192.83966,0.00002
1190.77948,0.00000
1188.71931,0.00008
1186.65914,0.00019
1184.59897,0.00035
1182.53880,0.00048
1180.47862,0.00061
1178.41845,0.00074
1176.35828,0.00083
1174.29811,0.00079
1172.23793,0.00076
1170.17776,0.00092
1168.11759,0.00123
1166.05742,0.00149
1163.99725,0.00168
1161.93707,0.00184
1159.87690,0.00194
1157.81673,0.00209
1155.75656,0.00250
1153.69639,0.00296
1151.63621,0.00329
1149.57604,0.00363
1147.51587,0.00397
1145.45570,0.00415
1143.39552,0.00445
1141.33535,0.00508
1139.27518,0.00590
1137.21501,0.00668
1135.15484,0.00744
1133.09466,0.00830
1131.03449,0.00906
1128.97432,0.00953
1126.91415,0.00994
1124.85398,0.01059
1122.79380,0.01149
1120.73363,0.01260
1118.67346,0.01383
1116.61329,0.01470
1114.55312,0.01509
1112.49294,0.01576
1110.43277,0.01697
1108.37260,0.01809
1106.31243,0.01881
1104.25225,0.01949
1102.19208,0.02028
1100.13191,0.02101
1098.07174,0.02164
1096.01157,0.02231
1093.95139,0.02292
1091.89122,0.02339
1089.83105,0.02389
1087.77088,0.02451
1085.71071,0.02506
1083.65053,0.02544
1081.59036,0.02585
1079.53019,0.02653
1077.47002,0.02740
1075.40985,0.02807
1073.34967,0.02823
1071.28950,0.02821
1069.22933,0.02843
1067.16916,0.02873
1065.10898,0.02874
1063.04881,0.02849
1060.98864,0.02832
1058.92847,0.02828
1056.86830,0.02796
1054.80812,0.02717
1052.74795,0.02616
1050.68778,0.02511
1048.62761,0.02408
1046.56744,0.02311
1044.50726,0.02184
1042.44709,0.02019
1040.38692,0.01877
1038.32675,0.01783
1036.26657,0.01691
1034.20640,0.01573
1032.14623,0.01447
1030.08606,0.01342
1028.02589,0.01268
1025.96571,0.01198
1023.90554,0.01115
1021.84537,0.01045
1019.78520,0.01001
1017.72503,0.00980
1015.66485,0.00967
1013.60468,0.00942
1011.54451,0.00916
1009.48434,0.00924
1007.42417,0.00971
1005.36399,0.01051
1003.30382,0.01152
1001.24365,0.01227
999.18348,0.01273
997.12330,0.01316
995.06313,0.01370
993.00296,0.01468
990.94279,0.01574
988.88262,0.01640
986.82244,0.01688
984.76227,0.01728
982.70210,0.01758
980.64193,0.01791
978.58176,0.01776
976.52158,0.01702
974.46141,0.01638
972.40124,0.01606
970.34107,0.01562
968.28089,0.01485
966.22072,0.01402
964.16055,0.01341
962.10038,0.01279
960.04021,0.01198
957.98003,0.01126
955.91986,0.01068
953.85969,0.00986
951.79952,0.00878
949.73935,0.00789
947.67917,0.00729
945.61900,0.00666
943.55883,0.00608
941.49866,0.00567
939.43849,0.00530
937.37831,0.00485
935.31814,0.00411
933.25797,0.00332
931.19780,0.00277
929.13762,0.00245
927.07745,0.00232
925.01728,0.00232
922.95711,0.00232
920.89694,0.00209
918.83676,0.00164
916.77659,0.00129
914.71642,0.00124
912.65625,0.00124
910.59608,0.00107
908.53590,0.00109
906.47573,0.00150
904.41556,0.00187
902.35539,0.00190
900.29522,0.00171
898.23504,0.00157
896.17487,0.00160
894.11470,0.00194
892.05453,0.00253
889.99435,0.00299
887.93418,0.00321
885.87401,0.00350
883.81384,0.00398
881.75367,0.00445
879.69349,0.00486
877.63332,0.00520
875.57315,0.00553
873.51298,0.00576
871.45281,0.00592
869.39263,0.00626
867.33246,0.00659
865.27229,0.00665
863.21212,0.00663
861.15194,0.00681
859.09177,0.00723
857.03160,0.00770
854.97143,0.00803
852.91126,0.00816
850.85108,0.00792
848.79091,0.00729
846.73074,0.00681
844.67057,0.00665
842.61040,0.00654
840.55022,0.00632
838.49005,0.00587
836.42988,0.00533
834.36971,0.00505
832.30954,0.00529
830.24936,0.00569
828.18919,0.00536
826.12902,0.00438
824.06885,0.00369
822.00867,0.00349
819.94850,0.00349
817.88833,0.00332
815.82816,0.00269
813.76799,0.00199
811.70781,0.00205
809.64764,0.00279
807.58747,0.00308
805.52730,0.00307
803.46713,0.00345
801.40695,0.00348
799.34678,0.00273
797.28661,0.00184
795.22644,0.00142
793.16627,0.00156
791.10609,0.00167
789.04592,0.00157
786.98575,0.00174
784.92558,0.00193
782.86540,0.00179
780.80523,0.00172
778.74506,0.00189
776.68489,0.00199
774.62472,0.00187
772.56454,0.00177
770.50437,0.00165
768.44420,0.00168
766.38403,0.00207
764.32386,0.00225
762.26368,0.00183
760.20351,0.00138
758.14334,0.00143
756.08317,0.00138
754.02299,0.00112
751.96282,0.00136
749.90265,0.00171
747.84248,0.00164
745.78231,0.00143
743.72213,0.00144
741.66196,0.00155
739.60179,0.00135
737.54162,0.00105
735.48145,0.00112
733.42127,0.00135
731.36110,0.00147
729.30093,0.00174
727.24076,0.00219
725.18059,0.00237
723.12041,0.00264
721.06024,0.00229
719.00007,0.00237
716.93990,0.00208
714.87972,0.00172
712.81955,0.00168
710.75938,0.00145
708.69921,0.00127
706.63904,0.00154
704.57886,0.00203
702.51869,0.00232
700.45852,0.00232
698.39835,0.00235
696.33818,0.00278
694.27800,0.00336
692.21783,0.00339
690.15766,0.00259
688.09749,0.00160
686.03731,0.00129
683.97714,0.00192
681.91697,0.00278
679.85680,0.00296
677.79663,0.00276
675.73645,0.00304
673.67628,0.00499
671.61611,0.00847
669.55594,0.00558
667.49577,0.00000
665.43559,0.00715
663.37542,0.00609
661.31525,0.00450
659.25508,0.00433
657.19491,0.00417
655.13473,0.00416
653.07456,0.00476
651.01439,0.00556
648.95422,0.00601
646.89404,0.00694
644.83387,0.00758
642.77370,0.00699
640.71353,0.00561
638.65336,0.00489
636.59318,0.00466
634.53301,0.00447
632.47284,0.00424
630.41267,0.00341
628.35250,0.00306
626.29232,0.00473
624.23215,0.00613
622.17198,0.00626
620.11181,0.00635
618.05164,0.00631
615.99146,0.00547
613.93129,0.00463
611.87112,0.00447
609.81095,0.00317
607.75077,0.00058
605.69060,0.00000
603.63043,0.00065
601.57026,0.00099
599.51009,0.00000
