3996.73391,0.00031
3994.67373,0.00043
3992.61356,0.00041
3990.55339,0.00032
3988.49322,0.00048
3986.43305,0.00075
3984.37287,0.00072
3982.31270,0.00037
3980.25253,0.00007
3978.19236,0.00000
3976.13219,0.00007
3974.07201,0.00028
3972.01184,0.00064
3969.95167,0.00094
3967.89150,0.00098
3965.83133,0.00080
3963.77115,0.00053
3961.71098,0.00044
3959.65081,0.00061
3957.59064,0.00060
3955.53046,0.00034
3953.47029,0.00040
3951.41012,0.00082
3949.34995,0.00098
3947.28978,0.00068
3945.22960,0.00041
3943.16943,0.00053
3941.10926,0.00079
3939.04909,0.00079
3936.98892,0.00072
3934.92874,0.00092
3932.86857,0.00120
3930.80840,0.00116
3928.74823,0.00087
3926.68805,0.00067
3924.62788,0.00058
3922.56771,0.00044
3920.50754,0.00038
3918.44737,0.00041
3916.38719,0.00039
3914.32702,0.00038
3912.26685,0.00053
3910.20668,0.00082
3908.14651,0.00110
3906.08633,0.00137
3904.02616,0.00159
3901.96599,0.00144
3899.90582,0.00102
3897.84565,0.00089
3895.78547,0.00104
3893.72530,0.00096
3891.66513,0.00068
3889.60496,0.00072
3887.54478,0.00084
3885.48461,0.00065
3883.42444,0.00039
3881.36427,0.00047
3879.30410,0.00071
3877.24392,0.00070
3875.18375,0.00052
3873.12358,0.00042
3871.06341,0.00056
3869.00324,0.00088
3866.94306,0.00108
3864.88289,0.00109
3862.82272,0.00106
3860.76255,0.00095
3858.70237,0.00077
3856.64220,0.00066
3854.58203,0.00064
3852.52186,0.00074
3850.46169,0.00090
3848.40151,0.00084
3846.34134,0.00075
3844.28117,0.00093
3842.22100,0.00119
3840.16083,0.00125
3838.10065,0.00116
3836.04048,0.00100
3833.98031,0.00081
3831.92014,0.00070
3829.85997,0.00061
3827.79979,0.00048
3825.73962,0.00045
3823.67945,0.00052
3821.61928,0.00060
3819.55910,0.00077
3817.49893,0.00094
3815.43876,0.00089
3813.37859,0.00061
3811.31842,0.00026
3809.25824,0.00016
3807.19807,0.00046
3805.13790,0.00080
3803.07773,0.00082
3801.01756,0.00069
3798.95738,0.00065
3796.89721,0.00070
3794.83704,0.00068
3792.77687,0.00055
3790.71670,0.00050
3788.65652,0.00074
3786.59635,0.00117
3784.53618,0.00143
3782.47601,0.00137
3780.41583,0.00123
3778.35566,0.00115
3776.29549,0.00095
3774.23532,0.00070
3772.17515,0.00078
3770.11497,0.00128
3768.05480,0.00171
3765.99463,0.00169
3763.93446,0.00125
3761.87429,0.00067
3759.81411,0.00041
3757.75394,0.00054
3755.69377,0.00064
3753.63360,0.00050
3751.57342,0.00020
3749.51325,0.00000
3747.45308,0.00018
3745.39291,0.00076
3743.33274,0.00135
3741.27256,0.00142
3739.21239,0.00134
3737.15222,0.00181
3735.09205,0.00272
3733.03188,0.00273
3730.97170,0.00182
3728.91153,0.00100
3726.85136,0.00079
3724.79119,0.00106
3722.73102,0.00126
3720.67084,0.00129
3718.61067,0.00119
3716.55050,0.00125
3714.49033,0.00128
3712.43015,0.00078
3710.36998,0.00042
3708.30981,0.00066
3706.24964,0.00109
3704.18947,0.00120
3702.12929,0.00118
3700.06912,0.00130
3698.00895,0.00155
3695.94878,0.00182
3693.88861,0.00178
3691.82843,0.00167
3689.76826,0.00177
3687.70809,0.00194
3685.64792,0.00169
3683.58775,0.00126
3681.52757,0.00100
3679.46740,0.00123
3677.40723,0.00171
3675.34706,0.00170
3673.28688,0.00096
3671.22671,0.00039
3669.16654,0.00041
3667.10637,0.00069
3665.04620,0.00114
3662.98602,0.00153
3660.92585,0.00157
3658.86568,0.00152
3656.80551,0.00164
3654.74534,0.00178
3652.68516,0.00172
3650.62499,0.00152
3648.56482,0.00146
3646.50465,0.00130
3644.44447,0.00102
3642.38430,0.00127
3640.32413,0.00194
3638.26396,0.00224
3636.20379,0.00204
3634.14361,0.00187
3632.08344,0.00189
3630.02327,0.00184
3627.96310,0.00176
3625.90293,0.00154
3623.84275,0.00121
3621.78258,0.00100
3619.72241,0.00119
3617.66224,0.00170
3615.60207,0.00207
3613.54189,0.00249
3611.48172,0.00292
3609.42155,0.00317
3607.36138,0.00291
3605.30120,0.00228
3603.24103,0.00215
3601.18086,0.00252
3599.12069,0.00281
3597.06052,0.00275
3595.00034,0.00280
3592.94017,0.00292
3590.88000,0.00289
3588.81983,0.00254
3586.75966,0.00234
3584.69948,0.00258
3582.63931,0.00305
3580.57914,0.00321
3578.51897,0.00299
3576.45879,0.00295
3574.39862,0.00303
3572.33845,0.00291
3570.27828,0.00296
3568.21811,0.00335
3566.15793,0.00355
3564.09776,0.00330
3562.03759,0.00285
3559.97742,0.00250
3557.91725,0.00251
3555.85707,0.00277
3553.79690,0.00315
3551.73673,0.00356
3549.67656,0.00360
3547.61639,0.00320
3545.55621,0.00311
3543.49604,0.00360
3541.43587,0.00400
3539.37570,0.00416
3537.31552,0.00435
3535.25535,0.00445
3533.19518,0.00433
3531.13501,0.00414
3529.07484,0.00401
3527.01466,0.00391
3524.95449,0.00392
3522.89432,0.00396
3520.83415,0.00380
3518.77398,0.00364
3516.71380,0.00379
3514.65363,0.00404
3512.59346,0.00408
3510.53329,0.00405
3508.47312,0.00414
3506.41294,0.00426
3504.35277,0.00449
3502.29260,0.00498
3500.23243,0.00536
3498.17225,0.00532
3496.11208,0.00516
3494.05191,0.00512
3491.99174,0.00514
3489.93157,0.00513
3487.87139,0.00522
3485.81122,0.00541
3483.75105,0.00546
3481.69088,0.00544
3479.63071,0.00534
3477.57053,0.00510
3475.51036,0.00494
3473.45019,0.00498
3471.39002,0.00509
3469.32984,0.00503
3467.26967,0.00494
3465.20950,0.00519
3463.14933,0.00562
3461.08916,0.00581
3459.02898,0.00574
3456.96881,0.00564
3454.90864,0.00561
3452.84847,0.00559
3450.78830,0.00551
3448.72812,0.00555
3446.66795,0.00585
3444.60778,0.00604
3442.54761,0.00601
3440.48744,0.00617
3438.42726,0.00651
3436.36709,0.00667
3434.30692,0.00660
3432.24675,0.00643
3430.18657,0.00619
3428.12640,0.00601
3426.06623,0.00600
3424.00606,0.00611
3421.94589,0.00624
3419.88571,0.00633
3417.82554,0.00629
3415.76537,0.00616
3413.70520,0.00616
3411.64503,0.00634
3409.58485,0.00655
3407.52468,0.00657
3405.46451,0.00633
3403.40434,0.00619
3401.34416,0.00619
3399.28399,0.00594
3397.22382,0.00587
3395.16365,0.00649
3393.10348,0.00719
3391.04330,0.00703
3388.98313,0.00636
3386.92296,0.00606
3384.86279,0.00628
3382.80262,0.00665
3380.74244,0.00681
3378.68227,0.00664
3376.62210,0.00634
3374.56193,0.00627
3372.50176,0.00643
3370.44158,0.00667
3368.38141,0.00694
3366.32124,0.00700
3364.26107,0.00680
3362.20089,0.00682
3360.14072,0.00699
3358.08055,0.00690
3356.02038,0.00674
3353.96021,0.00672
3351.90003,0.00662
3349.83986,0.00643
3347.77969,0.00629
3345.71952,0.00616
3343.65935,0.00623
3341.59917,0.00647
3339.53900,0.00660
3337.47883,0.00668
3335.41866,0.00683
3333.35849,0.00699
3331.29831,0.00705
3329.23814,0.00688
3327.17797,0.00650
3325.11780,0.00626
3323.05762,0.00641
3320.99745,0.00660
3318.93728,0.00657
3316.87711,0.00649
3314.81694,0.00649
3312.75676,0.00666
3310.69659,0.00678
3308.63642,0.00664
3306.57625,0.00645
3304.51608,0.00645
3302.45590,0.00653
3300.39573,0.00644
3298.33556,0.00637
3296.27539,0.00665
3294.21521,0.00704
3292.15504,0.00730
3290.09487,0.00734
3288.03470,0.00707
3285.97453,0.00676
3283.91435,0.00669
3281.85418,0.00682
3279.79401,0.00700
3277.73384,0.00704
3275.67367,0.00705
3273.61349,0.00720
3271.55332,0.00716
3269.49315,0.00689
3267.43298,0.00681
3265.37281,0.00681
3263.31263,0.00676
3261.25246,0.00683
3259.19229,0.00697
3257.13212,0.00697
3255.07194,0.00683
3253.01177,0.00678
3250.95160,0.00677
3248.89143,0.00666
3246.83126,0.00658
3244.77108,0.00669
3242.71091,0.00689
3240.65074,0.00708
3238.59057,0.00738
3236.53040,0.00756
3234.47022,0.00742
3232.41005,0.00718
3230.34988,0.00701
3228.28971,0.00694
3226.22954,0.00696
3224.16936,0.00709
3222.10919,0.00719
3220.04902,0.00696
3217.98885,0.00675
3215.92867,0.00705
3213.86850,0.00733
3211.80833,0.00709
3209.74816,0.00676
3207.68799,0.00679
3205.62781,0.00708
3203.56764,0.00723
3201.50747,0.00719
3199.44730,0.00720
3197.38713,0.00725
3195.32695,0.00718
3193.26678,0.00703
3191.20661,0.00701
3189.14644,0.00716
3187.08626,0.00720
3185.02609,0.00712
3182.96592,0.00709
3180.90575,0.00701
3178.84558,0.00692
3176.78540,0.00703
3174.72523,0.00727
3172.66506,0.00737
3170.60489,0.00722
3168.54472,0.00705
3166.48454,0.00704
3164.42437,0.00711
3162.36420,0.00728
3160.30403,0.00729
3158.24386,0.00708
3156.18368,0.00697
3154.12351,0.00696
3152.06334,0.00698
3150.00317,0.00695
3147.94299,0.00669
3145.88282,0.00634
3143.82265,0.00624
3141.76248,0.00645
3139.70231,0.00683
3137.64213,0.00714
3135.58196,0.00734
3133.52179,0.00731
3131.46162,0.00690
3129.40145,0.00653
3127.34127,0.00650
3125.28110,0.00653
3123.22093,0.00668
3121.16076,0.00693
3119.10058,0.00700
3117.04041,0.00701
3114.98024,0.00702
3112.92007,0.00695
3110.85990,0.00676
3108.79972,0.00646
3106.73955,0.00630
3104.67938,0.00636
3102.61921,0.00636
3100.55904,0.00636
3098.49886,0.00675
3096.43869,0.00725
3094.37852,0.00718
3092.31835,0.00672
3090.25818,0.00638
3088.19800,0.00624
3086.13783,0.00628
3084.07766,0.00647
3082.01749,0.00658
3079.95731,0.00663
3077.89714,0.00680
3075.83697,0.00694
3073.77680,0.00678
3071.71663,0.00646
3069.65645,0.00635
3067.59628,0.00644
3065.53611,0.00636
3063.47594,0.00616
3061.41577,0.00608
3059.35559,0.00619
3057.29542,0.00630
3055.23525,0.00630
3053.17508,0.00638
3051.11491,0.00654
3049.05473,0.00662
3046.99456,0.00669
3044.93439,0.00672
3042.87422,0.00654
3040.81404,0.00627
3038.75387,0.00627
3036.69370,0.00638
3034.63353,0.00636
3032.57336,0.00633
3030.51318,0.00626
3028.45301,0.00610
3026.39284,0.00601
3024.33267,0.00602
3022.27250,0.00607
3020.21232,0.00607
3018.15215,0.00601
3016.09198,0.00597
3014.03181,0.00595
3011.97163,0.00590
3009.91146,0.00594
3007.85129,0.00599
3005.79112,0.00589
3003.73095,0.00585
3001.67077,0.00591
2999.61060,0.00580
2997.55043,0.00566
2995.49026,0.00571
2993.43009,0.00566
2991.36991,0.00564
2989.30974,0.00595
2987.24957,0.00625
2985.18940,0.00615
2983.12923,0.00585
2981.06905,0.00575
2979.00888,0.00585
2976.94871,0.00590
2974.88854,0.00602
2972.82836,0.00616
2970.76819,0.00589
2968.70802,0.00544
2966.64785,0.00538
2964.58768,0.00565
2962.52750,0.00584
2960.46733,0.00572
2958.40716,0.00552
2956.34699,0.00561
2954.28682,0.00587
2952.22664,0.00603
2950.16647,0.00606
2948.10630,0.00589
2946.04613,0.00560
2943.98596,0.00538
2941.92578,0.00525
2939.86561,0.00517
2937.80544,0.00511
2935.74527,0.00507
2933.68509,0.00497
2931.62492,0.00484
2929.56475,0.00485
2927.50458,0.00484
2925.44441,0.00476
2923.38423,0.00472
2921.32406,0.00466
2919.26389,0.00460
2917.20372,0.00448
2915.14355,0.00432
2913.08337,0.00452
2911.02320,0.00489
2908.96303,0.00497
2906.90286,0.00493
2904.84268,0.00495
2902.78251,0.00500
2900.72234,0.00518
2898.66217,0.00545
2896.60200,0.00558
2894.54182,0.00532
2892.48165,0.00490
2890.42148,0.00470
2888.36131,0.00480
2886.30114,0.00508
2884.24096,0.00532
2882.18079,0.00523
2880.12062,0.00507
2878.06045,0.00516
2876.00028,0.00529
2873.94010,0.00534
2871.87993,0.00525
2869.81976,0.00501
2867.75959,0.00500
2865.69941,0.00515
2863.63924,0.00511
2861.57907,0.00498
2859.51890,0.00491
2857.45873,0.00478
2855.39855,0.00458
2853.33838,0.00435
2851.27821,0.00412
2849.21804,0.00401
2847.15787,0.00406
2845.09769,0.00433
2843.03752,0.00469
2840.97735,0.00481
2838.91718,0.00473
2836.85700,0.00473
2834.79683,0.00472
2832.73666,0.00468
2830.67649,0.00474
2828.61632,0.00480
2826.55614,0.00481
2824.49597,0.00502
2822.43580,0.00529
2820.37563,0.00520
2818.31546,0.00492
2816.25528,0.00480
2814.19511,0.00480
2812.13494,0.00473
2810.07477,0.00457
2808.01460,0.00455
2805.95442,0.00462
2803.89425,0.00468
2801.83408,0.00476
2799.77391,0.00465
2797.71373,0.00442
2795.65356,0.00437
2793.59339,0.00447
2791.53322,0.00447
2789.47305,0.00447
2787.41287,0.00452
2785.35270,0.00444
2783.29253,0.00441
2781.23236,0.00464
2779.17219,0.00478
2777.11201,0.00456
2775.05184,0.00431
2772.99167,0.00437
2770.93150,0.00456
2768.87133,0.00461
2766.81115,0.00457
2764.75098,0.00458
2762.69081,0.00467
2760.63064,0.00485
2758.57046,0.00486
2756.51029,0.00461
2754.45012,0.00441
2752.38995,0.00449
2750.32978,0.00472
2748.26960,0.00474
2746.20943,0.00447
2744.14926,0.00429
2742.08909,0.00443
2740.02892,0.00452
2737.96874,0.00431
2735.90857,0.00419
2733.84840,0.00437
2731.78823,0.00446
2729.72805,0.00441
2727.66788,0.00450
2725.60771,0.00464
2723.54754,0.00466
2721.48737,0.00456
2719.42719,0.00441
2717.36702,0.00434
2715.30685,0.00442
2713.24668,0.00458
2711.18651,0.00454
2709.12633,0.00438
2707.06616,0.00441
2705.00599,0.00445
2702.94582,0.00426
2700.88565,0.00414
2698.82547,0.00414
2696.76530,0.00402
2694.70513,0.00395
2692.64496,0.00410
2690.58478,0.00441
2688.52461,0.00470
2686.46444,0.00479
2684.40427,0.00465
2682.34410,0.00454
2680.28392,0.00449
2678.22375,0.00432
2676.16358,0.00407
2674.10341,0.00377
2672.04324,0.00361
2669.98306,0.00383
2667.92289,0.00414
2665.86272,0.00425
2663.80255,0.00440
2661.74238,0.00459
2659.68220,0.00453
2657.62203,0.00449
2655.56186,0.00467
2653.50169,0.00462
2651.44151,0.00427
2649.38134,0.00402
2647.32117,0.00394
2645.26100,0.00390
2643.20083,0.00401
2641.14065,0.00436
2639.08048,0.00458
2637.02031,0.00443
2634.96014,0.00412
2632.89997,0.00401
2630.83979,0.00402
2628.77962,0.00389
2626.71945,0.00384
2624.65928,0.00398
2622.59910,0.00408
2620.53893,0.00408
2618.47876,0.00412
2616.41859,0.00420
2614.35842,0.00412
2612.29824,0.00396
2610.23807,0.00388
2608.17790,0.00387
2606.11773,0.00401
2604.05756,0.00430
2601.99738,0.00460
2599.93721,0.00461
2597.87704,0.00430
2595.81687,0.00398
2593.75670,0.00366
2591.69652,0.00343
2589.63635,0.00345
2587.57618,0.00361
2585.51601,0.00377
2583.45583,0.00379
2581.39566,0.00360
2579.33549,0.00332
2577.27532,0.00328
2575.21515,0.00369
2573.15497,0.00409
2571.09480,0.00404
2569.03463,0.00378
2566.97446,0.00363
2564.91429,0.00355
2562.85411,0.00326
2560.79394,0.00297
2558.73377,0.00311
2556.67360,0.00347
2554.61342,0.00378
2552.55325,0.00396
2550.49308,0.00400
2548.43291,0.00392
2546.37274,0.00381
2544.31256,0.00372
2542.25239,0.00375
2540.19222,0.00398
2538.13205,0.00396
2536.07188,0.00379
2534.01170,0.00383
2531.95153,0.00384
2529.89136,0.00364
2527.83119,0.00342
2525.77102,0.00343
2523.71084,0.00365
2521.65067,0.00376
2519.59050,0.00349
2517.53033,0.00308
2515.47015,0.00316
2513.40998,0.00380
2511.34981,0.00442
2509.28964,0.00453
2507.22947,0.00422
2505.16929,0.00411
2503.10912,0.00418
2501.04895,0.00407
2498.98878,0.00362
2496.92861,0.00304
2494.86843,0.00286
2492.80826,0.00318
2490.74809,0.00350
2488.68792,0.00353
2486.62775,0.00345
2484.56757,0.00347
2482.50740,0.00371
2480.44723,0.00411
2478.38706,0.00439
2476.32688,0.00431
2474.26671,0.00392
2472.20654,0.00365
2470.14637,0.00359
2468.08620,0.00328
2466.02602,0.00301
2463.96585,0.00342
2461.90568,0.00417
2459.84551,0.00455
2457.78534,0.00465
2455.72516,0.00465
2453.66499,0.00435
2451.60482,0.00416
2449.54465,0.00434
2447.48447,0.00438
2445.42430,0.00429
2443.36413,0.00433
2441.30396,0.00416
2439.24379,0.00392
2437.18361,0.00382
2435.12344,0.00363
2433.06327,0.00347
2431.00310,0.00359
2428.94293,0.00377
2426.88275,0.00360
2424.82258,0.00327
2422.76241,0.00322
2420.70224,0.00346
2418.64207,0.00382
2416.58189,0.00416
2414.52172,0.00419
2412.46155,0.00403
2410.40138,0.00400
2408.34120,0.00407
2406.28103,0.00409
2404.22086,0.00413
2402.16069,0.00422
2400.10052,0.00415
2398.04034,0.00405
2395.98017,0.00411
2393.92000,0.00417
2391.85983,0.00418
2389.79966,0.00425
2387.73948,0.00434
2385.67931,0.00450
2383.61914,0.00444
2381.55897,0.00400
2379.49880,0.00358
2377.43862,0.00350
2375.37845,0.00303
2373.31828,0.00347
2371.25811,0.00503
2369.19793,0.00586
2367.13776,0.00593
2365.07759,0.00562
2363.01742,0.00312
2360.95725,0.00396
2358.89707,0.00396
2356.83690,0.00358
2354.77673,0.00243
2352.71656,0.00221
2350.65639,0.00776
2348.59621,0.01118
2346.53604,0.00275
2344.47587,0.00101
2342.41570,0.00291
2340.35552,0.00389
2338.29535,0.00421
2336.23518,0.00353
2334.17501,0.00277
2332.11484,0.00212
2330.05466,0.00294
2327.99449,0.00337
2325.93432,0.00500
2323.87415,0.00470
2321.81398,0.00463
2319.75380,0.00413
2317.69363,0.00550
2315.63346,0.00579
2313.57329,0.00518
2311.51312,0.00515
2309.45294,0.00522
2307.39277,0.00515
2305.33260,0.00517
2303.27243,0.00551
2301.21225,0.00534
2299.15208,0.00511
2297.09191,0.00471
2295.03174,0.00411
2292.97157,0.00391
2290.91139,0.00404
2288.85122,0.00416
2286.79105,0.00418
2284.73088,0.00422
2282.67071,0.00422
2280.61053,0.00410
2278.55036,0.00413
2276.49019,0.00427
2274.43002,0.00426
2272.36984,0.00432
2270.30967,0.00463
2268.24950,0.00441
2266.18933,0.00340
2264.12916,0.00247
2262.06898,0.00242
2260.00881,0.00294
2257.94864,0.00371
2255.88847,0.00427
2253.82830,0.00414
2251.76812,0.00363
2249.70795,0.00335
2247.64778,0.00356
2245.58761,0.00413
2243.52744,0.00437
2241.46726,0.00437
2239.40709,0.00505
2237.34692,0.00571
2235.28675,0.00554
2233.22657,0.00503
2231.16640,0.00465
2229.10623,0.00428
2227.04606,0.00435
2224.98589,0.00486
2222.92571,0.00497
2220.86554,0.00438
2218.80537,0.00314
2216.74520,0.00214
2214.68503,0.00234
2212.62485,0.00277
2210.56468,0.00273
2208.50451,0.00279
2206.44434,0.00287
2204.38417,0.00314
2202.32399,0.00378
2200.26382,0.00417
2198.20365,0.00405
2196.14348,0.00355
2194.08330,0.00368
2192.02313,0.00535
2189.96296,0.00707
2187.90279,0.00658
2185.84262,0.00432
2183.78244,0.00285
2181.72227,0.00314
2179.66210,0.00330
2177.60193,0.00277
2175.54176,0.00259
2173.48158,0.00292
2171.42141,0.00325
2169.36124,0.00305
2167.30107,0.00293
2165.24089,0.00361
2163.18072,0.00396
2161.12055,0.00263
2159.06038,0.00099
2157.00021,0.00090
2154.94003,0.00193
2152.87986,0.00263
2150.81969,0.00213
2148.75952,0.00132
2146.69935,0.00046
2144.63917,0.00000
2142.57900,0.00106
2140.51883,0.00262
2138.45866,0.00364
2136.39849,0.00388
2134.33831,0.00350
2132.27814,0.00324
2130.21797,0.00346
2128.15780,0.00398
2126.09762,0.00411
2124.03745,0.00352
2121.97728,0.00289
2119.91711,0.00309
2117.85694,0.00326
2115.79676,0.00286
2113.73659,0.00280
2111.67642,0.00300
2109.61625,0.00299
2107.55608,0.00275
2105.49590,0.00271
2103.43573,0.00309
2101.37556,0.00351
2099.31539,0.00373
2097.25521,0.00344
2095.19504,0.00308
2093.13487,0.00322
2091.07470,0.00344
2089.01453,0.00336
2086.95435,0.00338
2084.89418,0.00368
2082.83401,0.00399
2080.77384,0.00418
2078.71367,0.00391
2076.65349,0.00303
2074.59332,0.00256
2072.53315,0.00297
2070.47298,0.00331
2068.41281,0.00313
2066.35263,0.00272
2064.29246,0.00275
2062.23229,0.00350
2060.17212,0.00365
2058.11194,0.00283
2056.05177,0.00272
2053.99160,0.00383
2051.93143,0.00451
2049.87126,0.00372
2047.81108,0.00226
2045.75091,0.00172
2043.69074,0.00268
2041.63057,0.00395
2039.57040,0.00443
2037.51022,0.00450
2035.45005,0.00449
2033.38988,0.00485
2031.32971,0.00541
2029.26954,0.00522
2027.20936,0.00433
2025.14919,0.00349
2023.08902,0.00326
2021.02885,0.00338
2018.96867,0.00355
2016.90850,0.00401
2014.84833,0.00453
2012.78816,0.00403
2010.72799,0.00292
2008.66781,0.00298
2006.60764,0.00406
2004.54747,0.00441
2002.48730,0.00347
2000.42713,0.00203
1998.36695,0.00112
1996.30678,0.00153
1994.24661,0.00280
1992.18644,0.00353
1990.12626,0.00293
1988.06609,0.00154
1986.00592,0.00074
1983.94575,0.00131
1981.88558,0.00257
1979.82540,0.00371
1977.76523,0.00420
1975.70506,0.00367
1973.64489,0.00264
1971.58472,0.00207
1969.52454,0.00268
1967.46437,0.00350
1965.40420,0.00307
1963.34403,0.00221
1961.28386,0.00192
1959.22368,0.00154
1957.16351,0.00075
1955.10334,0.00046
1953.04317,0.00127
1950.98299,0.00286
1948.92282,0.00357
1946.86265,0.00263
1944.80248,0.00166
1942.74231,0.00149
1940.68213,0.00155
1938.62196,0.00169
1936.56179,0.00226
1934.50162,0.00291
1932.44145,0.00272
1930.38127,0.00165
1928.32110,0.00064
1926.26093,0.00061
1924.20076,0.00165
1922.14059,0.00288
1920.08041,0.00338
1918.02024,0.00331
1915.96007,0.00313
1913.89990,0.00300
1911.83972,0.00305
1909.77955,0.00311
1907.71938,0.00296
1905.65921,0.00271
1903.59904,0.00260
1901.53886,0.00260
1899.47869,0.00259
1897.41852,0.00251
1895.35835,0.00251
1893.29818,0.00283
1891.23800,0.00331
1889.17783,0.00351
1887.11766,0.00347
1885.05749,0.00334
1882.99731,0.00303
1880.93714,0.00261
1878.87697,0.00233
1876.81680,0.00220
1874.75663,0.00234
1872.69645,0.00294
1870.63628,0.00358
1868.57611,0.00357
1866.51594,0.00305
1864.45577,0.00270
1862.39559,0.00262
1860.33542,0.00271
1858.27525,0.00310
1856.21508,0.00368
1854.15491,0.00389
1852.09473,0.00364
1850.03456,0.00339
1847.97439,0.00332
1845.91422,0.00332
1843.85404,0.00332
1841.79387,0.00310
1839.73370,0.00276
1837.67353,0.00259
1835.61336,0.00263
1833.55318,0.00284
1831.49301,0.00310
1829.43284,0.00316
1827.37267,0.00307
1825.31250,0.00293
1823.25232,0.00270
1821.19215,0.00251
1819.13198,0.00251
1817.07181,0.00261
1815.01163,0.00275
1812.95146,0.00300
1810.89129,0.00315
1808.83112,0.00297
1806.77095,0.00272
1804.71077,0.00270
1802.65060,0.00297
1800.59043,0.00332
1798.53026,0.00337
1796.47009,0.00313
1794.40991,0.00292
1792.34974,0.00278
1790.28957,0.00269
1788.22940,0.00255
1786.16923,0.00229
1784.10905,0.00216
1782.04888,0.00240
1779.98871,0.00276
1777.92854,0.00289
1775.86836,0.00295
1773.80819,0.00326
1771.74802,0.00362
1769.68785,0.00367
1767.62768,0.00354
1765.56750,0.00340
1763.50733,0.00328
1761.44716,0.00319
1759.38699,0.00319
1757.32682,0.00321
1755.26664,0.00306
1753.20647,0.00288
1751.14630,0.00304
1749.08613,0.00337
1747.02596,0.00346
1744.96578,0.00331
1742.90561,0.00307
1740.84544,0.00297
1738.78527,0.00309
1736.72509,0.00333
1734.66492,0.00354
1732.60475,0.00351
1730.54458,0.00330
1728.48441,0.00318
1726.42423,0.00321
1724.36406,0.00322
1722.30389,0.00314
1720.24372,0.00314
1718.18355,0.00324
1716.12337,0.00334
1714.06320,0.00337
1712.00303,0.00335
1709.94286,0.00343
1707.88268,0.00364
1705.82251,0.00381
1703.76234,0.00384
1701.70217,0.00391
1699.64200,0.00394
1697.58182,0.00375
1695.52165,0.00361
1693.46148,0.00359
1691.40131,0.00360
1689.34114,0.00370
1687.28096,0.00391
1685.22079,0.00412
1683.16062,0.00419
1681.10045,0.00426
1679.04028,0.00437
1676.98010,0.00443
1674.91993,0.00445
1672.85976,0.00445
1670.79959,0.00452
1668.73941,0.00463
1666.67924,0.00471
1664.61907,0.00485
1662.55890,0.00503
1660.49873,0.00510
1658.43855,0.00518
1656.37838,0.00534
1654.31821,0.00545
1652.25804,0.00528
1650.19787,0.00497
1648.13769,0.00482
1646.07752,0.00482
1644.01735,0.00481
1641.95718,0.00480
1639.89701,0.00494
1637.83683,0.00509
1635.77666,0.00492
1633.71649,0.00454
1631.65632,0.00436
1629.59614,0.00435
1627.53597,0.00423
1625.47580,0.00414
1623.41563,0.00434
1621.35546,0.00465
1619.29528,0.00485
1617.23511,0.00494
1615.17494,0.00486
1613.11477,0.00464
1611.05460,0.00443
1608.99442,0.00436
1606.93425,0.00439
1604.87408,0.00438
1602.81391,0.00436
1600.75373,0.00436
1598.69356,0.00431
1596.63339,0.00422
1594.57322,0.00414
1592.51305,0.00413
1590.45287,0.00410
1588.39270,0.00401
1586.33253,0.00391
1584.27236,0.00385
1582.21219,0.00383
1580.15201,0.00384
1578.09184,0.00381
1576.03167,0.00360
1573.97150,0.00331
1571.91133,0.00316
1569.85115,0.00321
1567.79098,0.00330
1565.73081,0.00335
1563.67064,0.00335
1561.61046,0.00331
1559.55029,0.00321
1557.49012,0.00308
1555.42995,0.00305
1553.36978,0.00302
1551.30960,0.00291
1549.24943,0.00279
1547.18926,0.00281
1545.12909,0.00287
1543.06892,0.00290
1541.00874,0.00299
1538.94857,0.00290
1536.88840,0.00256
1534.82823,0.00246
1532.76805,0.00266
1530.70788,0.00281
1528.64771,0.00281
1526.58754,0.00278
1524.52737,0.00266
1522.46719,0.00248
1520.40702,0.00247
1518.34685,0.00263
1516.28668,0.00261
1514.22651,0.00239
1512.16633,0.00231
1510.10616,0.00256
1508.04599,0.00288
1505.98582,0.00289
1503.92565,0.00272
1501.86547,0.00269
1499.80530,0.00280
1497.74513,0.00287
1495.68496,0.00274
1493.62478,0.00245
1491.56461,0.00229
1489.50444,0.00237
1487.44427,0.00242
1485.38410,0.00230
1483.32392,0.00218
1481.26375,0.00215
1479.20358,0.00205
1477.14341,0.00183
1475.08324,0.00171
1473.02306,0.00195
1470.96289,0.00235
1468.90272,0.00251
1466.84255,0.00254
1464.78238,0.00257
1462.72220,0.00258
1460.66203,0.00266
1458.60186,0.00270
1456.54169,0.00265
1454.48151,0.00265
1452.42134,0.00265
1450.36117,0.00261
1448.30100,0.00260
1446.24083,0.00260
1444.18065,0.00253
1442.12048,0.00248
1440.06031,0.00256
1438.00014,0.00268
1435.93997,0.00268
1433.87979,0.00263
1431.81962,0.00258
1429.75945,0.00252
1427.69928,0.00259
1425.63910,0.00285
1423.57893,0.00303
1421.51876,0.00296
1419.45859,0.00277
1417.39842,0.00261
1415.33824,0.00253
1413.27807,0.00247
1411.21790,0.00245
1409.15773,0.00254
1407.09756,0.00264
1405.03738,0.00262
1402.97721,0.00262
1400.91704,0.00279
1398.85687,0.00293
1396.79670,0.00278
1394.73652,0.00249
1392.67635,0.00235
1390.61618,0.00240
1388.55601,0.00249
1386.49583,0.00249
1384.43566,0.00242
1382.37549,0.00234
1380.31532,0.00232
1378.25515,0.00240
1376.19497,0.00251
1374.13480,0.00255
1372.07463,0.00252
1370.01446,0.00251
1367.95429,0.00243
1365.89411,0.00225
1363.83394,0.00217
1361.77377,0.00233
1359.71360,0.00248
1357.65343,0.00252
1355.59325,0.00252
1353.53308,0.00245
1351.47291,0.00233
1349.41274,0.00223
1347.35256,0.00214
1345.29239,0.00212
1343.23222,0.00224
1341.17205,0.00242
1339.11188,0.00254
1337.05170,0.00246
1334.99153,0.00221
1332.93136,0.00207
1330.87119,0.00215
1328.81102,0.00226
1326.75084,0.00219
1324.69067,0.00203
1322.63050,0.00195
1320.57033,0.00200
1318.51015,0.00216
1316.44998,0.00238
1314.38981,0.00244
1312.32964,0.00233
1310.26947,0.00223
1308.20929,0.00225
1306.14912,0.00229
1304.08895,0.00228
1302.02878,0.00228
1299.96861,0.00232
1297.90843,0.00233
1295.84826,0.00242
1293.78809,0.00253
1291.72792,0.00247
1289.66775,0.00228
1287.60757,0.00215
1285.54740,0.00210
1283.48723,0.00210
1281.42706,0.00216
1279.36688,0.00226
1277.30671,0.00232
1275.24654,0.00237
1273.18637,0.00237
1271.12620,0.00231
1269.06602,0.00226
1267.00585,0.00224
1264.94568,0.00229
1262.88551,0.00239
1260.82534,0.00240
1258.76516,0.00227
1256.70499,0.00214
1254.64482,0.00204
1252.58465,0.00200
1250.52447,0.00207
1248.46430,0.00210
1246.40413,0.00212
1244.34396,0.00222
1242.28379,0.00231
1240.22361,0.00225
1238.16344,0.00212
1236.10327,0.00211
1234.04310,0.00228
1231.98293,0.00240
1229.92275,0.00237
1227.86258,0.00235
1225.80241,0.00232
1223.74224,0.00215
1221.68207,0.00191
1219.62189,0.00182
1217.56172,0.00195
1215.50155,0.00210
1213.44138,0.00204
1211.38120,0.00194
1209.32103,0.00205
1207.26086,0.00217
1205.20069,0.00213
1203.14052,0.00198
1201.08034,0.00196
1199.02017,0.00208
1196.96000,0.00198
1194.89983,0.00170
1192.83966,0.00164
1190.77948,0.00184
1188.71931,0.00205
1186.65914,0.00212
1184.59897,0.00212
1182.53880,0.00203
1180.47862,0.00191
1178.41845,0.00195
1176.35828,0.00208
1174.29811,0.00213
1172.23793,0.00217
1170.17776,0.00230
1168.11759,0.00241
1166.05742,0.00239
1163.99725,0.00242
1161.93707,0.00261
1159.87690,0.00275
1157.81673,0.00266
1155.75656,0.00254
1153.69639,0.00267
1151.63621,0.00294
1149.57604,0.00317
1147.51587,0.00338
1145.45570,0.00357
1143.39552,0.00370
1141.33535,0.00385
1139.27518,0.00416
1137.21501,0.00444
1135.15484,0.00461
1133.09466,0.00474
1131.03449,0.00476
1128.97432,0.00478
1126.91415,0.00506
1124.85398,0.00532
1122.79380,0.00539
1120.73363,0.00558
1118.67346,0.00596
1116.61329,0.00632
1114.55312,0.00658
1112.49294,0.00690
1110.43277,0.00722
1108.37260,0.00731
1106.31243,0.00737
1104.25225,0.00763
1102.19208,0.00797
1100.13191,0.00830
1098.07174,0.00857
1096.01157,0.00874
1093.95139,0.00885
1091.89122,0.00906
1089.83105,0.00933
1087.77088,0.00960
1085.71071,0.00989
1083.65053,0.01015
1081.59036,0.01046
1079.53019,0.01068
1077.47002,0.01069
1075.40985,0.01059
1073.34967,0.01042
1071.28950,0.01033
1069.22933,0.01039
1067.16916,0.01039
1065.10898,0.01027
1063.04881,0.01018
1060.98864,0.01012
1058.92847,0.01007
1056.86830,0.01001
1054.80812,0.00989
1052.74795,0.00974
1050.68778,0.00955
1048.62761,0.00921
1046.56744,0.00891
1044.50726,0.00887
1042.44709,0.00880
1040.38692,0.00853
1038.32675,0.00840
1036.26657,0.00826
1034.20640,0.00785
1032.14623,0.00748
1030.08606,0.00738
1028.02589,0.00733
1025.96571,0.00722
1023.90554,0.00717
1021.84537,0.00692
1019.78520,0.00647
1017.72503,0.00627
1015.66485,0.00639
1013.60468,0.00659
1011.54451,0.00682
1009.48434,0.00696
1007.42417,0.00706
1005.36399,0.00734
1003.30382,0.00745
1001.24365,0.00728
999.18348,0.00727
997.12330,0.00743
995.06313,0.00770
993.00296,0.00801
990.94279,0.00824
988.88262,0.00851
986.82244,0.00870
984.76227,0.00860
982.70210,0.00850
980.64193,0.00867
978.58176,0.00888
976.52158,0.00892
974.46141,0.00888
972.40124,0.00868
970.34107,0.00846
968.28089,0.00842
966.22072,0.00828
964.16055,0.00802
962.10038,0.00788
960.04021,0.00781
957.98003,0.00765
955.91986,0.00744
953.85969,0.00740
951.79952,0.00751
949.73935,0.00742
947.67917,0.00707
945.61900,0.00692
943.55883,0.00715
941.49866,0.00723
939.43849,0.00696
937.37831,0.00682
935.31814,0.00695
933.25797,0.00716
931.19780,0.00748
929.13762,0.00767
927.07745,0.00767
925.01728,0.00752
922.95711,0.00714
920.89694,0.00697
918.83676,0.00725
916.77659,0.00737
914.71642,0.00727
912.65625,0.00716
910.59608,0.00704
908.53590,0.00713
906.47573,0.00749
904.41556,0.00783
902.35539,0.00794
900.29522,0.00761
898.23504,0.00711
896.17487,0.00696
894.11470,0.00723
892.05453,0.00781
889.99435,0.00830
887.93418,0.00829
885.87401,0.00827
883.81384,0.00832
881.75367,0.00814
879.69349,0.00811
877.63332,0.00839
875.57315,0.00869
873.51298,0.00882
871.45281,0.00894
869.39263,0.00928
867.33246,0.00962
865.27229,0.00962
863.21212,0.00946
861.15194,0.00930
859.09177,0.00918
857.03160,0.00933
854.97143,0.00945
852.91126,0.00900
850.85108,0.00839
848.79091,0.00812
846.73074,0.00793
844.67057,0.00780
842.61040,0.00764
840.55022,0.00726
838.49005,0.00707
836.42988,0.00694
834.36971,0.00645
832.30954,0.00611
830.24936,0.00652
828.18919,0.00728
826.12902,0.00751
824.06885,0.00696
822.00867,0.00628
819.94850,0.00619
817.88833,0.00642
815.82816,0.00634
813.76799,0.00599
811.70781,0.00584
809.64764,0.00619
807.58747,0.00676
805.52730,0.00694
803.46713,0.00648
801.40695,0.00603
799.34678,0.00611
797.28661,0.00626
795.22644,0.00649
793.16627,0.00729
791.10609,0.00822
789.04592,0.00840
786.98575,0.00777
784.92558,0.00716
782.86540,0.00715
780.80523,0.00723
778.74506,0.00698
776.68489,0.00701
774.62472,0.00781
772.56454,0.00849
770.50437,0.00857
768.44420,0.00867
766.38403,0.00866
764.32386,0.00819
762.26368,0.00780
760.20351,0.00767
758.14334,0.00743
756.08317,0.00722
754.02299,0.00758
751.96282,0.00842
749.90265,0.00869
747.84248,0.00820
745.78231,0.00782
743.72213,0.00785
741.66196,0.00809
739.60179,0.00824
737.54162,0.00842
735.48145,0.00862
733.42127,0.00862
731.36110,0.00875
729.30093,0.00873
727.24076,0.00816
725.18059,0.00787
723.12041,0.00855
721.06024,0.00794
719.00007,0.00815
716.93990,0.00798
714.87972,0.00763
712.81955,0.00804
710.75938,0.00869
708.69921,0.00889
706.63904,0.00871
704.57886,0.00869
702.51869,0.00882
700.45852,0.00873
698.39835,0.00867
696.33818,0.00917
694.27800,0.00989
692.21783,0.00999
690.15766,0.00962
688.09749,0.00972
686.03731,0.01059
683.97714,0.01137
681.91697,0.01115
679.85680,0.01027
677.79663,0.00989
675.73645,0.01042
673.67628,0.01295
671.61611,0.01737
669.55594,0.01009
667.49577,0.00000
665.43559,0.01695
663.37542,0.01503
661.31525,0.01180
659.25508,0.01215
657.19491,0.01109
655.13473,0.00842
653.07456,0.00666
651.01439,0.00643
648.95422,0.00696
646.89404,0.00852
644.83387,0.00933
642.77370,0.00893
640.71353,0.00713
638.65336,0.00524
636.59318,0.00466
634.53301,0.00492
632.47284,0.00574
630.41267,0.00704
628.35250,0.00758
626.29232,0.00760
624.23215,0.00813
622.17198,0.00763
620.11181,0.00727
618.05164,0.00865
615.99146,0.00862
613.93129,0.00581
611.87112,0.00371
609.81095,0.00345
607.75077,0.00344
605.69060,0.00426
603.63043,0.00592
601.57026,0.00431
599.51009,0.00000
