3996.73391,0.00235
3994.67373,0.00216
3992.61356,0.00201
3990.55339,0.00197
3988.49322,0.00186
3986.43305,0.00176
3984.37287,0.00182
3982.31270,0.00194
3980.25253,0.00205
3978.19236,0.00221
3976.13219,0.00226
3974.07201,0.00215
3972.01184,0.00209
3969.95167,0.00216
3967.89150,0.00228
3965.83133,0.00221
3963.77115,0.00188
3961.71098,0.00162
3959.65081,0.00158
3957.59064,0.00164
3955.53046,0.00177
3953.47029,0.00183
3951.41012,0.00135
3949.34995,0.00037
3947.28978,0.00000
3945.22960,0.00072
3943.16943,0.00165
3941.10926,0.00213
3939.04909,0.00226
3936.98892,0.00220
3934.92874,0.00198
3932.86857,0.00163
3930.80840,0.00153
3928.74823,0.00184
3926.68805,0.00215
3924.62788,0.00214
3922.56771,0.00186
3920.50754,0.00148
3918.44737,0.00100
3916.38719,0.00098
3914.32702,0.00162
3912.26685,0.00225
3910.20668,0.00266
3908.14651,0.00280
3906.08633,0.00233
3904.02616,0.00131
3901.96599,0.00070
3899.90582,0.00080
3897.84565,0.00100
3895.78547,0.00124
3893.72530,0.00152
3891.66513,0.00157
3889.60496,0.00142
3887.54478,0.00134
3885.48461,0.00130
3883.42444,0.00114
3881.36427,0.00090
3879.30410,0.00074
3877.24392,0.00080
3875.18375,0.00089
3873.12358,0.00071
3871.06341,0.00032
3869.00324,0.00038
3866.94306,0.00114
3864.88289,0.00173
3862.82272,0.00142
3860.76255,0.00078
3858.70237,0.00055
3856.64220,0.00085
3854.58203,0.00150
3852.52186,0.00153
3850.46169,0.00125
3848.40151,0.00135
3846.34134,0.00187
3844.28117,0.00230
3842.22100,0.00243
3840.16083,0.00252
3838.10065,0.00251
3836.04048,0.00246
3833.98031,0.00247
3831.92014,0.00232
3829.85997,0.00220
3827.79979,0.00233
3825.73962,0.00260
3823.67945,0.00294
3821.61928,0.00320
3819.55910,0.00297
3817.49893,0.00259
3815.43876,0.00219
3813.37859,0.00191
3811.31842,0.00206
3809.25824,0.00267
3807.19807,0.00303
3805.13790,0.00291
3803.07773,0.00310
3801.01756,0.00345
3798.95738,0.00343
3796.89721,0.00327
3794.83704,0.00317
3792.77687,0.00319
3790.71670,0.00335
3788.65652,0.00367
3786.59635,0.00400
3784.53618,0.00407
3782.47601,0.00410
3780.41583,0.00438
3778.35566,0.00446
3776.29549,0.00422
3774.23532,0.00415
3772.17515,0.00442
3770.11497,0.00446
3768.05480,0.00387
3765.99463,0.00323
3763.93446,0.00294
3761.87429,0.00288
3759.81411,0.00271
3757.75394,0.00217
3755.69377,0.00171
3753.63360,0.00183
3751.57342,0.00210
3749.51325,0.00146
3747.45308,0.00067
3745.39291,0.00030
3743.33274,0.00041
3741.27256,0.00036
3739.21239,0.00005
3737.15222,0.00000
3735.09205,0.00014
3733.03188,0.00071
3730.97170,0.00138
3728.91153,0.00159
3726.85136,0.00147
3724.79119,0.00149
3722.73102,0.00196
3720.67084,0.00260
3718.61067,0.00269
3716.55050,0.00221
3714.49033,0.00217
3712.43015,0.00304
3710.36998,0.00354
3708.30981,0.00337
3706.24964,0.00335
3704.18947,0.00378
3702.12929,0.00422
3700.06912,0.00422
3698.00895,0.00419
3695.94878,0.00446
3693.88861,0.00503
3691.82843,0.00563
3689.76826,0.00528
3687.70809,0.00405
3685.64792,0.00340
3683.58775,0.00335
3681.52757,0.00373
3679.46740,0.00439
3677.40723,0.00488
3675.34706,0.00469
3673.28688,0.00407
3671.22671,0.00372
3669.16654,0.00371
3667.10637,0.00383
3665.04620,0.00400
3662.98602,0.00412
3660.92585,0.00410
3658.86568,0.00397
3656.80551,0.00379
3654.74534,0.00373
3652.68516,0.00419
3650.62499,0.00495
3648.56482,0.00479
3646.50465,0.00415
3644.44447,0.00377
3642.38430,0.00397
3640.32413,0.00463
3638.26396,0.00514
3636.20379,0.00510
3634.14361,0.00473
3632.08344,0.00443
3630.02327,0.00436
3627.96310,0.00431
3625.90293,0.00454
3623.84275,0.00495
3621.78258,0.00538
3619.72241,0.00552
3617.66224,0.00511
3615.60207,0.00452
3613.54189,0.00392
3611.48172,0.00339
3609.42155,0.00353
3607.36138,0.00472
3605.30120,0.00630
3603.24103,0.00730
3601.18086,0.00758
3599.12069,0.00745
3597.06052,0.00716
3595.00034,0.00680
3592.94017,0.00671
3590.88000,0.00685
3588.81983,0.00663
3586.75966,0.00633
3584.69948,0.00691
3582.63931,0.00788
3580.57914,0.00852
3578.51897,0.00886
3576.45879,0.00899
3574.39862,0.00897
3572.33845,0.00885
3570.27828,0.00842
3568.21811,0.00757
3566.15793,0.00731
3564.09776,0.00832
3562.03759,0.00936
3559.97742,0.00985
3557.91725,0.01009
3555.85707,0.01011
3553.79690,0.01004
3551.73673,0.01009
3549.67656,0.00995
3547.61639,0.00938
3545.55621,0.00910
3543.49604,0.00969
3541.43587,0.01044
3539.37570,0.01080
3537.31552,0.01089
3535.25535,0.01095
3533.19518,0.01116
3531.13501,0.01140
3529.07484,0.01137
3527.01466,0.01100
3524.95449,0.01090
3522.89432,0.01139
3520.83415,0.01193
3518.77398,0.01225
3516.71380,0.01262
3514.65363,0.01297
3512.59346,0.01289
3510.53329,0.01256
3508.47312,0.01259
3506.41294,0.01303
3504.35277,0.01322
3502.29260,0.01303
3500.23243,0.01334
3498.17225,0.01423
3496.11208,0.01475
3494.05191,0.01458
3491.99174,0.01429
3489.93157,0.01412
3487.87139,0.01411
3485.81122,0.01441
3483.75105,0.01481
3481.69088,0.01492
3479.63071,0.01487
3477.57053,0.01502
3475.51036,0.01530
3473.45019,0.01563
3471.39002,0.01590
3469.32984,0.01593
3467.26967,0.01579
3465.20950,0.01569
3463.14933,0.01580
3461.08916,0.01601
3459.02898,0.01618
3456.96881,0.01630
3454.90864,0.01652
3452.84847,0.01687
3450.78830,0.01709
3448.72812,0.01699
3446.66795,0.01673
3444.60778,0.01671
3442.54761,0.01708
3440.48744,0.01739
3438.42726,0.01733
3436.36709,0.01724
3434.30692,0.01747
3432.24675,0.01776
3430.18657,0.01777
3428.12640,0.01769
3426.06623,0.01794
3424.00606,0.01820
3421.94589,0.01798
3419.88571,0.01775
3417.82554,0.01801
3415.76537,0.01828
3413.70520,0.01834
3411.64503,0.01832
3409.58485,0.01833
3407.52468,0.01864
3405.46451,0.01894
3403.40434,0.01875
3401.34416,0.01844
3399.28399,0.01771
3397.22382,0.01779
3395.16365,0.01807
3393.10348,0.01852
3391.04330,0.01893
3388.98313,0.01901
3386.92296,0.01891
3384.86279,0.01898
3382.80262,0.01934
3380.74244,0.01960
3378.68227,0.01945
3376.62210,0.01913
3374.56193,0.01916
3372.50176,0.01954
3370.44158,0.01977
3368.38141,0.01969
3366.32124,0.01959
3364.26107,0.01948
3362.20089,0.01933
3360.14072,0.01943
3358.08055,0.01969
3356.02038,0.01976
3353.96021,0.01976
3351.90003,0.01976
3349.83986,0.01970
3347.77969,0.01981
3345.71952,0.02023
3343.65935,0.02061
3341.59917,0.02060
3339.53900,0.02026
3337.47883,0.01988
3335.41866,0.01977
3333.35849,0.01980
3331.29831,0.01977
3329.23814,0.01988
3327.17797,0.02022
3325.11780,0.02055
3323.05762,0.02070
3320.99745,0.02072
3318.93728,0.02083
3316.87711,0.02096
3314.81694,0.02088
3312.75676,0.02071
3310.69659,0.02071
3308.63642,0.02074
3306.57625,0.02067
3304.51608,0.02071
3302.45590,0.02090
3300.39573,0.02099
3298.33556,0.02096
3296.27539,0.02087
3294.21521,0.02074
3292.15504,0.02067
3290.09487,0.02074
3288.03470,0.02086
3285.97453,0.02087
3283.91435,0.02086
3281.85418,0.02100
3279.79401,0.02111
3277.73384,0.02107
3275.67367,0.02100
3273.61349,0.02113
3271.55332,0.02136
3269.49315,0.02140
3267.43298,0.02132
3265.37281,0.02128
3263.31263,0.02133
3261.25246,0.02135
3259.19229,0.02120
3257.13212,0.02097
3255.07194,0.02084
3253.01177,0.02086
3250.95160,0.02111
3248.89143,0.02140
3246.83126,0.02133
3244.77108,0.02113
3242.71091,0.02129
3240.65074,0.02160
3238.59057,0.02172
3236.53040,0.02177
3234.47022,0.02181
3232.41005,0.02161
3230.34988,0.02121
3228.28971,0.02094
3226.22954,0.02093
3224.16936,0.02101
3222.10919,0.02108
3220.04902,0.02121
3217.98885,0.02132
3215.92867,0.02124
3213.86850,0.02116
3211.80833,0.02129
3209.74816,0.02147
3207.68799,0.02160
3205.62781,0.02178
3203.56764,0.02192
3201.50747,0.02192
3199.44730,0.02171
3197.38713,0.02149
3195.32695,0.02142
3193.26678,0.02140
3191.20661,0.02135
3189.14644,0.02127
3187.08626,0.02117
3185.02609,0.02132
3182.96592,0.02157
3180.90575,0.02145
3178.84558,0.02121
3176.78540,0.02124
3174.72523,0.02125
3172.66506,0.02106
3170.60489,0.02108
3168.54472,0.02135
3166.48454,0.02141
3164.42437,0.02119
3162.36420,0.02099
3160.30403,0.02089
3158.24386,0.02093
3156.18368,0.02106
3154.12351,0.02109
3152.06334,0.02105
3150.00317,0.02112
3147.94299,0.02127
3145.88282,0.02123
3143.82265,0.02096
3141.76248,0.02082
3139.70231,0.02089
3137.64213,0.02096
3135.58196,0.02087
3133.52179,0.02069
3131.46162,0.02063
3129.40145,0.02070
3127.34127,0.02075
3125.28110,0.02068
3123.22093,0.02047
3121.16076,0.02019
3119.10058,0.01997
3117.04041,0.01987
3114.98024,0.01984
3112.92007,0.01978
3110.85990,0.01977
3108.79972,0.01991
3106.73955,0.02005
3104.67938,0.02007
3102.61921,0.01994
3100.55904,0.01976
3098.49886,0.01978
3096.43869,0.01988
3094.37852,0.01976
3092.31835,0.01962
3090.25818,0.01970
3088.19800,0.01993
3086.13783,0.02002
3084.07766,0.01972
3082.01749,0.01928
3079.95731,0.01912
3077.89714,0.01927
3075.83697,0.01950
3073.77680,0.01961
3071.71663,0.01952
3069.65645,0.01933
3067.59628,0.01919
3065.53611,0.01912
3063.47594,0.01914
3061.41577,0.01918
3059.35559,0.01903
3057.29542,0.01874
3055.23525,0.01865
3053.17508,0.01869
3051.11491,0.01859
3049.05473,0.01842
3046.99456,0.01836
3044.93439,0.01839
3042.87422,0.01841
3040.81404,0.01839
3038.75387,0.01827
3036.69370,0.01802
3034.63353,0.01777
3032.57336,0.01761
3030.51318,0.01760
3028.45301,0.01770
3026.39284,0.01770
3024.33267,0.01766
3022.27250,0.01771
3020.21232,0.01780
3018.15215,0.01776
3016.09198,0.01750
3014.03181,0.01711
3011.97163,0.01686
3009.91146,0.01692
3007.85129,0.01702
3005.79112,0.01679
3003.73095,0.01651
3001.67077,0.01667
2999.61060,0.01720
2997.55043,0.01723
2995.49026,0.01687
2993.43009,0.01657
2991.36991,0.01658
2989.30974,0.01668
2987.24957,0.01664
2985.18940,0.01659
2983.12923,0.01661
2981.06905,0.01665
2979.00888,0.01668
2976.94871,0.01664
2974.88854,0.01650
2972.82836,0.01635
2970.76819,0.01630
2968.70802,0.01630
2966.64785,0.01622
2964.58768,0.01609
2962.52750,0.01595
2960.46733,0.01568
2958.40716,0.01547
2956.34699,0.01553
2954.28682,0.01567
2952.22664,0.01568
2950.16647,0.01560
2948.10630,0.01557
2946.04613,0.01553
2943.98596,0.01540
2941.92578,0.01530
2939.86561,0.01519
2937.80544,0.01503
2935.74527,0.01491
2933.68509,0.01479
2931.62492,0.01467
2929.56475,0.01466
2927.50458,0.01464
2925.44441,0.01464
2923.38423,0.01467
2921.32406,0.01458
2919.26389,0.01444
2917.20372,0.01443
2915.14355,0.01446
2913.08337,0.01448
2911.02320,0.01455
2908.96303,0.01457
2906.90286,0.01447
2904.84268,0.01441
2902.78251,0.01439
2900.72234,0.01438
2898.66217,0.01441
2896.60200,0.01443
2894.54182,0.01436
2892.48165,0.01416
2890.42148,0.01402
2888.36131,0.01411
2886.30114,0.01434
2884.24096,0.01444
2882.18079,0.01419
2880.12062,0.01379
2878.06045,0.01369
2876.00028,0.01390
2873.94010,0.01409
2871.87993,0.01405
2869.81976,0.01380
2867.75959,0.01355
2865.69941,0.01349
2863.63924,0.01360
2861.57907,0.01361
2859.51890,0.01345
2857.45873,0.01328
2855.39855,0.01319
2853.33838,0.01317
2851.27821,0.01319
2849.21804,0.01318
2847.15787,0.01308
2845.09769,0.01297
2843.03752,0.01295
2840.97735,0.01294
2838.91718,0.01295
2836.85700,0.01301
2834.79683,0.01301
2832.73666,0.01293
2830.67649,0.01284
2828.61632,0.01280
2826.55614,0.01276
2824.49597,0.01274
2822.43580,0.01265
2820.37563,0.01245
2818.31546,0.01233
2816.25528,0.01237
2814.19511,0.01237
2812.13494,0.01238
2810.07477,0.01249
2808.01460,0.01246
2805.95442,0.01235
2803.89425,0.01223
2801.83408,0.01214
2799.77391,0.01220
2797.71373,0.01230
2795.65356,0.01228
2793.59339,0.01222
2791.53322,0.01219
2789.47305,0.01203
2787.41287,0.01178
2785.35270,0.01163
2783.29253,0.01156
2781.23236,0.01154
2779.17219,0.01162
2777.11201,0.01167
2775.05184,0.01159
2772.99167,0.01144
2770.93150,0.01137
2768.87133,0.01147
2766.81115,0.01157
2764.75098,0.01153
2762.69081,0.01132
2760.63064,0.01114
2758.57046,0.01114
2756.51029,0.01116
2754.45012,0.01100
2752.38995,0.01083
2750.32978,0.01076
2748.26960,0.01074
2746.20943,0.01083
2744.14926,0.01088
2742.08909,0.01076
2740.02892,0.01059
2737.96874,0.01045
2735.90857,0.01042
2733.84840,0.01049
2731.78823,0.01050
2729.72805,0.01040
2727.66788,0.01044
2725.60771,0.01061
2723.54754,0.01055
2721.48737,0.01031
2719.42719,0.01020
2717.36702,0.01016
2715.30685,0.01008
2713.24668,0.01003
2711.18651,0.01009
2709.12633,0.01009
2707.06616,0.00997
2705.00599,0.00988
2702.94582,0.00986
2700.88565,0.00981
2698.82547,0.00971
2696.76530,0.00962
2694.70513,0.00968
2692.64496,0.00984
2690.58478,0.00981
2688.52461,0.00959
2686.46444,0.00935
2684.40427,0.00921
2682.34410,0.00931
2680.28392,0.00948
2678.22375,0.00950
2676.16358,0.00944
2674.10341,0.00943
2672.04324,0.00947
2669.98306,0.00945
2667.92289,0.00935
2665.86272,0.00928
2663.80255,0.00931
2661.74238,0.00936
2659.68220,0.00943
2657.62203,0.00945
2655.56186,0.00932
2653.50169,0.00911
2651.44151,0.00899
2649.38134,0.00904
2647.32117,0.00913
2645.26100,0.00912
2643.20083,0.00906
2641.14065,0.00908
2639.08048,0.00904
2637.02031,0.00887
2634.96014,0.00876
2632.89997,0.00881
2630.83979,0.00890
2628.77962,0.00889
2626.71945,0.00874
2624.65928,0.00863
2622.59910,0.00856
2620.53893,0.00846
2618.47876,0.00837
2616.41859,0.00837
2614.35842,0.00840
2612.29824,0.00835
2610.23807,0.00832
2608.17790,0.00836
2606.11773,0.00836
2604.05756,0.00834
2601.99738,0.00838
2599.93721,0.00831
2597.87704,0.00804
2595.81687,0.00784
2593.75670,0.00794
2591.69652,0.00829
2589.63635,0.00848
2587.57618,0.00822
2585.51601,0.00782
2583.45583,0.00761
2581.39566,0.00749
2579.33549,0.00747
2577.27532,0.00775
2575.21515,0.00807
2573.15497,0.00814
2571.09480,0.00799
2569.03463,0.00783
2566.97446,0.00776
2564.91429,0.00766
2562.85411,0.00752
2560.79394,0.00755
2558.73377,0.00767
2556.67360,0.00769
2554.61342,0.00771
2552.55325,0.00784
2550.49308,0.00784
2548.43291,0.00762
2546.37274,0.00744
2544.31256,0.00751
2542.25239,0.00769
2540.19222,0.00780
2538.13205,0.00779
2536.07188,0.00768
2534.01170,0.00760
2531.95153,0.00770
2529.89136,0.00773
2527.83119,0.00745
2525.77102,0.00714
2523.71084,0.00710
2521.65067,0.00728
2519.59050,0.00750
2517.53033,0.00756
2515.47015,0.00754
2513.40998,0.00757
2511.34981,0.00766
2509.28964,0.00785
2507.22947,0.00782
2505.16929,0.00755
2503.10912,0.00757
2501.04895,0.00777
2498.98878,0.00786
2496.92861,0.00794
2494.86843,0.00776
2492.80826,0.00749
2490.74809,0.00752
2488.68792,0.00747
2486.62775,0.00720
2484.56757,0.00727
2482.50740,0.00768
2480.44723,0.00792
2478.38706,0.00791
2476.32688,0.00793
2474.26671,0.00806
2472.20654,0.00810
2470.14637,0.00790
2468.08620,0.00779
2466.02602,0.00800
2463.96585,0.00827
2461.90568,0.00828
2459.84551,0.00814
2457.78534,0.00805
2455.72516,0.00794
2453.66499,0.00787
2451.60482,0.00794
2449.54465,0.00800
2447.48447,0.00795
2445.42430,0.00789
2443.36413,0.00784
2441.30396,0.00771
2439.24379,0.00767
2437.18361,0.00779
2435.12344,0.00793
2433.06327,0.00800
2431.00310,0.00784
2428.94293,0.00749
2426.88275,0.00742
2424.82258,0.00776
2422.76241,0.00801
2420.70224,0.00798
2418.64207,0.00798
2416.58189,0.00801
2414.52172,0.00801
2412.46155,0.00813
2410.40138,0.00830
2408.34120,0.00817
2406.28103,0.00780
2404.22086,0.00762
2402.16069,0.00772
2400.10052,0.00776
2398.04034,0.00714
2395.98017,0.00702
2393.92000,0.00733
2391.85983,0.00757
2389.79966,0.00755
2387.73948,0.00730
2385.67931,0.00677
2383.61914,0.00596
2381.55897,0.00512
2379.49880,0.00441
2377.43862,0.00391
2375.37845,0.00413
2373.31828,0.00488
2371.25811,0.00590
2369.19793,0.00749
2367.13776,0.00965
2365.07759,0.01220
2363.01742,0.01483
2360.95725,0.01491
2358.89707,0.01369
2356.83690,0.01194
2354.77673,0.01054
2352.71656,0.00949
2350.65639,0.00754
2348.59621,0.00675
2346.53604,0.00965
2344.47587,0.01102
2342.41570,0.01178
2340.35552,0.01256
2338.29535,0.01279
2336.23518,0.01268
2334.17501,0.01186
2332.11484,0.01037
2330.05466,0.00889
2327.99449,0.00863
2325.93432,0.00837
2323.87415,0.00782
2321.81398,0.00642
2319.75380,0.00524
2317.69363,0.00397
2315.63346,0.00343
2313.57329,0.00345
2311.51312,0.00339
2309.45294,0.00334
2307.39277,0.00351
2305.33260,0.00405
2303.27243,0.00479
2301.21225,0.00542
2299.15208,0.00561
2297.09191,0.00575
2295.03174,0.00627
2292.97157,0.00696
2290.91139,0.00745
2288.85122,0.00754
2286.79105,0.00727
2284.73088,0.00699
2282.67071,0.00702
2280.61053,0.00734
2278.55036,0.00764
2276.49019,0.00783
2274.43002,0.00796
2272.36984,0.00788
2270.30967,0.00764
2268.24950,0.00753
2266.18933,0.00747
2264.12916,0.00737
2262.06898,0.00739
2260.00881,0.00753
2257.94864,0.00766
2255.88847,0.00750
2253.82830,0.00702
2251.76812,0.00689
2249.70795,0.00699
2247.64778,0.00681
2245.58761,0.00670
2243.52744,0.00691
2241.46726,0.00679
2239.40709,0.00656
2237.34692,0.00661
2235.28675,0.00700
2233.22657,0.00747
2231.16640,0.00754
2229.10623,0.00714
2227.04606,0.00630
2224.98589,0.00571
2222.92571,0.00567
2220.86554,0.00544
2218.80537,0.00505
2216.74520,0.00525
2214.68503,0.00602
2212.62485,0.00648
2210.56468,0.00620
2208.50451,0.00603
2206.44434,0.00619
2204.38417,0.00596
2202.32399,0.00576
2200.26382,0.00612
2198.20365,0.00659
2196.14348,0.00663
2194.08330,0.00641
2192.02313,0.00654
2189.96296,0.00718
2187.90279,0.00735
2185.84262,0.00665
2183.78244,0.00603
2181.72227,0.00580
2179.66210,0.00568
2177.60193,0.00580
2175.54176,0.00556
2173.48158,0.00470
2171.42141,0.00454
2169.36124,0.00531
2167.30107,0.00585
2165.24089,0.00639
2163.18072,0.00695
2161.12055,0.00565
2159.06038,0.00288
2157.00021,0.00138
2154.94003,0.00135
2152.87986,0.00161
2150.81969,0.00184
2148.75952,0.00243
2146.69935,0.00316
2144.63917,0.00366
2142.57900,0.00417
2140.51883,0.00434
2138.45866,0.00428
2136.39849,0.00438
2134.33831,0.00423
2132.27814,0.00373
2130.21797,0.00346
2128.15780,0.00348
2126.09762,0.00348
2124.03745,0.00351
2121.97728,0.00388
2119.91711,0.00448
2117.85694,0.00476
2115.79676,0.00483
2113.73659,0.00512
2111.67642,0.00502
2109.61625,0.00443
2107.55608,0.00427
2105.49590,0.00440
2103.43573,0.00450
2101.37556,0.00446
2099.31539,0.00474
2097.25521,0.00500
2095.19504,0.00500
2093.13487,0.00480
2091.07470,0.00467
2089.01453,0.00435
2086.95435,0.00427
2084.89418,0.00485
2082.83401,0.00564
2080.77384,0.00608
2078.71367,0.00591
2076.65349,0.00562
2074.59332,0.00579
2072.53315,0.00611
2070.47298,0.00600
2068.41281,0.00563
2066.35263,0.00528
2064.29246,0.00497
2062.23229,0.00494
2060.17212,0.00522
2058.11194,0.00545
2056.05177,0.00567
2053.99160,0.00631
2051.93143,0.00687
2049.87126,0.00679
2047.81108,0.00649
2045.75091,0.00612
2043.69074,0.00572
2041.63057,0.00585
2039.57040,0.00611
2037.51022,0.00594
2035.45005,0.00544
2033.38988,0.00458
2031.32971,0.00392
2029.26954,0.00440
2027.20936,0.00543
2025.14919,0.00525
2023.08902,0.00444
2021.02885,0.00511
2018.96867,0.00649
2016.90850,0.00661
2014.84833,0.00558
2012.78816,0.00488
2010.72799,0.00551
2008.66781,0.00632
2006.60764,0.00558
2004.54747,0.00397
2002.48730,0.00279
2000.42713,0.00197
1998.36695,0.00177
1996.30678,0.00244
1994.24661,0.00282
1992.18644,0.00217
1990.12626,0.00181
1988.06609,0.00272
1986.00592,0.00375
1983.94575,0.00410
1981.88558,0.00470
1979.82540,0.00596
1977.76523,0.00627
1975.70506,0.00498
1973.64489,0.00375
1971.58472,0.00361
1969.52454,0.00368
1967.46437,0.00325
1965.40420,0.00296
1963.34403,0.00305
1961.28386,0.00301
1959.22368,0.00297
1957.16351,0.00310
1955.10334,0.00290
1953.04317,0.00245
1950.98299,0.00236
1948.92282,0.00270
1946.86265,0.00313
1944.80248,0.00296
1942.74231,0.00231
1940.68213,0.00227
1938.62196,0.00304
1936.56179,0.00371
1934.50162,0.00380
1932.44145,0.00367
1930.38127,0.00372
1928.32110,0.00359
1926.26093,0.00293
1924.20076,0.00214
1922.14059,0.00192
1920.08041,0.00232
1918.02024,0.00290
1915.96007,0.00320
1913.89990,0.00332
1911.83972,0.00358
1909.77955,0.00375
1907.71938,0.00374
1905.65921,0.00382
1903.59904,0.00409
1901.53886,0.00431
1899.47869,0.00426
1897.41852,0.00401
1895.35835,0.00375
1893.29818,0.00362
1891.23800,0.00372
1889.17783,0.00388
1887.11766,0.00392
1885.05749,0.00399
1882.99731,0.00407
1880.93714,0.00396
1878.87697,0.00379
1876.81680,0.00377
1874.75663,0.00376
1872.69645,0.00365
1870.63628,0.00364
1868.57611,0.00388
1866.51594,0.00413
1864.45577,0.00413
1862.39559,0.00393
1860.33542,0.00368
1858.27525,0.00352
1856.21508,0.00350
1854.15491,0.00349
1852.09473,0.00346
1850.03456,0.00341
1847.97439,0.00339
1845.91422,0.00333
1843.85404,0.00311
1841.79387,0.00301
1839.73370,0.00314
1837.67353,0.00321
1835.61336,0.00313
1833.55318,0.00335
1831.49301,0.00400
1829.43284,0.00428
1827.37267,0.00395
1825.31250,0.00375
1823.25232,0.00377
1821.19215,0.00361
1819.13198,0.00312
1817.07181,0.00275
1815.01163,0.00285
1812.95146,0.00315
1810.89129,0.00317
1808.83112,0.00291
1806.77095,0.00279
1804.71077,0.00279
1802.65060,0.00271
1800.59043,0.00279
1798.53026,0.00285
1796.47009,0.00284
1794.40991,0.00313
1792.34974,0.00333
1790.28957,0.00287
1788.22940,0.00228
1786.16923,0.00203
1784.10905,0.00226
1782.04888,0.00283
1779.98871,0.00307
1777.92854,0.00304
1775.86836,0.00351
1773.80819,0.00444
1771.74802,0.00440
1769.68785,0.00307
1767.62768,0.00214
1765.56750,0.00228
1763.50733,0.00268
1761.44716,0.00269
1759.38699,0.00245
1757.32682,0.00227
1755.26664,0.00218
1753.20647,0.00215
1751.14630,0.00220
1749.08613,0.00235
1747.02596,0.00248
1744.96578,0.00269
1742.90561,0.00318
1740.84544,0.00364
1738.78527,0.00363
1736.72509,0.00342
1734.66492,0.00323
1732.60475,0.00296
1730.54458,0.00289
1728.48441,0.00294
1726.42423,0.00299
1724.36406,0.00307
1722.30389,0.00344
1720.24372,0.00432
1718.18355,0.00487
1716.12337,0.00394
1714.06320,0.00289
1712.00303,0.00263
1709.94286,0.00306
1707.88268,0.00383
1705.82251,0.00411
1703.76234,0.00379
1701.70217,0.00402
1699.64200,0.00468
1697.58182,0.00473
1695.52165,0.00417
1693.46148,0.00374
1691.40131,0.00373
1689.34114,0.00423
1687.28096,0.00546
1685.22079,0.00705
1683.16062,0.00703
1681.10045,0.00589
1679.04028,0.00564
1676.98010,0.00635
1674.91993,0.00722
1672.85976,0.00802
1670.79959,0.00874
1668.73941,0.00878
1666.67924,0.00846
1664.61907,0.00862
1662.55890,0.00863
1660.49873,0.00795
1658.43855,0.00767
1656.37838,0.00867
1654.31821,0.01022
1652.25804,0.01034
1650.19787,0.00986
1648.13769,0.00999
1646.07752,0.00986
1644.01735,0.00879
1641.95718,0.00812
1639.89701,0.00869
1637.83683,0.01001
1635.77666,0.01043
1633.71649,0.00952
1631.65632,0.00893
1629.59614,0.00910
1627.53597,0.00942
1625.47580,0.00962
1623.41563,0.00965
1621.35546,0.00939
1619.29528,0.00968
1617.23511,0.01041
1615.17494,0.01015
1613.11477,0.00929
1611.05460,0.00900
1608.99442,0.00910
1606.93425,0.00906
1604.87408,0.00896
1602.81391,0.00888
1600.75373,0.00874
1598.69356,0.00866
1596.63339,0.00874
1594.57322,0.00877
1592.51305,0.00858
1590.45287,0.00837
1588.39270,0.00826
1586.33253,0.00817
1584.27236,0.00791
1582.21219,0.00759
1580.15201,0.00776
1578.09184,0.00846
1576.03167,0.00850
1573.97150,0.00753
1571.91133,0.00707
1569.85115,0.00715
1567.79098,0.00665
1565.73081,0.00590
1563.67064,0.00582
1561.61046,0.00683
1559.55029,0.00771
1557.49012,0.00619
1555.42995,0.00406
1553.36978,0.00280
1551.30960,0.00228
1549.24943,0.00215
1547.18926,0.00228
1545.12909,0.00302
1543.06892,0.00474
1541.00874,0.00643
1538.94857,0.00561
1536.88840,0.00371
1534.82823,0.00287
1532.76805,0.00278
1530.70788,0.00259
1528.64771,0.00242
1526.58754,0.00238
1524.52737,0.00266
1522.46719,0.00305
1520.40702,0.00255
1518.34685,0.00168
1516.28668,0.00099
1514.22651,0.00036
1512.16633,0.00000
1510.10616,0.00040
1508.04599,0.00178
1505.98582,0.00298
1503.92565,0.00266
1501.86547,0.00206
1499.80530,0.00251
1497.74513,0.00331
1495.68496,0.00337
1493.62478,0.00327
1491.56461,0.00348
1489.50444,0.00342
1487.44427,0.00307
1485.38410,0.00297
1483.32392,0.00313
1481.26375,0.00334
1479.20358,0.00346
1477.14341,0.00357
1475.08324,0.00369
1473.02306,0.00372
1470.96289,0.00351
1468.90272,0.00332
1466.84255,0.00344
1464.78238,0.00359
1462.72220,0.00354
1460.66203,0.00386
1458.60186,0.00428
1456.54169,0.00385
1454.48151,0.00323
1452.42134,0.00312
1450.36117,0.00360
1448.30100,0.00417
1446.24083,0.00435
1444.18065,0.00436
1442.12048,0.00449
1440.06031,0.00470
1438.00014,0.00467
1435.93997,0.00422
1433.87979,0.00387
1431.81962,0.00394
1429.75945,0.00422
1427.69928,0.00438
1425.63910,0.00444
1423.57893,0.00435
1421.51876,0.00403
1419.45859,0.00358
1417.39842,0.00342
1415.33824,0.00389
1413.27807,0.00446
1411.21790,0.00468
1409.15773,0.00471
1407.09756,0.00483
1405.03738,0.00486
1402.97721,0.00468
1400.91704,0.00440
1398.85687,0.00391
1396.79670,0.00347
1394.73652,0.00352
1392.67635,0.00383
1390.61618,0.00401
1388.55601,0.00399
1386.49583,0.00400
1384.43566,0.00423
1382.37549,0.00445
1380.31532,0.00448
1378.25515,0.00459
1376.19497,0.00487
1374.13480,0.00489
1372.07463,0.00465
1370.01446,0.00457
1367.95429,0.00464
1365.89411,0.00459
1363.83394,0.00425
1361.77377,0.00390
1359.71360,0.00405
1357.65343,0.00447
1355.59325,0.00477
1353.53308,0.00493
1351.47291,0.00504
1349.41274,0.00510
1347.35256,0.00505
1345.29239,0.00494
1343.23222,0.00465
1341.17205,0.00400
1339.11188,0.00337
1337.05170,0.00356
1334.99153,0.00433
1332.93136,0.00487
1330.87119,0.00496
1328.81102,0.00493
1326.75084,0.00497
1324.69067,0.00500
1322.63050,0.00497
1320.57033,0.00478
1318.51015,0.00445
1316.44998,0.00426
1314.38981,0.00432
1312.32964,0.00452
1310.26947,0.00475
1308.20929,0.00492
1306.14912,0.00502
1304.08895,0.00517
1302.02878,0.00536
1299.96861,0.00545
1297.90843,0.00535
1295.84826,0.00518
1293.78809,0.00505
1291.72792,0.00496
1289.66775,0.00494
1287.60757,0.00510
1285.54740,0.00530
1283.48723,0.00529
1281.42706,0.00515
1279.36688,0.00520
1277.30671,0.00539
1275.24654,0.00543
1273.18637,0.00531
1271.12620,0.00520
1269.06602,0.00517
1267.00585,0.00513
1264.94568,0.00511
1262.88551,0.00520
1260.82534,0.00538
1258.76516,0.00552
1256.70499,0.00554
1254.64482,0.00541
1252.58465,0.00525
1250.52447,0.00518
1248.46430,0.00515
1246.40413,0.00504
1244.34396,0.00492
1242.28379,0.00487
1240.22361,0.00486
1238.16344,0.00484
1236.10327,0.00485
1234.04310,0.00484
1231.98293,0.00475
1229.92275,0.00470
1227.86258,0.00470
1225.80241,0.00461
1223.74224,0.00445
1221.68207,0.00434
1219.62189,0.00425
1217.56172,0.00410
1215.50155,0.00392
1213.44138,0.00374
1211.38120,0.00369
1209.32103,0.00379
1207.26086,0.00385
1205.20069,0.00377
1203.14052,0.00371
1201.08034,0.00375
1199.02017,0.00377
1196.96000,0.00369
1194.89983,0.00351
1192.83966,0.00341
1190.77948,0.00348
1188.71931,0.00364
1186.65914,0.00385
1184.59897,0.00401
1182.53880,0.00393
1180.47862,0.00380
1178.41845,0.00382
1176.35828,0.00379
1174.29811,0.00388
1172.23793,0.00428
1170.17776,0.00469
1168.11759,0.00492
1166.05742,0.00503
1163.99725,0.00507
1161.93707,0.00519
1159.87690,0.00552
1157.81673,0.00593
1155.75656,0.00626
1153.69639,0.00652
1151.63621,0.00688
1149.57604,0.00740
1147.51587,0.00790
1145.45570,0.00828
1143.39552,0.00869
1141.33535,0.00924
1139.27518,0.00980
1137.21501,0.01026
1135.15484,0.01077
1133.09466,0.01132
1131.03449,0.01186
1128.97432,0.01250
1126.91415,0.01325
1124.85398,0.01397
1122.79380,0.01460
1120.73363,0.01508
1118.67346,0.01546
1116.61329,0.01598
1114.55312,0.01673
1112.49294,0.01743
1110.43277,0.01801
1108.37260,0.01863
1106.31243,0.01921
1104.25225,0.01960
1102.19208,0.01994
1100.13191,0.02040
1098.07174,0.02092
1096.01157,0.02141
1093.95139,0.02183
1091.89122,0.02215
1089.83105,0.02252
1087.77088,0.02299
1085.71071,0.02337
1083.65053,0.02352
1081.59036,0.02367
1079.53019,0.02417
1077.47002,0.02490
1075.40985,0.02543
1073.34967,0.02564
1071.28950,0.02581
1069.22933,0.02605
1067.16916,0.02619
1065.10898,0.02619
1063.04881,0.02607
1060.98864,0.02591
1058.92847,0.02575
1056.86830,0.02541
1054.80812,0.02482
1052.74795,0.02412
1050.68778,0.02343
1048.62761,0.02273
1046.56744,0.02187
1044.50726,0.02099
1042.44709,0.02024
1040.38692,0.01946
1038.32675,0.01855
1036.26657,0.01765
1034.20640,0.01682
1032.14623,0.01598
1030.08606,0.01519
1028.02589,0.01453
1025.96571,0.01393
1023.90554,0.01338
1021.84537,0.01294
1019.78520,0.01255
1017.72503,0.01218
1015.66485,0.01194
1013.60468,0.01192
1011.54451,0.01210
1009.48434,0.01228
1007.42417,0.01247
1005.36399,0.01290
1003.30382,0.01351
1001.24365,0.01404
999.18348,0.01441
997.12330,0.01479
995.06313,0.01535
993.00296,0.01605
990.94279,0.01674
988.88262,0.01731
986.82244,0.01774
984.76227,0.01815
982.70210,0.01849
980.64193,0.01867
978.58176,0.01878
976.52158,0.01882
974.46141,0.01868
972.40124,0.01841
970.34107,0.01811
968.28089,0.01784
966.22072,0.01760
964.16055,0.01718
962.10038,0.01647
960.04021,0.01573
957.98003,0.01503
955.91986,0.01426
953.85969,0.01354
951.79952,0.01291
949.73935,0.01241
947.67917,0.01210
945.61900,0.01173
943.55883,0.01121
941.49866,0.01078
939.43849,0.01041
937.37831,0.01000
935.31814,0.00966
933.25797,0.00939
931.19780,0.00919
929.13762,0.00901
927.07745,0.00889
925.01728,0.00892
922.95711,0.00892
920.89694,0.00880
918.83676,0.00853
916.77659,0.00809
914.71642,0.00768
912.65625,0.00736
910.59608,0.00714
908.53590,0.00705
906.47573,0.00702
904.41556,0.00721
902.35539,0.00751
900.29522,0.00759
898.23504,0.00757
896.17487,0.00776
894.11470,0.00816
892.05453,0.00861
889.99435,0.00889
887.93418,0.00900
885.87401,0.00907
883.81384,0.00920
881.75367,0.00948
879.69349,0.00989
877.63332,0.01029
875.57315,0.01066
873.51298,0.01096
871.45281,0.01110
869.39263,0.01107
867.33246,0.01107
865.27229,0.01144
863.21212,0.01180
861.15194,0.01167
859.09177,0.01155
857.03160,0.01184
854.97143,0.01221
852.91126,0.01223
850.85108,0.01182
848.79091,0.01134
846.73074,0.01132
844.67057,0.01167
842.61040,0.01164
840.55022,0.01100
838.49005,0.01041
836.42988,0.01028
834.36971,0.01021
832.30954,0.00979
830.24936,0.00937
828.18919,0.00935
826.12902,0.00941
824.06885,0.00922
822.00867,0.00878
819.94850,0.00817
817.88833,0.00774
815.82816,0.00767
813.76799,0.00771
811.70781,0.00774
809.64764,0.00759
807.58747,0.00724
805.52730,0.00697
803.46713,0.00682
801.40695,0.00664
799.34678,0.00643
797.28661,0.00629
795.22644,0.00627
793.16627,0.00632
791.10609,0.00626
789.04592,0.00634
786.98575,0.00660
784.92558,0.00667
782.86540,0.00656
780.80523,0.00656
778.74506,0.00648
776.68489,0.00616
774.62472,0.00601
772.56454,0.00609
770.50437,0.00610
768.44420,0.00589
766.38403,0.00562
764.32386,0.00545
762.26368,0.00558
760.20351,0.00602
758.14334,0.00625
756.08317,0.00611
754.02299,0.00592
751.96282,0.00587
749.90265,0.00582
747.84248,0.00571
745.78231,0.00575
743.72213,0.00573
741.66196,0.00547
739.60179,0.00556
737.54162,0.00606
735.48145,0.00616
733.42127,0.00592
731.36110,0.00571
729.30093,0.00546
727.24076,0.00516
725.18059,0.00508
723.12041,0.00535
721.06024,0.00547
719.00007,0.00521
716.93990,0.00510
714.87972,0.00486
712.81955,0.00455
710.75938,0.00453
708.69921,0.00463
706.63904,0.00465
704.57886,0.00489
702.51869,0.00539
700.45852,0.00545
698.39835,0.00486
696.33818,0.00449
694.27800,0.00477
692.21783,0.00498
690.15766,0.00476
688.09749,0.00490
686.03731,0.00564
683.97714,0.00623
681.91697,0.00643
679.85680,0.00666
677.79663,0.00717
675.73645,0.00766
673.67628,0.00675
671.61611,0.00373
669.55594,0.00427
667.49577,0.00783
665.43559,0.00369
663.37542,0.00498
661.31525,0.00655
659.25508,0.00738
657.19491,0.00813
655.13473,0.00777
653.07456,0.00614
651.01439,0.00459
648.95422,0.00412
646.89404,0.00427
644.83387,0.00461
642.77370,0.00474
640.71353,0.00435
638.65336,0.00333
636.59318,0.00265
634.53301,0.00304
632.47284,0.00350
630.41267,0.00347
628.35250,0.00361
626.29232,0.00381
624.23215,0.00374
622.17198,0.00316
620.11181,0.00124
618.05164,0.00041
615.99146,0.00285
613.93129,0.00538
611.87112,0.00465
609.81095,0.00168
607.75077,0.00000
605.69060,0.00046
603.63043,0.00139
601.57026,0.00144
599.51009,0.00000
