3996.73391,0.00035
3994.67373,0.00007
3992.61356,0.00000
3990.55339,0.00012
3988.49322,0.00017
3986.43305,0.00012
3984.37287,0.00022
3982.31270,0.00040
3980.25253,0.00044
3978.19236,0.00045
3976.13219,0.00050
3974.07201,0.00041
3972.01184,0.00027
3969.95167,0.00031
3967.89150,0.00037
3965.83133,0.00029
3963.77115,0.00023
3961.71098,0.00035
3959.65081,0.00051
3957.59064,0.00054
3955.53046,0.00054
3953.47029,0.00061
3951.41012,0.00064
3949.34995,0.00058
3947.28978,0.00048
3945.22960,0.00028
3943.16943,0.00003
3941.10926,0.00003
3939.04909,0.00022
3936.98892,0.00030
3934.92874,0.00032
3932.86857,0.00053
3930.80840,0.00090
3928.74823,0.00115
3926.68805,0.00111
3924.62788,0.00080
3922.56771,0.00054
3920.50754,0.00062
3918.44737,0.00072
3916.38719,0.00062
3914.32702,0.00054
3912.26685,0.00047
3910.20668,0.00048
3908.14651,0.00078
3906.08633,0.00105
3904.02616,0.00089
3901.96599,0.00056
3899.90582,0.00042
3897.84565,0.00042
3895.78547,0.00058
3893.72530,0.00078
3891.66513,0.00069
3889.60496,0.00052
3887.54478,0.00058
3885.48461,0.00063
3883.42444,0.00061
3881.36427,0.00050
3879.30410,0.00027
3877.24392,0.00031
3875.18375,0.00060
3873.12358,0.00064
3871.06341,0.00031
3869.00324,0.00017
3866.94306,0.00051
3864.88289,0.00070
3862.82272,0.00049
3860.76255,0.00041
3858.70237,0.00064
3856.64220,0.00112
3854.58203,0.00150
3852.52186,0.00113
3850.46169,0.00039
3848.40151,0.00016
3846.34134,0.00047
3844.28117,0.00091
3842.22100,0.00133
3840.16083,0.00164
3838.10065,0.00143
3836.04048,0.00071
3833.98031,0.00017
3831.92014,0.00020
3829.85997,0.00071
3827.79979,0.00130
3825.73962,0.00167
3823.67945,0.00177
3821.61928,0.00155
3819.55910,0.00123
3817.49893,0.00104
3815.43876,0.00072
3813.37859,0.00042
3811.31842,0.00064
3809.25824,0.00124
3807.19807,0.00153
3805.13790,0.00136
3803.07773,0.00122
3801.01756,0.00104
3798.95738,0.00078
3796.89721,0.00074
3794.83704,0.00089
3792.77687,0.00114
3790.71670,0.00140
3788.65652,0.00147
3786.59635,0.00121
3784.53618,0.00094
3782.47601,0.00107
3780.41583,0.00131
3778.35566,0.00120
3776.29549,0.00095
3774.23532,0.00095
3772.17515,0.00125
3770.11497,0.00148
3768.05480,0.00137
3765.99463,0.00125
3763.93446,0.00137
3761.87429,0.00150
3759.81411,0.00132
3757.75394,0.00105
3755.69377,0.00113
3753.63360,0.00119
3751.57342,0.00062
3749.51325,0.00000
3747.45308,0.00013
3745.39291,0.00058
3743.33274,0.00092
3741.27256,0.00121
3739.21239,0.00153
3737.15222,0.00173
3735.09205,0.00159
3733.03188,0.00129
3730.97170,0.00120
3728.91153,0.00143
3726.85136,0.00178
3724.79119,0.00187
3722.73102,0.00163
3720.67084,0.00133
3718.61067,0.00111
3716.55050,0.00116
3714.49033,0.00150
3712.43015,0.00167
3710.36998,0.00135
3708.30981,0.00088
3706.24964,0.00066
3704.18947,0.00066
3702.12929,0.00078
3700.06912,0.00109
3698.00895,0.00156
3695.94878,0.00201
3693.88861,0.00224
3691.82843,0.00207
3689.76826,0.00136
3687.70809,0.00074
3685.64792,0.00086
3683.58775,0.00131
3681.52757,0.00171
3679.46740,0.00221
3677.40723,0.00279
3675.34706,0.00304
3673.28688,0.00305
3671.22671,0.00298
3669.16654,0.00268
3667.10637,0.00252
3665.04620,0.00273
3662.98602,0.00305
3660.92585,0.00344
3658.86568,0.00380
3656.80551,0.00367
3654.74534,0.00320
3652.68516,0.00320
3650.62499,0.00367
3648.56482,0.00393
3646.50465,0.00396
3644.44447,0.00405
3642.38430,0.00409
3640.32413,0.00415
3638.26396,0.00433
3636.20379,0.00462
3634.14361,0.00509
3632.08344,0.00567
3630.02327,0.00584
3627.96310,0.00545
3625.90293,0.00544
3623.84275,0.00611
3621.78258,0.00680
3619.72241,0.00696
3617.66224,0.00688
3615.60207,0.00714
3613.54189,0.00762
3611.48172,0.00775
3609.42155,0.00751
3607.36138,0.00737
3605.30120,0.00776
3603.24103,0.00850
3601.18086,0.00892
3599.12069,0.00883
3597.06052,0.00876
3595.00034,0.00889
3592.94017,0.00910
3590.88000,0.00958
3588.81983,0.01022
3586.75966,0.01068
3584.69948,0.01089
3582.63931,0.01104
3580.57914,0.01131
3578.51897,0.01167
3576.45879,0.01188
3574.39862,0.01200
3572.33845,0.01231
3570.27828,0.01285
3568.21811,0.01321
3566.15793,0.01316
3564.09776,0.01310
3562.03759,0.01326
3559.97742,0.01352
3557.91725,0.01383
3555.85707,0.01412
3553.79690,0.01423
3551.73673,0.01433
3549.67656,0.01476
3547.61639,0.01537
3545.55621,0.01579
3543.49604,0.01594
3541.43587,0.01588
3539.37570,0.01588
3537.31552,0.01625
3535.25535,0.01672
3533.19518,0.01695
3531.13501,0.01706
3529.07484,0.01721
3527.01466,0.01748
3524.95449,0.01785
3522.89432,0.01811
3520.83415,0.01814
3518.77398,0.01817
3516.71380,0.01840
3514.65363,0.01870
3512.59346,0.01892
3510.53329,0.01929
3508.47312,0.01982
3506.41294,0.02012
3504.35277,0.02017
3502.29260,0.02022
3500.23243,0.02029
3498.17225,0.02044
3496.11208,0.02077
3494.05191,0.02109
3491.99174,0.02129
3489.93157,0.02154
3487.87139,0.02188
3485.81122,0.02229
3483.75105,0.02269
3481.69088,0.02289
3479.63071,0.02294
3477.57053,0.02302
3475.51036,0.02311
3473.45019,0.02327
3471.39002,0.02359
3469.32984,0.02391
3467.26967,0.02420
3465.20950,0.02442
3463.14933,0.02451
3461.08916,0.02471
3459.02898,0.02498
3456.96881,0.02505
3454.90864,0.02503
3452.84847,0.02515
3450.78830,0.02535
3448.72812,0.02553
3446.66795,0.02584
3444.60778,0.02628
3442.54761,0.02658
3440.48744,0.02671
3438.42726,0.02684
3436.36709,0.02696
3434.30692,0.02694
3432.24675,0.02701
3430.18657,0.02732
3428.12640,0.02755
3426.06623,0.02764
3424.00606,0.02775
3421.94589,0.02792
3419.88571,0.02811
3417.82554,0.02822
3415.76537,0.02839
3413.70520,0.02865
3411.64503,0.02885
3409.58485,0.02889
3407.52468,0.02886
3405.46451,0.02892
3403.40434,0.02899
3401.34416,0.02900
3399.28399,0.02901
3397.22382,0.02920
3395.16365,0.02956
3393.10348,0.02983
3391.04330,0.02990
3388.98313,0.02997
3386.92296,0.03007
3384.86279,0.03015
3382.80262,0.03029
3380.74244,0.03033
3378.68227,0.03035
3376.62210,0.03062
3374.56193,0.03098
3372.50176,0.03117
3370.44158,0.03115
3368.38141,0.03104
3366.32124,0.03096
3364.26107,0.03098
3362.20089,0.03118
3360.14072,0.03157
3358.08055,0.03177
3356.02038,0.03163
3353.96021,0.03149
3351.90003,0.03141
3349.83986,0.03141
3347.77969,0.03159
3345.71952,0.03184
3343.65935,0.03208
3341.59917,0.03225
3339.53900,0.03233
3337.47883,0.03232
3335.41866,0.03228
3333.35849,0.03227
3331.29831,0.03223
3329.23814,0.03205
3327.17797,0.03194
3325.11780,0.03220
3323.05762,0.03261
3320.99745,0.03272
3318.93728,0.03268
3316.87711,0.03278
3314.81694,0.03302
3312.75676,0.03320
3310.69659,0.03315
3308.63642,0.03292
3306.57625,0.03267
3304.51608,0.03258
3302.45590,0.03260
3300.39573,0.03263
3298.33556,0.03276
3296.27539,0.03308
3294.21521,0.03331
3292.15504,0.03327
3290.09487,0.03327
3288.03470,0.03348
3285.97453,0.03351
3283.91435,0.03326
3281.85418,0.03304
3279.79401,0.03304
3277.73384,0.03326
3275.67367,0.03358
3273.61349,0.03365
3271.55332,0.03348
3269.49315,0.03342
3267.43298,0.03336
3265.37281,0.03332
3263.31263,0.03349
3261.25246,0.03367
3259.19229,0.03363
3257.13212,0.03350
3255.07194,0.03350
3253.01177,0.03357
3250.95160,0.03362
3248.89143,0.03366
3246.83126,0.03361
3244.77108,0.03343
3242.71091,0.03339
3240.65074,0.03345
3238.59057,0.03348
3236.53040,0.03360
3234.47022,0.03375
3232.41005,0.03389
3230.34988,0.03400
3228.28971,0.03383
3226.22954,0.03345
3224.16936,0.03327
3222.10919,0.03323
3220.04902,0.03319
3217.98885,0.03332
3215.92867,0.03344
3213.86850,0.03346
3211.80833,0.03348
3209.74816,0.03329
3207.68799,0.03300
3205.62781,0.03293
3203.56764,0.03302
3201.50747,0.03315
3199.44730,0.03335
3197.38713,0.03352
3195.32695,0.03354
3193.26678,0.03343
3191.20661,0.03319
3189.14644,0.03281
3187.08626,0.03265
3185.02609,0.03274
3182.96592,0.03276
3180.90575,0.03275
3178.84558,0.03282
3176.78540,0.03279
3174.72523,0.03262
3172.66506,0.03256
3170.60489,0.03255
3168.54472,0.03247
3166.48454,0.03249
3164.42437,0.03268
3162.36420,0.03274
3160.30403,0.03249
3158.24386,0.03221
3156.18368,0.03211
3154.12351,0.03194
3152.06334,0.03171
3150.00317,0.03171
3147.94299,0.03186
3145.88282,0.03191
3143.82265,0.03176
3141.76248,0.03153
3139.70231,0.03146
3137.64213,0.03159
3135.58196,0.03170
3133.52179,0.03172
3131.46162,0.03171
3129.40145,0.03149
3127.34127,0.03104
3125.28110,0.03064
3123.22093,0.03045
3121.16076,0.03049
3119.10058,0.03069
3117.04041,0.03078
3114.98024,0.03062
3112.92007,0.03031
3110.85990,0.03002
3108.79972,0.02993
3106.73955,0.03000
3104.67938,0.02994
3102.61921,0.02977
3100.55904,0.02975
3098.49886,0.02970
3096.43869,0.02945
3094.37852,0.02935
3092.31835,0.02945
3090.25818,0.02944
3088.19800,0.02919
3086.13783,0.02886
3084.07766,0.02867
3082.01749,0.02869
3079.95731,0.02881
3077.89714,0.02886
3075.83697,0.02878
3073.77680,0.02863
3071.71663,0.02850
3069.65645,0.02837
3067.59628,0.02822
3065.53611,0.02820
3063.47594,0.02835
3061.41577,0.02831
3059.35559,0.02789
3057.29542,0.02751
3055.23525,0.02758
3053.17508,0.02778
3051.11491,0.02763
3049.05473,0.02718
3046.99456,0.02681
3044.93439,0.02672
3042.87422,0.02670
3040.81404,0.02654
3038.75387,0.02635
3036.69370,0.02633
3034.63353,0.02629
3032.57336,0.02602
3030.51318,0.02565
3028.45301,0.02542
3026.39284,0.02539
3024.33267,0.02537
3022.27250,0.02526
3020.21232,0.02516
3018.15215,0.02499
3016.09198,0.02472
3014.03181,0.02468
3011.97163,0.02480
3009.91146,0.02469
3007.85129,0.02444
3005.79112,0.02434
3003.73095,0.02437
3001.67077,0.02431
2999.61060,0.02407
2997.55043,0.02373
2995.49026,0.02345
2993.43009,0.02331
2991.36991,0.02339
2989.30974,0.02345
2987.24957,0.02334
2985.18940,0.02317
2983.12923,0.02303
2981.06905,0.02302
2979.00888,0.02302
2976.94871,0.02290
2974.88854,0.02274
2972.82836,0.02268
2970.76819,0.02276
2968.70802,0.02281
2966.64785,0.02280
2964.58768,0.02283
2962.52750,0.02283
2960.46733,0.02269
2958.40716,0.02248
2956.34699,0.02249
2954.28682,0.02275
2952.22664,0.02275
2950.16647,0.02244
2948.10630,0.02227
2946.04613,0.02217
2943.98596,0.02200
2941.92578,0.02204
2939.86561,0.02233
2937.80544,0.02254
2935.74527,0.02239
2933.68509,0.02211
2931.62492,0.02206
2929.56475,0.02211
2927.50458,0.02195
2925.44441,0.02167
2923.38423,0.02152
2921.32406,0.02150
2919.26389,0.02144
2917.20372,0.02141
2915.14355,0.02147
2913.08337,0.02142
2911.02320,0.02116
2908.96303,0.02079
2906.90286,0.02053
2904.84268,0.02048
2902.78251,0.02050
2900.72234,0.02048
2898.66217,0.02046
2896.60200,0.02034
2894.54182,0.02006
2892.48165,0.01987
2890.42148,0.01980
2888.36131,0.01964
2886.30114,0.01940
2884.24096,0.01916
2882.18079,0.01901
2880.12062,0.01897
2878.06045,0.01895
2876.00028,0.01896
2873.94010,0.01908
2871.87993,0.01915
2869.81976,0.01905
2867.75959,0.01880
2865.69941,0.01851
2863.63924,0.01821
2861.57907,0.01797
2859.51890,0.01792
2857.45873,0.01784
2855.39855,0.01760
2853.33838,0.01746
2851.27821,0.01743
2849.21804,0.01728
2847.15787,0.01707
2845.09769,0.01692
2843.03752,0.01678
2840.97735,0.01662
2838.91718,0.01654
2836.85700,0.01654
2834.79683,0.01656
2832.73666,0.01648
2830.67649,0.01624
2828.61632,0.01591
2826.55614,0.01570
2824.49597,0.01572
2822.43580,0.01577
2820.37563,0.01568
2818.31546,0.01553
2816.25528,0.01540
2814.19511,0.01532
2812.13494,0.01535
2810.07477,0.01537
2808.01460,0.01524
2805.95442,0.01498
2803.89425,0.01477
2801.83408,0.01466
2799.77391,0.01464
2797.71373,0.01467
2795.65356,0.01467
2793.59339,0.01457
2791.53322,0.01440
2789.47305,0.01429
2787.41287,0.01420
2785.35270,0.01407
2783.29253,0.01397
2781.23236,0.01388
2779.17219,0.01381
2777.11201,0.01381
2775.05184,0.01384
2772.99167,0.01382
2770.93150,0.01369
2768.87133,0.01352
2766.81115,0.01345
2764.75098,0.01337
2762.69081,0.01323
2760.63064,0.01314
2758.57046,0.01307
2756.51029,0.01299
2754.45012,0.01292
2752.38995,0.01283
2750.32978,0.01274
2748.26960,0.01268
2746.20943,0.01249
2744.14926,0.01229
2742.08909,0.01226
2740.02892,0.01234
2737.96874,0.01233
2735.90857,0.01214
2733.84840,0.01193
2731.78823,0.01183
2729.72805,0.01181
2727.66788,0.01177
2725.60771,0.01175
2723.54754,0.01171
2721.48737,0.01156
2719.42719,0.01143
2717.36702,0.01148
2715.30685,0.01160
2713.24668,0.01154
2711.18651,0.01133
2709.12633,0.01117
2707.06616,0.01112
2705.00599,0.01105
2702.94582,0.01083
2700.88565,0.01071
2698.82547,0.01072
2696.76530,0.01063
2694.70513,0.01047
2692.64496,0.01035
2690.58478,0.01030
2688.52461,0.01027
2686.46444,0.01019
2684.40427,0.01017
2682.34410,0.01022
2680.28392,0.01008
2678.22375,0.00982
2676.16358,0.00977
2674.10341,0.00981
2672.04324,0.00970
2669.98306,0.00961
2667.92289,0.00963
2665.86272,0.00967
2663.80255,0.00970
2661.74238,0.00959
2659.68220,0.00940
2657.62203,0.00938
2655.56186,0.00952
2653.50169,0.00972
2651.44151,0.00979
2649.38134,0.00953
2647.32117,0.00921
2645.26100,0.00909
2643.20083,0.00898
2641.14065,0.00884
2639.08048,0.00873
2637.02031,0.00861
2634.96014,0.00845
2632.89997,0.00840
2630.83979,0.00851
2628.77962,0.00854
2626.71945,0.00839
2624.65928,0.00835
2622.59910,0.00850
2620.53893,0.00846
2618.47876,0.00813
2616.41859,0.00784
2614.35842,0.00766
2612.29824,0.00760
2610.23807,0.00766
2608.17790,0.00774
2606.11773,0.00786
2604.05756,0.00791
2601.99738,0.00775
2599.93721,0.00759
2597.87704,0.00750
2595.81687,0.00731
2593.75670,0.00703
2591.69652,0.00700
2589.63635,0.00733
2587.57618,0.00753
2585.51601,0.00727
2583.45583,0.00688
2581.39566,0.00679
2579.33549,0.00691
2577.27532,0.00689
2575.21515,0.00684
2573.15497,0.00700
2571.09480,0.00716
2569.03463,0.00721
2566.97446,0.00726
2564.91429,0.00723
2562.85411,0.00710
2560.79394,0.00695
2558.73377,0.00684
2556.67360,0.00681
2554.61342,0.00676
2552.55325,0.00674
2550.49308,0.00676
2548.43291,0.00651
2546.37274,0.00617
2544.31256,0.00623
2542.25239,0.00659
2540.19222,0.00688
2538.13205,0.00688
2536.07188,0.00666
2534.01170,0.00653
2531.95153,0.00664
2529.89136,0.00678
2527.83119,0.00677
2525.77102,0.00679
2523.71084,0.00686
2521.65067,0.00678
2519.59050,0.00667
2517.53033,0.00659
2515.47015,0.00651
2513.40998,0.00654
2511.34981,0.00666
2509.28964,0.00676
2507.22947,0.00677
2505.16929,0.00673
2503.10912,0.00673
2501.04895,0.00668
2498.98878,0.00642
2496.92861,0.00621
2494.86843,0.00640
2492.80826,0.00683
2490.74809,0.00697
2488.68792,0.00679
2486.62775,0.00692
2484.56757,0.00746
2482.50740,0.00769
2480.44723,0.00749
2478.38706,0.00738
2476.32688,0.00746
2474.26671,0.00729
2472.20654,0.00701
2470.14637,0.00705
2468.08620,0.00719
2466.02602,0.00713
2463.96585,0.00710
2461.90568,0.00735
2459.84551,0.00779
2457.78534,0.00809
2455.72516,0.00806
2453.66499,0.00788
2451.60482,0.00763
2449.54465,0.00739
2447.48447,0.00746
2445.42430,0.00765
2443.36413,0.00766
2441.30396,0.00766
2439.24379,0.00768
2437.18361,0.00745
2435.12344,0.00723
2433.06327,0.00727
2431.00310,0.00741
2428.94293,0.00755
2426.88275,0.00761
2424.82258,0.00753
2422.76241,0.00748
2420.70224,0.00744
2418.64207,0.00731
2416.58189,0.00722
2414.52172,0.00740
2412.46155,0.00753
2410.40138,0.00736
2408.34120,0.00720
2406.28103,0.00720
2404.22086,0.00736
2402.16069,0.00755
2400.10052,0.00764
2398.04034,0.00761
2395.98017,0.00749
2393.92000,0.00728
2391.85983,0.00710
2389.79966,0.00700
2387.73948,0.00696
2385.67931,0.00707
2383.61914,0.00729
2381.55897,0.00738
2379.49880,0.00725
2377.43862,0.00689
2375.37845,0.00610
2373.31828,0.00535
2371.25811,0.00547
2369.19793,0.00619
2367.13776,0.00615
2365.07759,0.00489
2363.01742,0.00393
2360.95725,0.00534
2358.89707,0.00696
2356.83690,0.00722
2354.77673,0.00664
2352.71656,0.00666
2350.65639,0.00764
2348.59621,0.00795
2346.53604,0.00658
2344.47587,0.00670
2342.41570,0.00733
2340.35552,0.00732
2338.29535,0.00683
2336.23518,0.00612
2334.17501,0.00573
2332.11484,0.00606
2330.05466,0.00708
2327.99449,0.00792
2325.93432,0.00841
2323.87415,0.00786
2321.81398,0.00703
2319.75380,0.00657
2317.69363,0.00704
2315.63346,0.00750
2313.57329,0.00759
2311.51312,0.00772
2309.45294,0.00782
2307.39277,0.00756
2305.33260,0.00730
2303.27243,0.00747
2301.21225,0.00767
2299.15208,0.00766
2297.09191,0.00749
2295.03174,0.00729
2292.97157,0.00737
2290.91139,0.00772
2288.85122,0.00783
2286.79105,0.00756
2284.73088,0.00732
2282.67071,0.00726
2280.61053,0.00716
2278.55036,0.00699
2276.49019,0.00667
2274.43002,0.00614
2272.36984,0.00574
2270.30967,0.00572
2268.24950,0.00580
2266.18933,0.00583
2264.12916,0.00582
2262.06898,0.00582
2260.00881,0.00593
2257.94864,0.00609
2255.88847,0.00604
2253.82830,0.00573
2251.76812,0.00558
2249.70795,0.00567
2247.64778,0.00565
2245.58761,0.00564
2243.52744,0.00558
2241.46726,0.00540
2239.40709,0.00574
2237.34692,0.00613
2235.28675,0.00571
2233.22657,0.00493
2231.16640,0.00425
2229.10623,0.00416
2227.04606,0.00489
2224.98589,0.00540
2222.92571,0.00539
2220.86554,0.00540
2218.80537,0.00545
2216.74520,0.00551
2214.68503,0.00566
2212.62485,0.00581
2210.56468,0.00555
2208.50451,0.00505
2206.44434,0.00491
2204.38417,0.00474
2202.32399,0.00397
2200.26382,0.00373
2198.20365,0.00415
2196.14348,0.00387
2194.08330,0.00314
2192.02313,0.00282
2189.96296,0.00273
2187.90279,0.00262
2185.84262,0.00296
2183.78244,0.00336
2181.72227,0.00347
2179.66210,0.00351
2177.60193,0.00309
2175.54176,0.00319
2173.48158,0.00437
2171.42141,0.00554
2169.36124,0.00620
2167.30107,0.00635
2165.24089,0.00622
2163.18072,0.00525
2161.12055,0.00310
2159.06038,0.00201
2157.00021,0.00299
2154.94003,0.00378
2152.87986,0.00345
2150.81969,0.00297
2148.75952,0.00272
2146.69935,0.00247
2144.63917,0.00228
2142.57900,0.00207
2140.51883,0.00195
2138.45866,0.00186
2136.39849,0.00173
2134.33831,0.00171
2132.27814,0.00178
2130.21797,0.00180
2128.15780,0.00150
2126.09762,0.00144
2124.03745,0.00198
2121.97728,0.00255
2119.91711,0.00323
2117.85694,0.00418
2115.79676,0.00472
2113.73659,0.00459
2111.67642,0.00411
2109.61625,0.00341
2107.55608,0.00287
2105.49590,0.00274
2103.43573,0.00286
2101.37556,0.00299
2099.31539,0.00301
2097.25521,0.00273
2095.19504,0.00218
2093.13487,0.00209
2091.07470,0.00300
2089.01453,0.00423
2086.95435,0.00448
2084.89418,0.00360
2082.83401,0.00274
2080.77384,0.00237
2078.71367,0.00222
2076.65349,0.00255
2074.59332,0.00319
2072.53315,0.00326
2070.47298,0.00276
2068.41281,0.00250
2066.35263,0.00261
2064.29246,0.00287
2062.23229,0.00304
2060.17212,0.00294
2058.11194,0.00269
2056.05177,0.00256
2053.99160,0.00269
2051.93143,0.00280
2049.87126,0.00296
2047.81108,0.00338
2045.75091,0.00366
2043.69074,0.00368
2041.63057,0.00355
2039.57040,0.00328
2037.51022,0.00310
2035.45005,0.00258
2033.38988,0.00156
2031.32971,0.00100
2029.26954,0.00110
2027.20936,0.00161
2025.14919,0.00203
2023.08902,0.00163
2021.02885,0.00108
2018.96867,0.00133
2016.90850,0.00193
2014.84833,0.00168
2012.78816,0.00068
2010.72799,0.00002
2008.66781,0.00000
2006.60764,0.00050
2004.54747,0.00082
2002.48730,0.00032
2000.42713,0.00022
1998.36695,0.00116
1996.30678,0.00142
1994.24661,0.00036
1992.18644,-0.00000
1990.12626,0.00111
1988.06609,0.00178
1986.00592,0.00141
1983.94575,0.00100
1981.88558,0.00115
1979.82540,0.00175
1977.76523,0.00226
1975.70506,0.00252
1973.64489,0.00239
1971.58472,0.00191
1969.52454,0.00138
1967.46437,0.00065
1965.40420,0.00002
1963.34403,0.00000
1961.28386,0.00011
1959.22368,-0.00006
1957.16351,0.00011
1955.10334,0.00050
1953.04317,0.00038
1950.98299,0.00030
1948.92282,0.00088
1946.86265,0.00146
1944.80248,0.00145
1942.74231,0.00125
1940.68213,0.00141
1938.62196,0.00172
1936.56179,0.00177
1934.50162,0.00171
1932.44145,0.00176
1930.38127,0.00168
1928.32110,0.00115
1926.26093,0.00053
1924.20076,0.00057
1922.14059,0.00113
1920.08041,0.00132
1918.02024,0.00107
1915.96007,0.00114
1913.89990,0.00173
1911.83972,0.00224
1909.77955,0.00214
1907.71938,0.00162
1905.65921,0.00140
1903.59904,0.00155
1901.53886,0.00160
1899.47869,0.00154
1897.41852,0.00155
1895.35835,0.00157
1893.29818,0.00142
1891.23800,0.00104
1889.17783,0.00080
1887.11766,0.00109
1885.05749,0.00158
1882.99731,0.00178
1880.93714,0.00170
1878.87697,0.00165
1876.81680,0.00166
1874.75663,0.00142
1872.69645,0.00093
1870.63628,0.00060
1868.57611,0.00056
1866.51594,0.00065
1864.45577,0.00085
1862.39559,0.00121
1860.33542,0.00158
1858.27525,0.00177
1856.21508,0.00170
1854.15491,0.00159
1852.09473,0.00157
1850.03456,0.00145
1847.97439,0.00105
1845.91422,0.00066
1843.85404,0.00062
1841.79387,0.00081
1839.73370,0.00099
1837.67353,0.00118
1835.61336,0.00146
1833.55318,0.00178
1831.49301,0.00195
1829.43284,0.00185
1827.37267,0.00165
1825.31250,0.00151
1823.25232,0.00137
1821.19215,0.00130
1819.13198,0.00138
1817.07181,0.00156
1815.01163,0.00176
1812.95146,0.00184
1810.89129,0.00167
1808.83112,0.00147
1806.77095,0.00154
1804.71077,0.00186
1802.65060,0.00213
1800.59043,0.00213
1798.53026,0.00194
1796.47009,0.00189
1794.40991,0.00202
1792.34974,0.00212
1790.28957,0.00198
1788.22940,0.00182
1786.16923,0.00181
1784.10905,0.00194
1782.04888,0.00217
1779.98871,0.00231
1777.92854,0.00216
1775.86836,0.00192
1773.80819,0.00183
1771.74802,0.00194
1769.68785,0.00210
1767.62768,0.00215
1765.56750,0.00218
1763.50733,0.00229
1761.44716,0.00251
1759.38699,0.00282
1757.32682,0.00311
1755.26664,0.00333
1753.20647,0.00345
1751.14630,0.00344
1749.08613,0.00336
1747.02596,0.00343
1744.96578,0.00376
1742.90561,0.00415
1740.84544,0.00436
1738.78527,0.00440
1736.72509,0.00437
1734.66492,0.00423
1732.60475,0.00399
1730.54458,0.00397
1728.48441,0.00421
1726.42423,0.00447
1724.36406,0.00463
1722.30389,0.00483
1720.24372,0.00515
1718.18355,0.00528
1716.12337,0.00510
1714.06320,0.00510
1712.00303,0.00538
1709.94286,0.00560
1707.88268,0.00569
1705.82251,0.00588
1703.76234,0.00632
1701.70217,0.00697
1699.64200,0.00766
1697.58182,0.00807
1695.52165,0.00837
1693.46148,0.00876
1691.40131,0.00919
1689.34114,0.00972
1687.28096,0.01035
1685.22079,0.01095
1683.16062,0.01152
1681.10045,0.01222
1679.04028,0.01302
1676.98010,0.01374
1674.91993,0.01431
1672.85976,0.01485
1670.79959,0.01549
1668.73941,0.01609
1666.67924,0.01653
1664.61907,0.01695
1662.55890,0.01748
1660.49873,0.01803
1658.43855,0.01841
1656.37838,0.01857
1654.31821,0.01859
1652.25804,0.01855
1650.19787,0.01854
1648.13769,0.01840
1646.07752,0.01816
1644.01735,0.01806
1641.95718,0.01805
1639.89701,0.01794
1637.83683,0.01778
1635.77666,0.01760
1633.71649,0.01738
1631.65632,0.01709
1629.59614,0.01673
1627.53597,0.01635
1625.47580,0.01601
1623.41563,0.01561
1621.35546,0.01527
1619.29528,0.01511
1617.23511,0.01494
1615.17494,0.01464
1613.11477,0.01443
1611.05460,0.01437
1608.99442,0.01424
1606.93425,0.01397
1604.87408,0.01367
1602.81391,0.01345
1600.75373,0.01334
1598.69356,0.01327
1596.63339,0.01304
1594.57322,0.01268
1592.51305,0.01236
1590.45287,0.01213
1588.39270,0.01198
1586.33253,0.01188
1584.27236,0.01168
1582.21219,0.01139
1580.15201,0.01114
1578.09184,0.01091
1576.03167,0.01052
1573.97150,0.01010
1571.91133,0.00984
1569.85115,0.00966
1567.79098,0.00947
1565.73081,0.00930
1563.67064,0.00921
1561.61046,0.00923
1559.55029,0.00923
1557.49012,0.00920
1555.42995,0.00914
1553.36978,0.00898
1551.30960,0.00881
1549.24943,0.00878
1547.18926,0.00889
1545.12909,0.00895
1543.06892,0.00867
1541.00874,0.00802
1538.94857,0.00749
1536.88840,0.00738
1534.82823,0.00731
1532.76805,0.00702
1530.70788,0.00674
1528.64771,0.00661
1526.58754,0.00651
1524.52737,0.00639
1522.46719,0.00635
1520.40702,0.00634
1518.34685,0.00614
1516.28668,0.00568
1514.22651,0.00518
1512.16633,0.00491
1510.10616,0.00483
1508.04599,0.00468
1505.98582,0.00440
1503.92565,0.00425
1501.86547,0.00423
1499.80530,0.00418
1497.74513,0.00402
1495.68496,0.00381
1493.62478,0.00372
1491.56461,0.00365
1489.50444,0.00341
1487.44427,0.00315
1485.38410,0.00302
1483.32392,0.00296
1481.26375,0.00296
1479.20358,0.00312
1477.14341,0.00337
1475.08324,0.00355
1473.02306,0.00368
1470.96289,0.00387
1468.90272,0.00400
1466.84255,0.00405
1464.78238,0.00412
1462.72220,0.00428
1460.66203,0.00455
1458.60186,0.00487
1456.54169,0.00490
1454.48151,0.00465
1452.42134,0.00442
1450.36117,0.00428
1448.30100,0.00421
1446.24083,0.00424
1444.18065,0.00439
1442.12048,0.00453
1440.06031,0.00451
1438.00014,0.00436
1435.93997,0.00421
1433.87979,0.00416
1431.81962,0.00426
1429.75945,0.00453
1427.69928,0.00492
1425.63910,0.00525
1423.57893,0.00542
1421.51876,0.00553
1419.45859,0.00557
1417.39842,0.00555
1415.33824,0.00560
1413.27807,0.00572
1411.21790,0.00576
1409.15773,0.00569
1407.09756,0.00560
1405.03738,0.00553
1402.97721,0.00547
1400.91704,0.00532
1398.85687,0.00508
1396.79670,0.00489
1394.73652,0.00481
1392.67635,0.00474
1390.61618,0.00465
1388.55601,0.00454
1386.49583,0.00443
1384.43566,0.00442
1382.37549,0.00442
1380.31532,0.00433
1378.25515,0.00423
1376.19497,0.00425
1374.13480,0.00429
1372.07463,0.00422
1370.01446,0.00407
1367.95429,0.00398
1365.89411,0.00399
1363.83394,0.00399
1361.77377,0.00395
1359.71360,0.00389
1357.65343,0.00378
1355.59325,0.00366
1353.53308,0.00359
1351.47291,0.00351
1349.41274,0.00340
1347.35256,0.00327
1345.29239,0.00313
1343.23222,0.00307
1341.17205,0.00308
1339.11188,0.00304
1337.05170,0.00296
1334.99153,0.00289
1332.93136,0.00286
1330.87119,0.00286
1328.81102,0.00290
1326.75084,0.00298
1324.69067,0.00310
1322.63050,0.00319
1320.57033,0.00320
1318.51015,0.00317
1316.44998,0.00321
1314.38981,0.00330
1312.32964,0.00337
1310.26947,0.00344
1308.20929,0.00359
1306.14912,0.00366
1304.08895,0.00349
1302.02878,0.00329
1299.96861,0.00337
1297.90843,0.00363
1295.84826,0.00388
1293.78809,0.00410
1291.72792,0.00419
1289.66775,0.00412
1287.60757,0.00400
1285.54740,0.00393
1283.48723,0.00393
1281.42706,0.00398
1279.36688,0.00402
1277.30671,0.00402
1275.24654,0.00402
1273.18637,0.00397
1271.12620,0.00387
1269.06602,0.00386
1267.00585,0.00393
1264.94568,0.00394
1262.88551,0.00395
1260.82534,0.00409
1258.76516,0.00426
1256.70499,0.00433
1254.64482,0.00434
1252.58465,0.00433
1250.52447,0.00428
1248.46430,0.00422
1246.40413,0.00416
1244.34396,0.00408
1242.28379,0.00397
1240.22361,0.00380
1238.16344,0.00354
1236.10327,0.00329
1234.04310,0.00317
1231.98293,0.00305
1229.92275,0.00280
1227.86258,0.00253
1225.80241,0.00235
1223.74224,0.00227
1221.68207,0.00219
1219.62189,0.00197
1217.56172,0.00164
1215.50155,0.00130
1213.44138,0.00101
1211.38120,0.00084
1209.32103,0.00081
1207.26086,0.00075
1205.20069,0.00046
1203.14052,0.00015
1201.08034,0.00000
1199.02017,-0.00003
1196.96000,0.00009
1194.89983,0.00019
1192.83966,0.00010
1190.77948,0.00002
1188.71931,0.00006
1186.65914,0.00009
1184.59897,0.00012
1182.53880,0.00022
1180.47862,0.00047
1178.41845,0.00081
1176.35828,0.00110
1174.29811,0.00137
1172.23793,0.00168
1170.17776,0.00211
1168.11759,0.00256
1166.05742,0.00294
1163.99725,0.00329
1161.93707,0.00370
1159.87690,0.00417
1157.81673,0.00475
1155.75656,0.00538
1153.69639,0.00603
1151.63621,0.00678
1149.57604,0.00764
1147.51587,0.00854
1145.45570,0.00939
1143.39552,0.01023
1141.33535,0.01121
1139.27518,0.01220
1137.21501,0.01319
1135.15484,0.01435
1133.09466,0.01557
1131.03449,0.01667
1128.97432,0.01773
1126.91415,0.01895
1124.85398,0.02039
1122.79380,0.02192
1120.73363,0.02328
1118.67346,0.02450
1116.61329,0.02583
1114.55312,0.02717
1112.49294,0.02839
1110.43277,0.02962
1108.37260,0.03083
1106.31243,0.03189
1104.25225,0.03299
1102.19208,0.03405
1100.13191,0.03497
1098.07174,0.03589
1096.01157,0.03690
1093.95139,0.03788
1091.89122,0.03873
1089.83105,0.03942
1087.77088,0.04008
1085.71071,0.04075
1083.65053,0.04136
1081.59036,0.04205
1079.53019,0.04289
1077.47002,0.04366
1075.40985,0.04422
1073.34967,0.04452
1071.28950,0.04466
1069.22933,0.04483
1067.16916,0.04501
1065.10898,0.04506
1063.04881,0.04492
1060.98864,0.04464
1058.92847,0.04422
1056.86830,0.04377
1054.80812,0.04323
1052.74795,0.04230
1050.68778,0.04096
1048.62761,0.03959
1046.56744,0.03820
1044.50726,0.03667
1042.44709,0.03510
1040.38692,0.03361
1038.32675,0.03210
1036.26657,0.03052
1034.20640,0.02885
1032.14623,0.02701
1030.08606,0.02530
1028.02589,0.02398
1025.96571,0.02277
1023.90554,0.02159
1021.84537,0.02053
1019.78520,0.01959
1017.72503,0.01880
1015.66485,0.01814
1013.60468,0.01765
1011.54451,0.01743
1009.48434,0.01764
1007.42417,0.01815
1005.36399,0.01872
1003.30382,0.01936
1001.24365,0.02026
999.18348,0.02136
997.12330,0.02233
995.06313,0.02334
993.00296,0.02452
990.94279,0.02551
988.88262,0.02630
986.82244,0.02703
984.76227,0.02753
982.70210,0.02786
980.64193,0.02816
978.58176,0.02818
976.52158,0.02798
974.46141,0.02782
972.40124,0.02744
970.34107,0.02651
968.28089,0.02528
966.22072,0.02417
964.16055,0.02324
962.10038,0.02239
960.04021,0.02146
957.98003,0.02020
955.91986,0.01870
953.85969,0.01734
951.79952,0.01623
949.73935,0.01530
947.67917,0.01435
945.61900,0.01323
943.55883,0.01216
941.49866,0.01139
939.43849,0.01072
937.37831,0.00978
935.31814,0.00869
933.25797,0.00776
931.19780,0.00712
929.13762,0.00685
927.07745,0.00675
925.01728,0.00629
922.95711,0.00558
920.89694,0.00519
918.83676,0.00501
916.77659,0.00477
914.71642,0.00450
912.65625,0.00420
910.59608,0.00392
908.53590,0.00380
906.47573,0.00376
904.41556,0.00374
902.35539,0.00381
900.29522,0.00401
898.23504,0.00422
896.17487,0.00443
894.11470,0.00476
892.05453,0.00520
889.99435,0.00571
887.93418,0.00626
885.87401,0.00672
883.81384,0.00700
881.75367,0.00742
879.69349,0.00813
877.63332,0.00868
875.57315,0.00909
873.51298,0.00963
871.45281,0.01020
869.39263,0.01074
867.33246,0.01122
865.27229,0.01158
863.21212,0.01179
861.15194,0.01183
859.09177,0.01175
857.03160,0.01164
854.97143,0.01172
852.91126,0.01207
850.85108,0.01241
848.79091,0.01240
846.73074,0.01199
844.67057,0.01127
842.61040,0.01064
840.55022,0.01027
838.49005,0.00997
836.42988,0.00960
834.36971,0.00913
832.30954,0.00858
830.24936,0.00809
828.18919,0.00763
826.12902,0.00717
824.06885,0.00674
822.00867,0.00614
819.94850,0.00544
817.88833,0.00511
815.82816,0.00505
813.76799,0.00483
811.70781,0.00449
809.64764,0.00414
807.58747,0.00382
805.52730,0.00363
803.46713,0.00335
801.40695,0.00278
799.34678,0.00229
797.28661,0.00198
795.22644,0.00179
793.16627,0.00196
791.10609,0.00225
789.04592,0.00219
786.98575,0.00206
784.92558,0.00206
782.86540,0.00191
780.80523,0.00167
778.74506,0.00144
776.68489,0.00124
774.62472,0.00134
772.56454,0.00156
770.50437,0.00160
768.44420,0.00152
766.38403,0.00136
764.32386,0.00135
762.26368,0.00149
760.20351,0.00129
758.14334,0.00092
756.08317,0.00076
754.02299,0.00080
751.96282,0.00105
749.90265,0.00110
747.84248,0.00075
745.78231,0.00047
743.72213,0.00046
741.66196,0.00061
739.60179,0.00060
737.54162,0.00032
735.48145,0.00053
733.42127,0.00129
731.36110,0.00170
729.30093,0.00150
727.24076,0.00100
725.18059,0.00067
723.12041,0.00094
721.06024,0.00123
719.00007,0.00149
716.93990,0.00139
714.87972,0.00114
712.81955,0.00106
710.75938,0.00101
708.69921,0.00095
706.63904,0.00116
704.57886,0.00170
702.51869,0.00219
700.45852,0.00212
698.39835,0.00155
696.33818,0.00095
694.27800,0.00087
692.21783,0.00134
690.15766,0.00195
688.09749,0.00241
686.03731,0.00251
683.97714,0.00225
681.91697,0.00210
679.85680,0.00232
677.79663,0.00247
675.73645,0.00235
673.67628,0.00277
671.61611,0.00408
669.55594,0.00375
667.49577,0.00184
665.43559,0.00337
663.37542,0.00249
661.31525,0.00212
659.25508,0.00255
657.19491,0.00297
655.13473,0.00321
653.07456,0.00332
651.01439,0.00316
648.95422,0.00286
646.89404,0.00298
644.83387,0.00292
642.77370,0.00207
640.71353,0.00076
638.65336,0.00000
636.59318,0.00028
634.53301,0.00111
632.47284,0.00103
630.41267,-0.00009
628.35250,-0.00095
626.29232,0.00014
624.23215,0.00289
622.17198,0.00418
620.11181,0.00276
618.05164,0.00026
615.99146,-0.00207
613.93129,-0.00314
611.87112,-0.00252
609.81095,-0.00165
607.75077,-0.00144
605.69060,-0.00199
603.63043,-0.00237
601.57026,-0.00136
599.51009,0.00000
