3996.73391,0.00026
3994.67373,0.00025
3992.61356,0.00012
3990.55339,0.00001
3988.49322,0.00003
3986.43305,0.00007
3984.37287,0.00010
3982.31270,0.00014
3980.25253,0.00024
3978.19236,0.00044
3976.13219,0.00072
3974.07201,0.00089
3972.01184,0.00077
3969.95167,0.00056
3967.89150,0.00056
3965.83133,0.00063
3963.77115,0.00053
3961.71098,0.00044
3959.65081,0.00058
3957.59064,0.00086
3955.53046,0.00099
3953.47029,0.00083
3951.41012,0.00048
3949.34995,0.00014
3947.28978,0.00000
3945.22960,0.00006
3943.16943,0.00013
3941.10926,0.00015
3939.04909,0.00019
3936.98892,0.00019
3934.92874,0.00014
3932.86857,0.00011
3930.80840,0.00013
3928.74823,0.00013
3926.68805,0.00015
3924.62788,0.00027
3922.56771,0.00025
3920.50754,0.00007
3918.44737,0.00015
3916.38719,0.00063
3914.32702,0.00099
3912.26685,0.00096
3910.20668,0.00082
3908.14651,0.00089
3906.08633,0.00121
3904.02616,0.00152
3901.96599,0.00163
3899.90582,0.00156
3897.84565,0.00138
3895.78547,0.00102
3893.72530,0.00037
3891.66513,-0.00017
3889.60496,-0.00017
3887.54478,-0.00000
3885.48461,0.00017
3883.42444,0.00044
3881.36427,0.00064
3879.30410,0.00066
3877.24392,0.00043
3875.18375,0.00010
3873.12358,-0.00001
3871.06341,0.00032
3869.00324,0.00096
3866.94306,0.00121
3864.88289,0.00095
3862.82272,0.00068
3860.76255,0.00053
3858.70237,0.00031
3856.64220,0.00000
3854.58203,0.00001
3852.52186,0.00054
3850.46169,0.00093
3848.40151,0.00080
3846.34134,0.00054
3844.28117,0.00064
3842.22100,0.00117
3840.16083,0.00159
3838.10065,0.00159
3836.04048,0.00138
3833.98031,0.00131
3831.92014,0.00132
3829.85997,0.00122
3827.79979,0.00104
3825.73962,0.00084
3823.67945,0.00075
3821.61928,0.00100
3819.55910,0.00142
3817.49893,0.00149
3815.43876,0.00117
3813.37859,0.00079
3811.31842,0.00061
3809.25824,0.00069
3807.19807,0.00077
3805.13790,0.00056
3803.07773,0.00047
3801.01756,0.00087
3798.95738,0.00103
3796.89721,0.00069
3794.83704,0.00054
3792.77687,0.00074
3790.71670,0.00096
3788.65652,0.00105
3786.59635,0.00103
3784.53618,0.00097
3782.47601,0.00085
3780.41583,0.00075
3778.35566,0.00091
3776.29549,0.00121
3774.23532,0.00130
3772.17515,0.00101
3770.11497,0.00053
3768.05480,0.00044
3765.99463,0.00089
3763.93446,0.00124
3761.87429,0.00128
3759.81411,0.00148
3757.75394,0.00169
3755.69377,0.00143
3753.63360,0.00107
3751.57342,0.00105
3749.51325,0.00105
3747.45308,0.00059
3745.39291,0.00001
3743.33274,0.00016
3741.27256,0.00085
3739.21239,0.00121
3737.15222,0.00128
3735.09205,0.00139
3733.03188,0.00139
3730.97170,0.00123
3728.91153,0.00106
3726.85136,0.00095
3724.79119,0.00103
3722.73102,0.00119
3720.67084,0.00118
3718.61067,0.00088
3716.55050,0.00056
3714.49033,0.00070
3712.43015,0.00145
3710.36998,0.00237
3708.30981,0.00270
3706.24964,0.00220
3704.18947,0.00157
3702.12929,0.00169
3700.06912,0.00219
3698.00895,0.00211
3695.94878,0.00152
3693.88861,0.00099
3691.82843,0.00085
3689.76826,0.00118
3687.70809,0.00163
3685.64792,0.00150
3683.58775,0.00093
3681.52757,0.00060
3679.46740,0.00072
3677.40723,0.00089
3675.34706,0.00098
3673.28688,0.00102
3671.22671,0.00104
3669.16654,0.00139
3667.10637,0.00183
3665.04620,0.00195
3662.98602,0.00199
3660.92585,0.00208
3658.86568,0.00204
3656.80551,0.00198
3654.74534,0.00221
3652.68516,0.00269
3650.62499,0.00326
3648.56482,0.00369
3646.50465,0.00384
3644.44447,0.00388
3642.38430,0.00403
3640.32413,0.00433
3638.26396,0.00457
3636.20379,0.00478
3634.14361,0.00488
3632.08344,0.00464
3630.02327,0.00451
3627.96310,0.00524
3625.90293,0.00608
3623.84275,0.00627
3621.78258,0.00606
3619.72241,0.00584
3617.66224,0.00587
3615.60207,0.00605
3613.54189,0.00630
3611.48172,0.00674
3609.42155,0.00719
3607.36138,0.00745
3605.30120,0.00771
3603.24103,0.00804
3601.18086,0.00831
3599.12069,0.00850
3597.06052,0.00871
3595.00034,0.00921
3592.94017,0.00976
3590.88000,0.00988
3588.81983,0.01000
3586.75966,0.01047
3584.69948,0.01065
3582.63931,0.01039
3580.57914,0.01000
3578.51897,0.00970
3576.45879,0.00979
3574.39862,0.01023
3572.33845,0.01067
3570.27828,0.01082
3568.21811,0.01091
3566.15793,0.01142
3564.09776,0.01211
3562.03759,0.01252
3559.97742,0.01271
3557.91725,0.01287
3555.85707,0.01301
3553.79690,0.01306
3551.73673,0.01309
3549.67656,0.01311
3547.61639,0.01301
3545.55621,0.01302
3543.49604,0.01335
3541.43587,0.01380
3539.37570,0.01417
3537.31552,0.01445
3535.25535,0.01461
3533.19518,0.01477
3531.13501,0.01518
3529.07484,0.01563
3527.01466,0.01575
3524.95449,0.01586
3522.89432,0.01623
3520.83415,0.01658
3518.77398,0.01671
3516.71380,0.01672
3514.65363,0.01682
3512.59346,0.01713
3510.53329,0.01744
3508.47312,0.01764
3506.41294,0.01784
3504.35277,0.01801
3502.29260,0.01812
3500.23243,0.01817
3498.17225,0.01815
3496.11208,0.01818
3494.05191,0.01839
3491.99174,0.01870
3489.93157,0.01902
3487.87139,0.01935
3485.81122,0.01967
3483.75105,0.01988
3481.69088,0.02005
3479.63071,0.02040
3477.57053,0.02075
3475.51036,0.02091
3473.45019,0.02112
3471.39002,0.02125
3469.32984,0.02128
3467.26967,0.02154
3465.20950,0.02180
3463.14933,0.02187
3461.08916,0.02203
3459.02898,0.02235
3456.96881,0.02264
3454.90864,0.02273
3452.84847,0.02277
3450.78830,0.02307
3448.72812,0.02352
3446.66795,0.02376
3444.60778,0.02370
3442.54761,0.02369
3440.48744,0.02382
3438.42726,0.02408
3436.36709,0.02443
3434.30692,0.02465
3432.24675,0.02470
3430.18657,0.02473
3428.12640,0.02474
3426.06623,0.02474
3424.00606,0.02485
3421.94589,0.02501
3419.88571,0.02491
3417.82554,0.02481
3415.76537,0.02524
3413.70520,0.02573
3411.64503,0.02583
3409.58485,0.02596
3407.52468,0.02623
3405.46451,0.02619
3403.40434,0.02597
3401.34416,0.02597
3399.28399,0.02599
3397.22382,0.02606
3395.16365,0.02618
3393.10348,0.02634
3391.04330,0.02646
3388.98313,0.02668
3386.92296,0.02695
3384.86279,0.02705
3382.80262,0.02693
3380.74244,0.02686
3378.68227,0.02702
3376.62210,0.02706
3374.56193,0.02693
3372.50176,0.02701
3370.44158,0.02716
3368.38141,0.02720
3366.32124,0.02721
3364.26107,0.02721
3362.20089,0.02735
3360.14072,0.02762
3358.08055,0.02776
3356.02038,0.02771
3353.96021,0.02760
3351.90003,0.02763
3349.83986,0.02780
3347.77969,0.02792
3345.71952,0.02796
3343.65935,0.02802
3341.59917,0.02810
3339.53900,0.02818
3337.47883,0.02834
3335.41866,0.02854
3333.35849,0.02861
3331.29831,0.02832
3329.23814,0.02805
3327.17797,0.02830
3325.11780,0.02861
3323.05762,0.02860
3320.99745,0.02848
3318.93728,0.02831
3316.87711,0.02822
3314.81694,0.02853
3312.75676,0.02903
3310.69659,0.02921
3308.63642,0.02891
3306.57625,0.02864
3304.51608,0.02886
3302.45590,0.02920
3300.39573,0.02912
3298.33556,0.02884
3296.27539,0.02871
3294.21521,0.02875
3292.15504,0.02889
3290.09487,0.02902
3288.03470,0.02903
3285.97453,0.02902
3283.91435,0.02909
3281.85418,0.02909
3279.79401,0.02899
3277.73384,0.02892
3275.67367,0.02897
3273.61349,0.02900
3271.55332,0.02903
3269.49315,0.02921
3267.43298,0.02932
3265.37281,0.02930
3263.31263,0.02941
3261.25246,0.02960
3259.19229,0.02971
3257.13212,0.02967
3255.07194,0.02935
3253.01177,0.02897
3250.95160,0.02886
3248.89143,0.02909
3246.83126,0.02940
3244.77108,0.02976
3242.71091,0.03032
3240.65074,0.03072
3238.59057,0.03058
3236.53040,0.03013
3234.47022,0.02972
3232.41005,0.02965
3230.34988,0.03006
3228.28971,0.03048
3226.22954,0.03045
3224.16936,0.03018
3222.10919,0.02992
3220.04902,0.02977
3217.98885,0.02986
3215.92867,0.02998
3213.86850,0.02993
3211.80833,0.02989
3209.74816,0.02998
3207.68799,0.02998
3205.62781,0.02977
3203.56764,0.02959
3201.50747,0.02963
3199.44730,0.02976
3197.38713,0.02985
3195.32695,0.02986
3193.26678,0.02995
3191.20661,0.03012
3189.14644,0.03008
3187.08626,0.02986
3185.02609,0.02964
3182.96592,0.02951
3180.90575,0.02957
3178.84558,0.02957
3176.78540,0.02937
3174.72523,0.02916
3172.66506,0.02914
3170.60489,0.02924
3168.54472,0.02917
3166.48454,0.02898
3164.42437,0.02900
3162.36420,0.02917
3160.30403,0.02906
3158.24386,0.02869
3156.18368,0.02839
3154.12351,0.02834
3152.06334,0.02847
3150.00317,0.02860
3147.94299,0.02863
3145.88282,0.02855
3143.82265,0.02846
3141.76248,0.02836
3139.70231,0.02829
3137.64213,0.02831
3135.58196,0.02833
3133.52179,0.02830
3131.46162,0.02830
3129.40145,0.02828
3127.34127,0.02819
3125.28110,0.02811
3123.22093,0.02816
3121.16076,0.02820
3119.10058,0.02797
3117.04041,0.02768
3114.98024,0.02764
3112.92007,0.02774
3110.85990,0.02773
3108.79972,0.02750
3106.73955,0.02717
3104.67938,0.02705
3102.61921,0.02718
3100.55904,0.02725
3098.49886,0.02714
3096.43869,0.02717
3094.37852,0.02738
3092.31835,0.02735
3090.25818,0.02706
3088.19800,0.02694
3086.13783,0.02697
3084.07766,0.02685
3082.01749,0.02677
3079.95731,0.02687
3077.89714,0.02689
3075.83697,0.02666
3073.77680,0.02627
3071.71663,0.02601
3069.65645,0.02606
3067.59628,0.02616
3065.53611,0.02611
3063.47594,0.02600
3061.41577,0.02586
3059.35559,0.02564
3057.29542,0.02535
3055.23525,0.02509
3053.17508,0.02498
3051.11491,0.02491
3049.05473,0.02488
3046.99456,0.02498
3044.93439,0.02500
3042.87422,0.02480
3040.81404,0.02449
3038.75387,0.02418
3036.69370,0.02398
3034.63353,0.02389
3032.57336,0.02384
3030.51318,0.02375
3028.45301,0.02353
3026.39284,0.02326
3024.33267,0.02318
3022.27250,0.02322
3020.21232,0.02314
3018.15215,0.02300
3016.09198,0.02296
3014.03181,0.02299
3011.97163,0.02306
3009.91146,0.02300
3007.85129,0.02262
3005.79112,0.02213
3003.73095,0.02186
3001.67077,0.02177
2999.61060,0.02171
2997.55043,0.02164
2995.49026,0.02164
2993.43009,0.02163
2991.36991,0.02151
2989.30974,0.02130
2987.24957,0.02114
2985.18940,0.02114
2983.12923,0.02110
2981.06905,0.02094
2979.00888,0.02087
2976.94871,0.02085
2974.88854,0.02068
2972.82836,0.02053
2970.76819,0.02054
2968.70802,0.02049
2966.64785,0.02044
2964.58768,0.02063
2962.52750,0.02063
2960.46733,0.02018
2958.40716,0.01978
2956.34699,0.01970
2954.28682,0.01981
2952.22664,0.01990
2950.16647,0.01987
2948.10630,0.01989
2946.04613,0.01988
2943.98596,0.01973
2941.92578,0.01957
2939.86561,0.01957
2937.80544,0.01962
2935.74527,0.01959
2933.68509,0.01943
2931.62492,0.01919
2929.56475,0.01883
2927.50458,0.01852
2925.44441,0.01860
2923.38423,0.01892
2921.32406,0.01913
2919.26389,0.01917
2917.20372,0.01909
2915.14355,0.01887
2913.08337,0.01842
2911.02320,0.01785
2908.96303,0.01748
2906.90286,0.01742
2904.84268,0.01745
2902.78251,0.01732
2900.72234,0.01704
2898.66217,0.01683
2896.60200,0.01677
2894.54182,0.01673
2892.48165,0.01663
2890.42148,0.01654
2888.36131,0.01647
2886.30114,0.01647
2884.24096,0.01640
2882.18079,0.01602
2880.12062,0.01559
2878.06045,0.01540
2876.00028,0.01539
2873.94010,0.01547
2871.87993,0.01546
2869.81976,0.01536
2867.75959,0.01533
2865.69941,0.01531
2863.63924,0.01531
2861.57907,0.01524
2859.51890,0.01513
2857.45873,0.01517
2855.39855,0.01521
2853.33838,0.01502
2851.27821,0.01474
2849.21804,0.01465
2847.15787,0.01470
2845.09769,0.01454
2843.03752,0.01405
2840.97735,0.01358
2838.91718,0.01343
2836.85700,0.01347
2834.79683,0.01358
2832.73666,0.01369
2830.67649,0.01358
2828.61632,0.01330
2826.55614,0.01301
2824.49597,0.01274
2822.43580,0.01262
2820.37563,0.01268
2818.31546,0.01275
2816.25528,0.01266
2814.19511,0.01250
2812.13494,0.01234
2810.07477,0.01217
2808.01460,0.01203
2805.95442,0.01198
2803.89425,0.01197
2801.83408,0.01189
2799.77391,0.01181
2797.71373,0.01184
2795.65356,0.01187
2793.59339,0.01182
2791.53322,0.01170
2789.47305,0.01151
2787.41287,0.01136
2785.35270,0.01134
2783.29253,0.01135
2781.23236,0.01130
2779.17219,0.01124
2777.11201,0.01117
2775.05184,0.01098
2772.99167,0.01069
2770.93150,0.01050
2768.87133,0.01043
2766.81115,0.01029
2764.75098,0.01013
2762.69081,0.01006
2760.63064,0.01000
2758.57046,0.00988
2756.51029,0.00982
2754.45012,0.00987
2752.38995,0.00994
2750.32978,0.00990
2748.26960,0.00972
2746.20943,0.00955
2744.14926,0.00951
2742.08909,0.00959
2740.02892,0.00956
2737.96874,0.00933
2735.90857,0.00909
2733.84840,0.00898
2731.78823,0.00904
2729.72805,0.00914
2727.66788,0.00915
2725.60771,0.00917
2723.54754,0.00914
2721.48737,0.00893
2719.42719,0.00877
2717.36702,0.00871
2715.30685,0.00856
2713.24668,0.00836
2711.18651,0.00833
2709.12633,0.00847
2707.06616,0.00860
2705.00599,0.00856
2702.94582,0.00838
2700.88565,0.00820
2698.82547,0.00810
2696.76530,0.00793
2694.70513,0.00771
2692.64496,0.00767
2690.58478,0.00774
2688.52461,0.00778
2686.46444,0.00775
2684.40427,0.00756
2682.34410,0.00731
2680.28392,0.00718
2678.22375,0.00715
2676.16358,0.00723
2674.10341,0.00739
2672.04324,0.00749
2669.98306,0.00740
2667.92289,0.00706
2665.86272,0.00682
2663.80255,0.00686
2661.74238,0.00696
2659.68220,0.00698
2657.62203,0.00694
2655.56186,0.00692
2653.50169,0.00684
2651.44151,0.00670
2649.38134,0.00672
2647.32117,0.00689
2645.26100,0.00685
2643.20083,0.00657
2641.14065,0.00632
2639.08048,0.00631
2637.02031,0.00645
2634.96014,0.00648
2632.89997,0.00645
2630.83979,0.00642
2628.77962,0.00635
2626.71945,0.00632
2624.65928,0.00611
2622.59910,0.00566
2620.53893,0.00550
2618.47876,0.00573
2616.41859,0.00586
2614.35842,0.00574
2612.29824,0.00576
2610.23807,0.00582
2608.17790,0.00560
2606.11773,0.00542
2604.05756,0.00554
2601.99738,0.00569
2599.93721,0.00569
2597.87704,0.00565
2595.81687,0.00557
2593.75670,0.00541
2591.69652,0.00527
2589.63635,0.00521
2587.57618,0.00526
2585.51601,0.00538
2583.45583,0.00550
2581.39566,0.00556
2579.33549,0.00550
2577.27532,0.00547
2575.21515,0.00543
2573.15497,0.00518
2571.09480,0.00496
2569.03463,0.00518
2566.97446,0.00562
2564.91429,0.00566
2562.85411,0.00521
2560.79394,0.00469
2558.73377,0.00451
2556.67360,0.00480
2554.61342,0.00527
2552.55325,0.00536
2550.49308,0.00506
2548.43291,0.00475
2546.37274,0.00461
2544.31256,0.00459
2542.25239,0.00474
2540.19222,0.00512
2538.13205,0.00542
2536.07188,0.00540
2534.01170,0.00529
2531.95153,0.00518
2529.89136,0.00509
2527.83119,0.00510
2525.77102,0.00513
2523.71084,0.00526
2521.65067,0.00554
2519.59050,0.00557
2517.53033,0.00532
2515.47015,0.00494
2513.40998,0.00463
2511.34981,0.00494
2509.28964,0.00554
2507.22947,0.00568
2505.16929,0.00554
2503.10912,0.00546
2501.04895,0.00538
2498.98878,0.00512
2496.92861,0.00480
2494.86843,0.00472
2492.80826,0.00485
2490.74809,0.00493
2488.68792,0.00488
2486.62775,0.00484
2484.56757,0.00502
2482.50740,0.00525
2480.44723,0.00537
2478.38706,0.00560
2476.32688,0.00589
2474.26671,0.00594
2472.20654,0.00589
2470.14637,0.00589
2468.08620,0.00580
2466.02602,0.00571
2463.96585,0.00573
2461.90568,0.00573
2459.84551,0.00580
2457.78534,0.00588
2455.72516,0.00591
2453.66499,0.00585
2451.60482,0.00557
2449.54465,0.00535
2447.48447,0.00565
2445.42430,0.00603
2443.36413,0.00595
2441.30396,0.00586
2439.24379,0.00602
2437.18361,0.00618
2435.12344,0.00598
2433.06327,0.00576
2431.00310,0.00592
2428.94293,0.00604
2426.88275,0.00607
2424.82258,0.00597
2422.76241,0.00551
2420.70224,0.00515
2418.64207,0.00540
2416.58189,0.00586
2414.52172,0.00589
2412.46155,0.00573
2410.40138,0.00568
2408.34120,0.00551
2406.28103,0.00522
2404.22086,0.00523
2402.16069,0.00554
2400.10052,0.00568
2398.04034,0.00555
2395.98017,0.00538
2393.92000,0.00539
2391.85983,0.00552
2389.79966,0.00563
2387.73948,0.00573
2385.67931,0.00583
2383.61914,0.00586
2381.55897,0.00589
2379.49880,0.00620
2377.43862,0.00685
2375.37845,0.00748
2373.31828,0.00804
2371.25811,0.00827
2369.19793,0.00781
2367.13776,0.00701
2365.07759,0.00605
2363.01742,0.00503
2360.95725,0.00573
2358.89707,0.00643
2356.83690,0.00617
2354.77673,0.00652
2352.71656,0.00719
2350.65639,0.00746
2348.59621,0.00720
2346.53604,0.00618
2344.47587,0.00668
2342.41570,0.00691
2340.35552,0.00674
2338.29535,0.00735
2336.23518,0.00803
2334.17501,0.00836
2332.11484,0.00855
2330.05466,0.00880
2327.99449,0.00890
2325.93432,0.00901
2323.87415,0.00842
2321.81398,0.00774
2319.75380,0.00737
2317.69363,0.00755
2315.63346,0.00747
2313.57329,0.00707
2311.51312,0.00663
2309.45294,0.00631
2307.39277,0.00604
2305.33260,0.00571
2303.27243,0.00555
2301.21225,0.00558
2299.15208,0.00584
2297.09191,0.00626
2295.03174,0.00656
2292.97157,0.00673
2290.91139,0.00683
2288.85122,0.00667
2286.79105,0.00622
2284.73088,0.00580
2282.67071,0.00554
2280.61053,0.00521
2278.55036,0.00480
2276.49019,0.00480
2274.43002,0.00531
2272.36984,0.00565
2270.30967,0.00548
2268.24950,0.00510
2266.18933,0.00486
2264.12916,0.00484
2262.06898,0.00513
2260.00881,0.00553
2257.94864,0.00566
2255.88847,0.00553
2253.82830,0.00517
2251.76812,0.00491
2249.70795,0.00495
2247.64778,0.00454
2245.58761,0.00405
2243.52744,0.00431
2241.46726,0.00480
2239.40709,0.00541
2237.34692,0.00577
2235.28675,0.00525
2233.22657,0.00471
2231.16640,0.00451
2229.10623,0.00439
2227.04606,0.00442
2224.98589,0.00434
2222.92571,0.00432
2220.86554,0.00457
2218.80537,0.00457
2216.74520,0.00430
2214.68503,0.00417
2212.62485,0.00432
2210.56468,0.00471
2208.50451,0.00512
2206.44434,0.00506
2204.38417,0.00421
2202.32399,0.00321
2200.26382,0.00298
2198.20365,0.00346
2196.14348,0.00386
2194.08330,0.00370
2192.02313,0.00337
2189.96296,0.00321
2187.90279,0.00322
2185.84262,0.00251
2183.78244,0.00122
2181.72227,0.00156
2179.66210,0.00328
2177.60193,0.00389
2175.54176,0.00360
2173.48158,0.00422
2171.42141,0.00488
2169.36124,0.00457
2167.30107,0.00386
2165.24089,0.00335
2163.18072,0.00347
2161.12055,0.00339
2159.06038,0.00233
2157.00021,0.00114
2154.94003,0.00083
2152.87986,0.00168
2150.81969,0.00300
2148.75952,0.00396
2146.69935,0.00457
2144.63917,0.00406
2142.57900,0.00267
2140.51883,0.00235
2138.45866,0.00275
2136.39849,0.00296
2134.33831,0.00324
2132.27814,0.00336
2130.21797,0.00341
2128.15780,0.00366
2126.09762,0.00370
2124.03745,0.00355
2121.97728,0.00343
2119.91711,0.00352
2117.85694,0.00383
2115.79676,0.00391
2113.73659,0.00364
2111.67642,0.00323
2109.61625,0.00283
2107.55608,0.00276
2105.49590,0.00337
2103.43573,0.00436
2101.37556,0.00477
2099.31539,0.00400
2097.25521,0.00294
2095.19504,0.00264
2093.13487,0.00275
2091.07470,0.00307
2089.01453,0.00321
2086.95435,0.00280
2084.89418,0.00245
2082.83401,0.00224
2080.77384,0.00211
2078.71367,0.00255
2076.65349,0.00339
2074.59332,0.00393
2072.53315,0.00395
2070.47298,0.00363
2068.41281,0.00304
2066.35263,0.00231
2064.29246,0.00179
2062.23229,0.00170
2060.17212,0.00211
2058.11194,0.00276
2056.05177,0.00344
2053.99160,0.00413
2051.93143,0.00420
2049.87126,0.00334
2047.81108,0.00239
2045.75091,0.00198
2043.69074,0.00176
2041.63057,0.00204
2039.57040,0.00340
2037.51022,0.00465
2035.45005,0.00468
2033.38988,0.00401
2031.32971,0.00314
2029.26954,0.00268
2027.20936,0.00326
2025.14919,0.00384
2023.08902,0.00402
2021.02885,0.00474
2018.96867,0.00487
2016.90850,0.00339
2014.84833,0.00158
2012.78816,0.00059
2010.72799,0.00089
2008.66781,0.00226
2006.60764,0.00344
2004.54747,0.00353
2002.48730,0.00312
2000.42713,0.00320
1998.36695,0.00352
1996.30678,0.00347
1994.24661,0.00278
1992.18644,0.00139
1990.12626,0.00059
1988.06609,0.00084
1986.00592,0.00108
1983.94575,0.00119
1981.88558,0.00114
1979.82540,0.00093
1977.76523,0.00090
1975.70506,0.00131
1973.64489,0.00183
1971.58472,0.00192
1969.52454,0.00160
1967.46437,0.00105
1965.40420,0.00051
1963.34403,0.00000
1961.28386,0.00004
1959.22368,0.00146
1957.16351,0.00303
1955.10334,0.00328
1953.04317,0.00260
1950.98299,0.00195
1948.92282,0.00180
1946.86265,0.00195
1944.80248,0.00205
1942.74231,0.00232
1940.68213,0.00272
1938.62196,0.00286
1936.56179,0.00272
1934.50162,0.00244
1932.44145,0.00245
1930.38127,0.00293
1928.32110,0.00328
1926.26093,0.00314
1924.20076,0.00283
1922.14059,0.00248
1920.08041,0.00202
1918.02024,0.00164
1915.96007,0.00163
1913.89990,0.00175
1911.83972,0.00165
1909.77955,0.00139
1907.71938,0.00112
1905.65921,0.00098
1903.59904,0.00105
1901.53886,0.00129
1899.47869,0.00161
1897.41852,0.00197
1895.35835,0.00238
1893.29818,0.00269
1891.23800,0.00277
1889.17783,0.00260
1887.11766,0.00226
1885.05749,0.00207
1882.99731,0.00215
1880.93714,0.00222
1878.87697,0.00218
1876.81680,0.00220
1874.75663,0.00225
1872.69645,0.00223
1870.63628,0.00219
1868.57611,0.00218
1866.51594,0.00201
1864.45577,0.00158
1862.39559,0.00117
1860.33542,0.00121
1858.27525,0.00169
1856.21508,0.00216
1854.15491,0.00231
1852.09473,0.00202
1850.03456,0.00154
1847.97439,0.00146
1845.91422,0.00184
1843.85404,0.00196
1841.79387,0.00162
1839.73370,0.00133
1837.67353,0.00137
1835.61336,0.00157
1833.55318,0.00167
1831.49301,0.00178
1829.43284,0.00196
1827.37267,0.00193
1825.31250,0.00168
1823.25232,0.00146
1821.19215,0.00153
1819.13198,0.00179
1817.07181,0.00202
1815.01163,0.00217
1812.95146,0.00227
1810.89129,0.00218
1808.83112,0.00189
1806.77095,0.00162
1804.71077,0.00151
1802.65060,0.00148
1800.59043,0.00161
1798.53026,0.00188
1796.47009,0.00203
1794.40991,0.00211
1792.34974,0.00211
1790.28957,0.00183
1788.22940,0.00153
1786.16923,0.00159
1784.10905,0.00191
1782.04888,0.00210
1779.98871,0.00205
1777.92854,0.00189
1775.86836,0.00176
1773.80819,0.00169
1771.74802,0.00161
1769.68785,0.00159
1767.62768,0.00173
1765.56750,0.00196
1763.50733,0.00223
1761.44716,0.00239
1759.38699,0.00232
1757.32682,0.00229
1755.26664,0.00245
1753.20647,0.00272
1751.14630,0.00302
1749.08613,0.00323
1747.02596,0.00329
1744.96578,0.00327
1742.90561,0.00328
1740.84544,0.00337
1738.78527,0.00339
1736.72509,0.00334
1734.66492,0.00341
1732.60475,0.00364
1730.54458,0.00393
1728.48441,0.00423
1726.42423,0.00436
1724.36406,0.00423
1722.30389,0.00404
1720.24372,0.00407
1718.18355,0.00431
1716.12337,0.00444
1714.06320,0.00435
1712.00303,0.00425
1709.94286,0.00442
1707.88268,0.00492
1705.82251,0.00545
1703.76234,0.00566
1701.70217,0.00566
1699.64200,0.00586
1697.58182,0.00645
1695.52165,0.00713
1693.46148,0.00747
1691.40131,0.00758
1689.34114,0.00778
1687.28096,0.00812
1685.22079,0.00867
1683.16062,0.00925
1681.10045,0.00949
1679.04028,0.00956
1676.98010,0.00978
1674.91993,0.01026
1672.85976,0.01083
1670.79959,0.01140
1668.73941,0.01195
1666.67924,0.01227
1664.61907,0.01251
1662.55890,0.01287
1660.49873,0.01319
1658.43855,0.01337
1656.37838,0.01357
1654.31821,0.01384
1652.25804,0.01395
1650.19787,0.01393
1648.13769,0.01411
1646.07752,0.01434
1644.01735,0.01415
1641.95718,0.01391
1639.89701,0.01396
1637.83683,0.01408
1635.77666,0.01394
1633.71649,0.01360
1631.65632,0.01327
1629.59614,0.01299
1627.53597,0.01273
1625.47580,0.01250
1623.41563,0.01224
1621.35546,0.01180
1619.29528,0.01140
1617.23511,0.01140
1615.17494,0.01160
1613.11477,0.01154
1611.05460,0.01124
1608.99442,0.01089
1606.93425,0.01060
1604.87408,0.01040
1602.81391,0.01020
1600.75373,0.00997
1598.69356,0.00981
1596.63339,0.00966
1594.57322,0.00943
1592.51305,0.00919
1590.45287,0.00907
1588.39270,0.00902
1586.33253,0.00893
1584.27236,0.00864
1582.21219,0.00820
1580.15201,0.00779
1578.09184,0.00760
1576.03167,0.00773
1573.97150,0.00778
1571.91133,0.00745
1569.85115,0.00701
1567.79098,0.00670
1565.73081,0.00656
1563.67064,0.00649
1561.61046,0.00650
1559.55029,0.00659
1557.49012,0.00660
1555.42995,0.00641
1553.36978,0.00613
1551.30960,0.00583
1549.24943,0.00557
1547.18926,0.00549
1545.12909,0.00562
1543.06892,0.00575
1541.00874,0.00572
1538.94857,0.00548
1536.88840,0.00513
1534.82823,0.00487
1532.76805,0.00464
1530.70788,0.00426
1528.64771,0.00392
1526.58754,0.00386
1524.52737,0.00402
1522.46719,0.00404
1520.40702,0.00368
1518.34685,0.00329
1516.28668,0.00319
1514.22651,0.00317
1512.16633,0.00300
1510.10616,0.00275
1508.04599,0.00258
1505.98582,0.00267
1503.92565,0.00276
1501.86547,0.00267
1499.80530,0.00259
1497.74513,0.00254
1495.68496,0.00241
1493.62478,0.00232
1491.56461,0.00247
1489.50444,0.00271
1487.44427,0.00264
1485.38410,0.00237
1483.32392,0.00222
1481.26375,0.00219
1479.20358,0.00208
1477.14341,0.00190
1475.08324,0.00180
1473.02306,0.00200
1470.96289,0.00232
1468.90272,0.00238
1466.84255,0.00235
1464.78238,0.00242
1462.72220,0.00243
1460.66203,0.00231
1458.60186,0.00220
1456.54169,0.00226
1454.48151,0.00244
1452.42134,0.00247
1450.36117,0.00237
1448.30100,0.00221
1446.24083,0.00209
1444.18065,0.00210
1442.12048,0.00214
1440.06031,0.00209
1438.00014,0.00200
1435.93997,0.00195
1433.87979,0.00195
1431.81962,0.00203
1429.75945,0.00221
1427.69928,0.00238
1425.63910,0.00244
1423.57893,0.00243
1421.51876,0.00240
1419.45859,0.00241
1417.39842,0.00256
1415.33824,0.00284
1413.27807,0.00306
1411.21790,0.00311
1409.15773,0.00296
1407.09756,0.00277
1405.03738,0.00266
1402.97721,0.00263
1400.91704,0.00253
1398.85687,0.00235
1396.79670,0.00224
1394.73652,0.00222
1392.67635,0.00210
1390.61618,0.00188
1388.55601,0.00176
1386.49583,0.00184
1384.43566,0.00194
1382.37549,0.00195
1380.31532,0.00188
1378.25515,0.00174
1376.19497,0.00161
1374.13480,0.00152
1372.07463,0.00141
1370.01446,0.00134
1367.95429,0.00130
1365.89411,0.00126
1363.83394,0.00126
1361.77377,0.00131
1359.71360,0.00130
1357.65343,0.00125
1355.59325,0.00125
1353.53308,0.00126
1351.47291,0.00124
1349.41274,0.00121
1347.35256,0.00117
1345.29239,0.00113
1343.23222,0.00114
1341.17205,0.00112
1339.11188,0.00094
1337.05170,0.00075
1334.99153,0.00075
1332.93136,0.00086
1330.87119,0.00091
1328.81102,0.00089
1326.75084,0.00096
1324.69067,0.00107
1322.63050,0.00108
1320.57033,0.00102
1318.51015,0.00097
1316.44998,0.00091
1314.38981,0.00091
1312.32964,0.00098
1310.26947,0.00105
1308.20929,0.00110
1306.14912,0.00116
1304.08895,0.00116
1302.02878,0.00121
1299.96861,0.00134
1297.90843,0.00148
1295.84826,0.00157
1293.78809,0.00155
1291.72792,0.00144
1289.66775,0.00136
1287.60757,0.00133
1285.54740,0.00132
1283.48723,0.00136
1281.42706,0.00145
1279.36688,0.00149
1277.30671,0.00152
1275.24654,0.00160
1273.18637,0.00172
1271.12620,0.00189
1269.06602,0.00205
1267.00585,0.00210
1264.94568,0.00217
1262.88551,0.00236
1260.82534,0.00252
1258.76516,0.00251
1256.70499,0.00240
1254.64482,0.00230
1252.58465,0.00224
1250.52447,0.00218
1248.46430,0.00213
1246.40413,0.00212
1244.34396,0.00214
1242.28379,0.00212
1240.22361,0.00197
1238.16344,0.00181
1236.10327,0.00176
1234.04310,0.00176
1231.98293,0.00176
1229.92275,0.00177
1227.86258,0.00166
1225.80241,0.00141
1223.74224,0.00126
1221.68207,0.00127
1219.62189,0.00124
1217.56172,0.00119
1215.50155,0.00119
1213.44138,0.00103
1211.38120,0.00076
1209.32103,0.00057
1207.26086,0.00056
1205.20069,0.00066
1203.14052,0.00067
1201.08034,0.00046
1199.02017,0.00025
1196.96000,0.00022
1194.89983,0.00027
1192.83966,0.00021
1190.77948,0.00005
1188.71931,0.00000
1186.65914,0.00004
1184.59897,0.00002
1182.53880,0.00004
1180.47862,0.00016
1178.41845,0.00013
1176.35828,-0.00004
1174.29811,-0.00010
1172.23793,0.00002
1170.17776,0.00023
1168.11759,0.00046
1166.05742,0.00068
1163.99725,0.00086
1161.93707,0.00098
1159.87690,0.00105
1157.81673,0.00126
1155.75656,0.00164
1153.69639,0.00205
1151.63621,0.00235
1149.57604,0.00251
1147.51587,0.00277
1145.45570,0.00328
1143.39552,0.00380
1141.33535,0.00421
1139.27518,0.00459
1137.21501,0.00499
1135.15484,0.00545
1133.09466,0.00600
1131.03449,0.00670
1128.97432,0.00753
1126.91415,0.00846
1124.85398,0.00946
1122.79380,0.01046
1120.73363,0.01143
1118.67346,0.01235
1116.61329,0.01319
1114.55312,0.01411
1112.49294,0.01515
1110.43277,0.01630
1108.37260,0.01762
1106.31243,0.01896
1104.25225,0.02010
1102.19208,0.02107
1100.13191,0.02211
1098.07174,0.02316
1096.01157,0.02406
1093.95139,0.02489
1091.89122,0.02576
1089.83105,0.02661
1087.77088,0.02750
1085.71071,0.02849
1083.65053,0.02941
1081.59036,0.03018
1079.53019,0.03095
1077.47002,0.03173
1075.40985,0.03236
1073.34967,0.03286
1071.28950,0.03339
1069.22933,0.03383
1067.16916,0.03385
1065.10898,0.03372
1063.04881,0.03382
1060.98864,0.03394
1058.92847,0.03395
1056.86830,0.03398
1054.80812,0.03381
1052.74795,0.03314
1050.68778,0.03214
1048.62761,0.03101
1046.56744,0.02977
1044.50726,0.02846
1042.44709,0.02696
1040.38692,0.02514
1038.32675,0.02317
1036.26657,0.02140
1034.20640,0.01996
1032.14623,0.01877
1030.08606,0.01773
1028.02589,0.01656
1025.96571,0.01524
1023.90554,0.01424
1021.84537,0.01351
1019.78520,0.01260
1017.72503,0.01173
1015.66485,0.01129
1013.60468,0.01131
1011.54451,0.01149
1009.48434,0.01168
1007.42417,0.01197
1005.36399,0.01252
1003.30382,0.01338
1001.24365,0.01428
999.18348,0.01514
997.12330,0.01618
995.06313,0.01735
993.00296,0.01841
990.94279,0.01945
988.88262,0.02044
986.82244,0.02111
984.76227,0.02151
982.70210,0.02193
980.64193,0.02226
978.58176,0.02230
976.52158,0.02204
974.46141,0.02149
972.40124,0.02070
970.34107,0.01978
968.28089,0.01880
966.22072,0.01776
964.16055,0.01659
962.10038,0.01533
960.04021,0.01400
957.98003,0.01256
955.91986,0.01115
953.85969,0.01000
951.79952,0.00922
949.73935,0.00853
947.67917,0.00759
945.61900,0.00657
943.55883,0.00574
941.49866,0.00513
939.43849,0.00448
937.37831,0.00381
935.31814,0.00342
933.25797,0.00321
931.19780,0.00288
929.13762,0.00234
927.07745,0.00181
925.01728,0.00149
922.95711,0.00134
920.89694,0.00120
918.83676,0.00106
916.77659,0.00092
914.71642,0.00080
912.65625,0.00089
910.59608,0.00097
908.53590,0.00084
906.47573,0.00068
904.41556,0.00084
902.35539,0.00123
900.29522,0.00141
898.23504,0.00143
896.17487,0.00143
894.11470,0.00139
892.05453,0.00156
889.99435,0.00201
887.93418,0.00240
885.87401,0.00266
883.81384,0.00296
881.75367,0.00356
879.69349,0.00431
877.63332,0.00494
875.57315,0.00556
873.51298,0.00623
871.45281,0.00687
869.39263,0.00712
867.33246,0.00716
865.27229,0.00759
863.21212,0.00815
861.15194,0.00836
859.09177,0.00827
857.03160,0.00816
854.97143,0.00813
852.91126,0.00823
850.85108,0.00834
848.79091,0.00832
846.73074,0.00819
844.67057,0.00781
842.61040,0.00730
840.55022,0.00673
838.49005,0.00602
836.42988,0.00536
834.36971,0.00490
832.30954,0.00487
830.24936,0.00496
828.18919,0.00476
826.12902,0.00465
824.06885,0.00461
822.00867,0.00430
819.94850,0.00378
817.88833,0.00309
815.82816,0.00276
813.76799,0.00300
811.70781,0.00312
809.64764,0.00292
807.58747,0.00243
805.52730,0.00183
803.46713,0.00175
801.40695,0.00175
799.34678,0.00127
797.28661,0.00111
795.22644,0.00139
793.16627,0.00164
791.10609,0.00165
789.04592,0.00094
786.98575,0.00043
784.92558,0.00084
782.86540,0.00113
780.80523,0.00109
778.74506,0.00116
776.68489,0.00117
774.62472,0.00106
772.56454,0.00094
770.50437,0.00067
768.44420,0.00034
766.38403,0.00035
764.32386,0.00080
762.26368,0.00122
760.20351,0.00118
758.14334,0.00076
756.08317,0.00043
754.02299,0.00026
751.96282,0.00000
749.90265,0.00011
747.84248,0.00076
745.78231,0.00091
743.72213,0.00017
741.66196,-0.00034
739.60179,-0.00005
737.54162,0.00040
735.48145,0.00039
733.42127,0.00019
731.36110,0.00049
729.30093,0.00092
727.24076,0.00085
725.18059,0.00050
723.12041,0.00033
721.06024,0.00026
719.00007,0.00042
716.93990,0.00014
714.87972,-0.00055
712.81955,-0.00089
710.75938,-0.00077
708.69921,-0.00061
706.63904,-0.00049
704.57886,-0.00034
702.51869,-0.00018
700.45852,0.00000
698.39835,0.00012
696.33818,0.00018
694.27800,0.00021
692.21783,0.00021
690.15766,0.00047
688.09749,0.00113
686.03731,0.00155
683.97714,0.00164
681.91697,0.00203
679.85680,0.00214
677.79663,0.00131
675.73645,0.00035
673.67628,0.00019
671.61611,0.00101
669.55594,0.00050
667.49577,-0.00048
665.43559,0.00188
663.37542,0.00103
661.31525,0.00042
659.25508,0.00069
657.19491,0.00083
655.13473,0.00087
653.07456,0.00112
651.01439,0.00165
648.95422,0.00226
646.89404,0.00196
644.83387,0.00051
642.77370,0.00000
640.71353,0.00091
638.65336,0.00186
636.59318,0.00217
634.53301,0.00234
632.47284,0.00245
630.41267,0.00172
628.35250,0.00033
626.29232,-0.00010
624.23215,-0.00022
622.17198,-0.00119
620.11181,-0.00092
618.05164,-0.00049
615.99146,-0.00080
613.93129,0.00032
611.87112,0.00090
609.81095,0.00040
607.75077,0.00141
605.69060,0.00198
603.63043,0.00111
601.57026,0.00068
599.51009,0.00000
