3996.73391,0.00047
3994.67373,0.00045
3992.61356,0.00027
3990.55339,0.00016
3988.49322,0.00015
3986.43305,0.00012
3984.37287,0.00003
3982.31270,0.00000
3980.25253,0.00013
3978.19236,0.00037
3976.13219,0.00065
3974.07201,0.00083
3972.01184,0.00080
3969.95167,0.00067
3967.89150,0.00068
3965.83133,0.00075
3963.77115,0.00066
3961.71098,0.00058
3959.65081,0.00073
3957.59064,0.00082
3955.53046,0.00069
3953.47029,0.00055
3951.41012,0.00046
3949.34995,0.00041
3947.28978,0.00045
3945.22960,0.00044
3943.16943,0.00028
3941.10926,0.00021
3939.04909,0.00029
3936.98892,0.00037
3934.92874,0.00045
3932.86857,0.00051
3930.80840,0.00040
3928.74823,0.00020
3926.68805,0.00020
3924.62788,0.00046
3922.56771,0.00063
3920.50754,0.00056
3918.44737,0.00059
3916.38719,0.00086
3914.32702,0.00101
3912.26685,0.00084
3910.20668,0.00055
3908.14651,0.00049
3906.08633,0.00085
3904.02616,0.00131
3901.96599,0.00152
3899.90582,0.00140
3897.84565,0.00103
3895.78547,0.00064
3893.72530,0.00029
3891.66513,0.00007
3889.60496,0.00016
3887.54478,0.00041
3885.48461,0.00065
3883.42444,0.00090
3881.36427,0.00129
3879.30410,0.00158
3877.24392,0.00132
3875.18375,0.00078
3873.12358,0.00050
3871.06341,0.00058
3869.00324,0.00071
3866.94306,0.00063
3864.88289,0.00049
3862.82272,0.00047
3860.76255,0.00053
3858.70237,0.00047
3856.64220,0.00012
3854.58203,0.00000
3852.52186,0.00050
3850.46169,0.00093
3848.40151,0.00094
3846.34134,0.00096
3844.28117,0.00117
3842.22100,0.00145
3840.16083,0.00162
3838.10065,0.00157
3836.04048,0.00133
3833.98031,0.00108
3831.92014,0.00107
3829.85997,0.00126
3827.79979,0.00128
3825.73962,0.00090
3823.67945,0.00032
3821.61928,0.00012
3819.55910,0.00059
3817.49893,0.00105
3815.43876,0.00098
3813.37859,0.00077
3811.31842,0.00080
3809.25824,0.00092
3807.19807,0.00080
3805.13790,0.00039
3803.07773,0.00022
3801.01756,0.00066
3798.95738,0.00120
3796.89721,0.00128
3794.83704,0.00111
3792.77687,0.00108
3790.71670,0.00117
3788.65652,0.00116
3786.59635,0.00098
3784.53618,0.00076
3782.47601,0.00069
3780.41583,0.00080
3778.35566,0.00091
3776.29549,0.00095
3774.23532,0.00107
3772.17515,0.00111
3770.11497,0.00092
3768.05480,0.00091
3765.99463,0.00126
3763.93446,0.00139
3761.87429,0.00117
3759.81411,0.00103
3757.75394,0.00093
3755.69377,0.00081
3753.63360,0.00115
3751.57342,0.00202
3749.51325,0.00263
3747.45308,0.00246
3745.39291,0.00168
3743.33274,0.00077
3741.27256,0.00043
3739.21239,0.00056
3737.15222,0.00078
3735.09205,0.00110
3733.03188,0.00144
3730.97170,0.00148
3728.91153,0.00133
3726.85136,0.00131
3724.79119,0.00144
3722.73102,0.00137
3720.67084,0.00096
3718.61067,0.00050
3716.55050,0.00034
3714.49033,0.00049
3712.43015,0.00074
3710.36998,0.00108
3708.30981,0.00148
3706.24964,0.00167
3704.18947,0.00160
3702.12929,0.00162
3700.06912,0.00186
3698.00895,0.00190
3695.94878,0.00153
3693.88861,0.00113
3691.82843,0.00119
3689.76826,0.00152
3687.70809,0.00161
3685.64792,0.00133
3683.58775,0.00101
3681.52757,0.00121
3679.46740,0.00198
3677.40723,0.00256
3675.34706,0.00241
3673.28688,0.00184
3671.22671,0.00144
3669.16654,0.00168
3667.10637,0.00235
3665.04620,0.00275
3662.98602,0.00290
3660.92585,0.00304
3658.86568,0.00297
3656.80551,0.00277
3654.74534,0.00291
3652.68516,0.00331
3650.62499,0.00352
3648.56482,0.00346
3646.50465,0.00356
3644.44447,0.00399
3642.38430,0.00456
3640.32413,0.00503
3638.26396,0.00537
3636.20379,0.00583
3634.14361,0.00622
3632.08344,0.00634
3630.02327,0.00660
3627.96310,0.00732
3625.90293,0.00780
3623.84275,0.00774
3621.78258,0.00753
3619.72241,0.00751
3617.66224,0.00763
3615.60207,0.00763
3613.54189,0.00761
3611.48172,0.00781
3609.42155,0.00828
3607.36138,0.00894
3605.30120,0.00962
3603.24103,0.01018
3601.18086,0.01047
3599.12069,0.01041
3597.06052,0.01024
3595.00034,0.01051
3592.94017,0.01106
3590.88000,0.01139
3588.81983,0.01169
3586.75966,0.01212
3584.69948,0.01240
3582.63931,0.01263
3580.57914,0.01279
3578.51897,0.01275
3576.45879,0.01273
3574.39862,0.01302
3572.33845,0.01358
3570.27828,0.01414
3568.21811,0.01451
3566.15793,0.01487
3564.09776,0.01523
3562.03759,0.01555
3559.97742,0.01590
3557.91725,0.01624
3555.85707,0.01648
3553.79690,0.01669
3551.73673,0.01683
3549.67656,0.01663
3547.61639,0.01621
3545.55621,0.01614
3543.49604,0.01656
3541.43587,0.01708
3539.37570,0.01750
3537.31552,0.01781
3535.25535,0.01803
3533.19518,0.01837
3531.13501,0.01897
3529.07484,0.01952
3527.01466,0.01981
3524.95449,0.02009
3522.89432,0.02045
3520.83415,0.02070
3518.77398,0.02081
3516.71380,0.02090
3514.65363,0.02114
3512.59346,0.02159
3510.53329,0.02206
3508.47312,0.02233
3506.41294,0.02243
3504.35277,0.02240
3502.29260,0.02241
3500.23243,0.02281
3498.17225,0.02339
3496.11208,0.02367
3494.05191,0.02374
3491.99174,0.02382
3489.93157,0.02390
3487.87139,0.02417
3485.81122,0.02459
3483.75105,0.02486
3481.69088,0.02487
3479.63071,0.02494
3477.57053,0.02534
3475.51036,0.02599
3473.45019,0.02667
3471.39002,0.02707
3469.32984,0.02696
3467.26967,0.02689
3465.20950,0.02716
3463.14933,0.02743
3461.08916,0.02756
3459.02898,0.02780
3456.96881,0.02824
3454.90864,0.02867
3452.84847,0.02891
3450.78830,0.02912
3448.72812,0.02950
3446.66795,0.02958
3444.60778,0.02920
3442.54761,0.02905
3440.48744,0.02928
3438.42726,0.02969
3436.36709,0.03021
3434.30692,0.03061
3432.24675,0.03082
3430.18657,0.03093
3428.12640,0.03091
3426.06623,0.03074
3424.00606,0.03067
3421.94589,0.03089
3419.88571,0.03119
3417.82554,0.03153
3415.76537,0.03201
3413.70520,0.03232
3411.64503,0.03225
3409.58485,0.03228
3407.52468,0.03263
3405.46451,0.03286
3403.40434,0.03281
3401.34416,0.03264
3399.28399,0.03235
3397.22382,0.03221
3395.16365,0.03227
3393.10348,0.03252
3391.04330,0.03281
3388.98313,0.03309
3386.92296,0.03347
3384.86279,0.03402
3382.80262,0.03455
3380.74244,0.03469
3378.68227,0.03441
3376.62210,0.03412
3374.56193,0.03403
3372.50176,0.03406
3370.44158,0.03405
3368.38141,0.03401
3366.32124,0.03403
3364.26107,0.03416
3362.20089,0.03442
3360.14072,0.03469
3358.08055,0.03475
3356.02038,0.03468
3353.96021,0.03472
3351.90003,0.03490
3349.83986,0.03515
3347.77969,0.03524
3345.71952,0.03501
3343.65935,0.03485
3341.59917,0.03516
3339.53900,0.03553
3337.47883,0.03547
3335.41866,0.03529
3333.35849,0.03529
3331.29831,0.03519
3329.23814,0.03515
3327.17797,0.03552
3325.11780,0.03592
3323.05762,0.03595
3320.99745,0.03572
3318.93728,0.03552
3316.87711,0.03555
3314.81694,0.03577
3312.75676,0.03597
3310.69659,0.03610
3308.63642,0.03623
3306.57625,0.03639
3304.51608,0.03659
3302.45590,0.03680
3300.39573,0.03684
3298.33556,0.03664
3296.27539,0.03633
3294.21521,0.03610
3292.15504,0.03605
3290.09487,0.03615
3288.03470,0.03628
3285.97453,0.03630
3283.91435,0.03636
3281.85418,0.03659
3279.79401,0.03663
3277.73384,0.03645
3275.67367,0.03645
3273.61349,0.03666
3271.55332,0.03680
3269.49315,0.03684
3267.43298,0.03683
3265.37281,0.03678
3263.31263,0.03680
3261.25246,0.03685
3259.19229,0.03691
3257.13212,0.03701
3255.07194,0.03708
3253.01177,0.03701
3250.95160,0.03693
3248.89143,0.03702
3246.83126,0.03723
3244.77108,0.03737
3242.71091,0.03742
3240.65074,0.03742
3238.59057,0.03733
3236.53040,0.03719
3234.47022,0.03731
3232.41005,0.03774
3230.34988,0.03805
3228.28971,0.03797
3226.22954,0.03782
3224.16936,0.03777
3222.10919,0.03757
3220.04902,0.03730
3217.98885,0.03737
3215.92867,0.03756
3213.86850,0.03738
3211.80833,0.03703
3209.74816,0.03699
3207.68799,0.03712
3205.62781,0.03702
3203.56764,0.03686
3201.50747,0.03685
3199.44730,0.03683
3197.38713,0.03678
3195.32695,0.03670
3193.26678,0.03672
3191.20661,0.03696
3189.14644,0.03713
3187.08626,0.03705
3185.02609,0.03690
3182.96592,0.03675
3180.90575,0.03660
3178.84558,0.03652
3176.78540,0.03663
3174.72523,0.03668
3172.66506,0.03638
3170.60489,0.03605
3168.54472,0.03605
3166.48454,0.03630
3164.42437,0.03666
3162.36420,0.03680
3160.30403,0.03655
3158.24386,0.03617
3156.18368,0.03585
3154.12351,0.03566
3152.06334,0.03567
3150.00317,0.03571
3147.94299,0.03568
3145.88282,0.03561
3143.82265,0.03549
3141.76248,0.03539
3139.70231,0.03545
3137.64213,0.03551
3135.58196,0.03540
3133.52179,0.03531
3131.46162,0.03534
3129.40145,0.03523
3127.34127,0.03492
3125.28110,0.03475
3123.22093,0.03485
3121.16076,0.03495
3119.10058,0.03491
3117.04041,0.03477
3114.98024,0.03450
3112.92007,0.03425
3110.85990,0.03412
3108.79972,0.03374
3106.73955,0.03320
3104.67938,0.03298
3102.61921,0.03314
3100.55904,0.03334
3098.49886,0.03332
3096.43869,0.03334
3094.37852,0.03364
3092.31835,0.03373
3090.25818,0.03336
3088.19800,0.03300
3086.13783,0.03292
3084.07766,0.03292
3082.01749,0.03294
3079.95731,0.03293
3077.89714,0.03274
3075.83697,0.03242
3073.77680,0.03208
3071.71663,0.03184
3069.65645,0.03180
3067.59628,0.03186
3065.53611,0.03177
3063.47594,0.03160
3061.41577,0.03141
3059.35559,0.03114
3057.29542,0.03092
3055.23525,0.03076
3053.17508,0.03055
3051.11491,0.03037
3049.05473,0.03034
3046.99456,0.03043
3044.93439,0.03058
3042.87422,0.03061
3040.81404,0.03031
3038.75387,0.02981
3036.69370,0.02961
3034.63353,0.02969
3032.57336,0.02965
3030.51318,0.02946
3028.45301,0.02927
3026.39284,0.02899
3024.33267,0.02869
3022.27250,0.02854
3020.21232,0.02840
3018.15215,0.02820
3016.09198,0.02806
3014.03181,0.02811
3011.97163,0.02815
3009.91146,0.02795
3007.85129,0.02761
3005.79112,0.02730
3003.73095,0.02705
3001.67077,0.02687
2999.61060,0.02670
2997.55043,0.02651
2995.49026,0.02650
2993.43009,0.02659
2991.36991,0.02654
2989.30974,0.02634
2987.24957,0.02633
2985.18940,0.02648
2983.12923,0.02644
2981.06905,0.02626
2979.00888,0.02610
2976.94871,0.02584
2974.88854,0.02553
2972.82836,0.02543
2970.76819,0.02548
2968.70802,0.02552
2966.64785,0.02546
2964.58768,0.02549
2962.52750,0.02553
2960.46733,0.02520
2958.40716,0.02477
2956.34699,0.02470
2954.28682,0.02486
2952.22664,0.02486
2950.16647,0.02468
2948.10630,0.02450
2946.04613,0.02439
2943.98596,0.02438
2941.92578,0.02453
2939.86561,0.02462
2937.80544,0.02444
2935.74527,0.02425
2933.68509,0.02422
2931.62492,0.02425
2929.56475,0.02405
2927.50458,0.02362
2925.44441,0.02337
2923.38423,0.02346
2921.32406,0.02359
2919.26389,0.02360
2917.20372,0.02360
2915.14355,0.02344
2913.08337,0.02295
2911.02320,0.02232
2908.96303,0.02198
2906.90286,0.02205
2904.84268,0.02216
2902.78251,0.02198
2900.72234,0.02166
2898.66217,0.02146
2896.60200,0.02135
2894.54182,0.02118
2892.48165,0.02090
2890.42148,0.02066
2888.36131,0.02054
2886.30114,0.02048
2884.24096,0.02031
2882.18079,0.02002
2880.12062,0.01979
2878.06045,0.01965
2876.00028,0.01959
2873.94010,0.01962
2871.87993,0.01957
2869.81976,0.01940
2867.75959,0.01926
2865.69941,0.01919
2863.63924,0.01917
2861.57907,0.01906
2859.51890,0.01887
2857.45873,0.01885
2855.39855,0.01906
2853.33838,0.01918
2851.27821,0.01895
2849.21804,0.01861
2847.15787,0.01841
2845.09769,0.01808
2843.03752,0.01758
2840.97735,0.01716
2838.91718,0.01697
2836.85700,0.01698
2834.79683,0.01703
2832.73666,0.01710
2830.67649,0.01713
2828.61632,0.01701
2826.55614,0.01673
2824.49597,0.01642
2822.43580,0.01625
2820.37563,0.01618
2818.31546,0.01611
2816.25528,0.01610
2814.19511,0.01611
2812.13494,0.01593
2810.07477,0.01558
2808.01460,0.01532
2805.95442,0.01529
2803.89425,0.01523
2801.83408,0.01507
2799.77391,0.01496
2797.71373,0.01492
2795.65356,0.01490
2793.59339,0.01489
2791.53322,0.01484
2789.47305,0.01465
2787.41287,0.01443
2785.35270,0.01428
2783.29253,0.01416
2781.23236,0.01410
2779.17219,0.01407
2777.11201,0.01401
2775.05184,0.01400
2772.99167,0.01385
2770.93150,0.01357
2768.87133,0.01340
2766.81115,0.01329
2764.75098,0.01317
2762.69081,0.01312
2760.63064,0.01299
2758.57046,0.01271
2756.51029,0.01260
2754.45012,0.01279
2752.38995,0.01290
2750.32978,0.01278
2748.26960,0.01267
2746.20943,0.01251
2744.14926,0.01227
2742.08909,0.01227
2740.02892,0.01248
2737.96874,0.01244
2735.90857,0.01216
2733.84840,0.01204
2731.78823,0.01205
2729.72805,0.01194
2727.66788,0.01178
2725.60771,0.01184
2723.54754,0.01190
2721.48737,0.01155
2719.42719,0.01118
2717.36702,0.01114
2715.30685,0.01121
2713.24668,0.01122
2711.18651,0.01109
2709.12633,0.01087
2707.06616,0.01083
2705.00599,0.01096
2702.94582,0.01095
2700.88565,0.01074
2698.82547,0.01051
2696.76530,0.01034
2694.70513,0.01024
2692.64496,0.01021
2690.58478,0.01022
2688.52461,0.01026
2686.46444,0.01020
2684.40427,0.00999
2682.34410,0.00982
2680.28392,0.00968
2678.22375,0.00947
2676.16358,0.00939
2674.10341,0.00948
2672.04324,0.00966
2669.98306,0.00978
2667.92289,0.00953
2665.86272,0.00920
2663.80255,0.00915
2661.74238,0.00921
2659.68220,0.00929
2657.62203,0.00937
2655.56186,0.00936
2653.50169,0.00918
2651.44151,0.00892
2649.38134,0.00877
2647.32117,0.00877
2645.26100,0.00876
2643.20083,0.00856
2641.14065,0.00833
2639.08048,0.00828
2637.02031,0.00826
2634.96014,0.00825
2632.89997,0.00843
2630.83979,0.00851
2628.77962,0.00838
2626.71945,0.00836
2624.65928,0.00830
2622.59910,0.00805
2620.53893,0.00792
2618.47876,0.00788
2616.41859,0.00764
2614.35842,0.00731
2612.29824,0.00737
2610.23807,0.00767
2608.17790,0.00772
2606.11773,0.00753
2604.05756,0.00737
2601.99738,0.00725
2599.93721,0.00716
2597.87704,0.00723
2595.81687,0.00728
2593.75670,0.00710
2591.69652,0.00680
2589.63635,0.00679
2587.57618,0.00704
2585.51601,0.00699
2583.45583,0.00677
2581.39566,0.00683
2579.33549,0.00690
2577.27532,0.00691
2575.21515,0.00686
2573.15497,0.00667
2571.09480,0.00650
2569.03463,0.00649
2566.97446,0.00668
2564.91429,0.00692
2562.85411,0.00685
2560.79394,0.00647
2558.73377,0.00623
2556.67360,0.00660
2554.61342,0.00716
2552.55325,0.00709
2550.49308,0.00656
2548.43291,0.00617
2546.37274,0.00613
2544.31256,0.00626
2542.25239,0.00636
2540.19222,0.00664
2538.13205,0.00704
2536.07188,0.00717
2534.01170,0.00715
2531.95153,0.00698
2529.89136,0.00669
2527.83119,0.00679
2525.77102,0.00725
2523.71084,0.00750
2521.65067,0.00726
2519.59050,0.00668
2517.53033,0.00614
2515.47015,0.00595
2513.40998,0.00622
2511.34981,0.00669
2509.28964,0.00701
2507.22947,0.00721
2505.16929,0.00739
2503.10912,0.00746
2501.04895,0.00727
2498.98878,0.00689
2496.92861,0.00653
2494.86843,0.00643
2492.80826,0.00661
2490.74809,0.00667
2488.68792,0.00646
2486.62775,0.00649
2484.56757,0.00683
2482.50740,0.00698
2480.44723,0.00694
2478.38706,0.00695
2476.32688,0.00709
2474.26671,0.00735
2472.20654,0.00745
2470.14637,0.00746
2468.08620,0.00752
2466.02602,0.00744
2463.96585,0.00724
2461.90568,0.00694
2459.84551,0.00679
2457.78534,0.00705
2455.72516,0.00733
2453.66499,0.00736
2451.60482,0.00722
2449.54465,0.00706
2447.48447,0.00723
2445.42430,0.00757
2443.36413,0.00748
2441.30396,0.00710
2439.24379,0.00713
2437.18361,0.00755
2435.12344,0.00768
2433.06327,0.00751
2431.00310,0.00752
2428.94293,0.00754
2426.88275,0.00746
2424.82258,0.00727
2422.76241,0.00690
2420.70224,0.00678
2418.64207,0.00702
2416.58189,0.00742
2414.52172,0.00765
2412.46155,0.00750
2410.40138,0.00730
2408.34120,0.00725
2406.28103,0.00719
2404.22086,0.00712
2402.16069,0.00731
2400.10052,0.00755
2398.04034,0.00741
2395.98017,0.00711
2393.92000,0.00695
2391.85983,0.00697
2389.79966,0.00705
2387.73948,0.00711
2385.67931,0.00715
2383.61914,0.00711
2381.55897,0.00707
2379.49880,0.00704
2377.43862,0.00687
2375.37845,0.00669
2373.31828,0.00734
2371.25811,0.00900
2369.19793,0.01024
2367.13776,0.00982
2365.07759,0.00832
2363.01742,0.00636
2360.95725,0.00483
2358.89707,0.00351
2356.83690,0.00346
2354.77673,0.00471
2352.71656,0.00592
2350.65639,0.00715
2348.59621,0.00784
2346.53604,0.00708
2344.47587,0.00756
2342.41570,0.00805
2340.35552,0.00797
2338.29535,0.00806
2336.23518,0.00814
2334.17501,0.00809
2332.11484,0.00794
2330.05466,0.00793
2327.99449,0.00803
2325.93432,0.00828
2323.87415,0.00776
2321.81398,0.00745
2319.75380,0.00788
2317.69363,0.00844
2315.63346,0.00807
2313.57329,0.00752
2311.51312,0.00724
2309.45294,0.00700
2307.39277,0.00680
2305.33260,0.00669
2303.27243,0.00677
2301.21225,0.00692
2299.15208,0.00713
2297.09191,0.00739
2295.03174,0.00767
2292.97157,0.00797
2290.91139,0.00813
2288.85122,0.00801
2286.79105,0.00755
2284.73088,0.00697
2282.67071,0.00658
2280.61053,0.00658
2278.55036,0.00697
2276.49019,0.00740
2274.43002,0.00743
2272.36984,0.00699
2270.30967,0.00658
2268.24950,0.00645
2266.18933,0.00640
2264.12916,0.00653
2262.06898,0.00698
2260.00881,0.00718
2257.94864,0.00678
2255.88847,0.00630
2253.82830,0.00629
2251.76812,0.00646
2249.70795,0.00623
2247.64778,0.00552
2245.58761,0.00509
2243.52744,0.00549
2241.46726,0.00633
2239.40709,0.00711
2237.34692,0.00727
2235.28675,0.00641
2233.22657,0.00545
2231.16640,0.00536
2229.10623,0.00556
2227.04606,0.00539
2224.98589,0.00542
2222.92571,0.00579
2220.86554,0.00605
2218.80537,0.00618
2216.74520,0.00623
2214.68503,0.00620
2212.62485,0.00596
2210.56468,0.00547
2208.50451,0.00518
2206.44434,0.00550
2204.38417,0.00585
2202.32399,0.00578
2200.26382,0.00555
2198.20365,0.00485
2196.14348,0.00393
2194.08330,0.00378
2192.02313,0.00459
2189.96296,0.00565
2187.90279,0.00607
2185.84262,0.00536
2183.78244,0.00422
2181.72227,0.00413
2179.66210,0.00479
2177.60193,0.00484
2175.54176,0.00432
2173.48158,0.00398
2171.42141,0.00370
2169.36124,0.00340
2167.30107,0.00395
2165.24089,0.00554
2163.18072,0.00634
2161.12055,0.00567
2159.06038,0.00481
2157.00021,0.00370
2154.94003,0.00267
2152.87986,0.00240
2150.81969,0.00307
2148.75952,0.00397
2146.69935,0.00396
2144.63917,0.00315
2142.57900,0.00231
2140.51883,0.00245
2138.45866,0.00319
2136.39849,0.00334
2134.33831,0.00312
2132.27814,0.00325
2130.21797,0.00423
2128.15780,0.00533
2126.09762,0.00500
2124.03745,0.00359
2121.97728,0.00283
2119.91711,0.00323
2117.85694,0.00386
2115.79676,0.00397
2113.73659,0.00418
2111.67642,0.00452
2109.61625,0.00417
2107.55608,0.00368
2105.49590,0.00412
2103.43573,0.00513
2101.37556,0.00551
2099.31539,0.00475
2097.25521,0.00364
2095.19504,0.00321
2093.13487,0.00331
2091.07470,0.00375
2089.01453,0.00412
2086.95435,0.00386
2084.89418,0.00344
2082.83401,0.00320
2080.77384,0.00325
2078.71367,0.00393
2076.65349,0.00472
2074.59332,0.00524
2072.53315,0.00583
2070.47298,0.00597
2068.41281,0.00520
2066.35263,0.00437
2064.29246,0.00391
2062.23229,0.00371
2060.17212,0.00394
2058.11194,0.00425
2056.05177,0.00423
2053.99160,0.00419
2051.93143,0.00401
2049.87126,0.00366
2047.81108,0.00382
2045.75091,0.00430
2043.69074,0.00426
2041.63057,0.00360
2039.57040,0.00301
2037.51022,0.00318
2035.45005,0.00384
2033.38988,0.00399
2031.32971,0.00380
2029.26954,0.00386
2027.20936,0.00396
2025.14919,0.00408
2023.08902,0.00414
2021.02885,0.00383
2018.96867,0.00300
2016.90850,0.00204
2014.84833,0.00186
2012.78816,0.00199
2010.72799,0.00148
2008.66781,0.00086
2006.60764,0.00121
2004.54747,0.00208
2002.48730,0.00239
2000.42713,0.00290
1998.36695,0.00395
1996.30678,0.00416
1994.24661,0.00302
1992.18644,0.00143
1990.12626,0.00110
1988.06609,0.00177
1986.00592,0.00156
1983.94575,0.00088
1981.88558,0.00094
1979.82540,0.00091
1977.76523,0.00010
1975.70506,0.00000
1973.64489,0.00109
1971.58472,0.00179
1969.52454,0.00121
1967.46437,0.00071
1965.40420,0.00136
1963.34403,0.00198
1961.28386,0.00180
1959.22368,0.00169
1957.16351,0.00235
1955.10334,0.00292
1953.04317,0.00258
1950.98299,0.00215
1948.92282,0.00230
1946.86265,0.00227
1944.80248,0.00164
1942.74231,0.00140
1940.68213,0.00214
1938.62196,0.00309
1936.56179,0.00344
1934.50162,0.00291
1932.44145,0.00229
1930.38127,0.00240
1928.32110,0.00278
1926.26093,0.00291
1924.20076,0.00305
1922.14059,0.00307
1920.08041,0.00246
1918.02024,0.00161
1915.96007,0.00152
1913.89990,0.00194
1911.83972,0.00201
1909.77955,0.00174
1907.71938,0.00155
1905.65921,0.00138
1903.59904,0.00118
1901.53886,0.00116
1899.47869,0.00139
1897.41852,0.00179
1895.35835,0.00215
1893.29818,0.00233
1891.23800,0.00250
1889.17783,0.00268
1887.11766,0.00264
1885.05749,0.00250
1882.99731,0.00239
1880.93714,0.00233
1878.87697,0.00235
1876.81680,0.00244
1874.75663,0.00252
1872.69645,0.00252
1870.63628,0.00259
1868.57611,0.00277
1866.51594,0.00281
1864.45577,0.00248
1862.39559,0.00192
1860.33542,0.00159
1858.27525,0.00166
1856.21508,0.00202
1854.15491,0.00237
1852.09473,0.00249
1850.03456,0.00235
1847.97439,0.00203
1845.91422,0.00164
1843.85404,0.00138
1841.79387,0.00143
1839.73370,0.00163
1837.67353,0.00181
1835.61336,0.00202
1833.55318,0.00236
1831.49301,0.00273
1829.43284,0.00270
1827.37267,0.00218
1825.31250,0.00167
1823.25232,0.00156
1821.19215,0.00176
1819.13198,0.00199
1817.07181,0.00209
1815.01163,0.00211
1812.95146,0.00218
1810.89129,0.00225
1808.83112,0.00217
1806.77095,0.00210
1804.71077,0.00221
1802.65060,0.00235
1800.59043,0.00243
1798.53026,0.00254
1796.47009,0.00257
1794.40991,0.00240
1792.34974,0.00211
1790.28957,0.00188
1788.22940,0.00187
1786.16923,0.00209
1784.10905,0.00246
1782.04888,0.00274
1779.98871,0.00276
1777.92854,0.00255
1775.86836,0.00235
1773.80819,0.00238
1771.74802,0.00253
1769.68785,0.00254
1767.62768,0.00239
1765.56750,0.00222
1763.50733,0.00222
1761.44716,0.00240
1759.38699,0.00260
1757.32682,0.00284
1755.26664,0.00317
1753.20647,0.00339
1751.14630,0.00343
1749.08613,0.00348
1747.02596,0.00362
1744.96578,0.00379
1742.90561,0.00404
1740.84544,0.00426
1738.78527,0.00431
1736.72509,0.00419
1734.66492,0.00406
1732.60475,0.00416
1730.54458,0.00460
1728.48441,0.00504
1726.42423,0.00524
1724.36406,0.00528
1722.30389,0.00537
1720.24372,0.00557
1718.18355,0.00572
1716.12337,0.00559
1714.06320,0.00540
1712.00303,0.00548
1709.94286,0.00591
1707.88268,0.00650
1705.82251,0.00697
1703.76234,0.00725
1701.70217,0.00752
1699.64200,0.00791
1697.58182,0.00842
1695.52165,0.00896
1693.46148,0.00941
1691.40131,0.00984
1689.34114,0.01042
1687.28096,0.01097
1685.22079,0.01141
1683.16062,0.01177
1681.10045,0.01210
1679.04028,0.01242
1676.98010,0.01285
1674.91993,0.01352
1672.85976,0.01426
1670.79959,0.01490
1668.73941,0.01534
1666.67924,0.01566
1664.61907,0.01611
1662.55890,0.01661
1660.49873,0.01690
1658.43855,0.01714
1656.37838,0.01748
1654.31821,0.01765
1652.25804,0.01748
1650.19787,0.01757
1648.13769,0.01806
1646.07752,0.01839
1644.01735,0.01811
1641.95718,0.01764
1639.89701,0.01743
1637.83683,0.01745
1635.77666,0.01732
1633.71649,0.01687
1631.65632,0.01644
1629.59614,0.01617
1627.53597,0.01594
1625.47580,0.01559
1623.41563,0.01521
1621.35546,0.01495
1619.29528,0.01489
1617.23511,0.01490
1615.17494,0.01473
1613.11477,0.01437
1611.05460,0.01398
1608.99442,0.01358
1606.93425,0.01319
1604.87408,0.01293
1602.81391,0.01275
1600.75373,0.01258
1598.69356,0.01243
1596.63339,0.01231
1594.57322,0.01211
1592.51305,0.01184
1590.45287,0.01163
1588.39270,0.01152
1586.33253,0.01137
1584.27236,0.01101
1582.21219,0.01052
1580.15201,0.01019
1578.09184,0.01016
1576.03167,0.01019
1573.97150,0.01000
1571.91133,0.00963
1569.85115,0.00925
1567.79098,0.00891
1565.73081,0.00863
1563.67064,0.00831
1561.61046,0.00809
1559.55029,0.00822
1557.49012,0.00849
1555.42995,0.00844
1553.36978,0.00811
1551.30960,0.00777
1549.24943,0.00747
1547.18926,0.00729
1545.12909,0.00735
1543.06892,0.00761
1541.00874,0.00765
1538.94857,0.00709
1536.88840,0.00648
1534.82823,0.00632
1532.76805,0.00638
1530.70788,0.00625
1528.64771,0.00595
1526.58754,0.00569
1524.52737,0.00553
1522.46719,0.00525
1520.40702,0.00491
1518.34685,0.00485
1516.28668,0.00487
1514.22651,0.00462
1512.16633,0.00437
1510.10616,0.00424
1508.04599,0.00395
1505.98582,0.00350
1503.92565,0.00343
1501.86547,0.00359
1499.80530,0.00374
1497.74513,0.00378
1495.68496,0.00365
1493.62478,0.00355
1491.56461,0.00359
1489.50444,0.00361
1487.44427,0.00345
1485.38410,0.00321
1483.32392,0.00308
1481.26375,0.00309
1479.20358,0.00313
1477.14341,0.00310
1475.08324,0.00311
1473.02306,0.00334
1470.96289,0.00359
1468.90272,0.00362
1466.84255,0.00359
1464.78238,0.00364
1462.72220,0.00373
1460.66203,0.00378
1458.60186,0.00380
1456.54169,0.00377
1454.48151,0.00367
1452.42134,0.00357
1450.36117,0.00353
1448.30100,0.00344
1446.24083,0.00332
1444.18065,0.00333
1442.12048,0.00343
1440.06031,0.00350
1438.00014,0.00351
1435.93997,0.00347
1433.87979,0.00345
1431.81962,0.00354
1429.75945,0.00369
1427.69928,0.00378
1425.63910,0.00388
1423.57893,0.00401
1421.51876,0.00404
1419.45859,0.00397
1417.39842,0.00399
1415.33824,0.00423
1413.27807,0.00449
1411.21790,0.00452
1409.15773,0.00438
1407.09756,0.00419
1405.03738,0.00400
1402.97721,0.00385
1400.91704,0.00377
1398.85687,0.00374
1396.79670,0.00370
1394.73652,0.00357
1392.67635,0.00336
1390.61618,0.00311
1388.55601,0.00295
1386.49583,0.00299
1384.43566,0.00309
1382.37549,0.00308
1380.31532,0.00297
1378.25515,0.00286
1376.19497,0.00281
1374.13480,0.00277
1372.07463,0.00269
1370.01446,0.00266
1367.95429,0.00272
1365.89411,0.00274
1363.83394,0.00271
1361.77377,0.00268
1359.71360,0.00263
1357.65343,0.00253
1355.59325,0.00239
1353.53308,0.00225
1351.47291,0.00215
1349.41274,0.00208
1347.35256,0.00202
1345.29239,0.00196
1343.23222,0.00190
1341.17205,0.00180
1339.11188,0.00170
1337.05170,0.00174
1334.99153,0.00191
1332.93136,0.00206
1330.87119,0.00211
1328.81102,0.00205
1326.75084,0.00197
1324.69067,0.00198
1322.63050,0.00199
1320.57033,0.00189
1318.51015,0.00181
1316.44998,0.00184
1314.38981,0.00194
1312.32964,0.00205
1310.26947,0.00216
1308.20929,0.00218
1306.14912,0.00208
1304.08895,0.00200
1302.02878,0.00211
1299.96861,0.00228
1297.90843,0.00242
1295.84826,0.00255
1293.78809,0.00266
1291.72792,0.00266
1289.66775,0.00257
1287.60757,0.00251
1285.54740,0.00253
1283.48723,0.00256
1281.42706,0.00256
1279.36688,0.00247
1277.30671,0.00240
1275.24654,0.00241
1273.18637,0.00248
1271.12620,0.00271
1269.06602,0.00298
1267.00585,0.00307
1264.94568,0.00305
1262.88551,0.00313
1260.82534,0.00328
1258.76516,0.00340
1256.70499,0.00344
1254.64482,0.00341
1252.58465,0.00331
1250.52447,0.00326
1248.46430,0.00329
1246.40413,0.00333
1244.34396,0.00331
1242.28379,0.00314
1240.22361,0.00284
1238.16344,0.00262
1236.10327,0.00265
1234.04310,0.00269
1231.98293,0.00253
1229.92275,0.00232
1227.86258,0.00217
1225.80241,0.00202
1223.74224,0.00188
1221.68207,0.00173
1219.62189,0.00158
1217.56172,0.00153
1215.50155,0.00147
1213.44138,0.00126
1211.38120,0.00103
1209.32103,0.00091
1207.26086,0.00083
1205.20069,0.00080
1203.14052,0.00083
1201.08034,0.00076
1199.02017,0.00057
1196.96000,0.00040
1194.89983,0.00033
1192.83966,0.00018
1190.77948,0.00000
1188.71931,0.00001
1186.65914,0.00021
1184.59897,0.00031
1182.53880,0.00027
1180.47862,0.00029
1178.41845,0.00032
1176.35828,0.00036
1174.29811,0.00053
1172.23793,0.00077
1170.17776,0.00093
1168.11759,0.00115
1166.05742,0.00149
1163.99725,0.00185
1161.93707,0.00199
1159.87690,0.00198
1157.81673,0.00218
1155.75656,0.00262
1153.69639,0.00311
1151.63621,0.00364
1149.57604,0.00407
1147.51587,0.00444
1145.45570,0.00492
1143.39552,0.00551
1141.33535,0.00618
1139.27518,0.00690
1137.21501,0.00761
1135.15484,0.00828
1133.09466,0.00905
1131.03449,0.01010
1128.97432,0.01127
1126.91415,0.01233
1124.85398,0.01341
1122.79380,0.01470
1120.73363,0.01610
1118.67346,0.01735
1116.61329,0.01857
1114.55312,0.01986
1112.49294,0.02120
1110.43277,0.02258
1108.37260,0.02398
1106.31243,0.02537
1104.25225,0.02671
1102.19208,0.02798
1100.13191,0.02923
1098.07174,0.03047
1096.01157,0.03157
1093.95139,0.03260
1091.89122,0.03362
1089.83105,0.03453
1087.77088,0.03546
1085.71071,0.03665
1083.65053,0.03784
1081.59036,0.03875
1079.53019,0.03947
1077.47002,0.04016
1075.40985,0.04091
1073.34967,0.04153
1071.28950,0.04199
1069.22933,0.04252
1067.16916,0.04300
1065.10898,0.04321
1063.04881,0.04326
1060.98864,0.04310
1058.92847,0.04273
1056.86830,0.04231
1054.80812,0.04181
1052.74795,0.04101
1050.68778,0.03988
1048.62761,0.03858
1046.56744,0.03719
1044.50726,0.03565
1042.44709,0.03387
1040.38692,0.03173
1038.32675,0.02939
1036.26657,0.02735
1034.20640,0.02560
1032.14623,0.02389
1030.08606,0.02239
1028.02589,0.02105
1025.96571,0.01963
1023.90554,0.01830
1021.84537,0.01715
1019.78520,0.01619
1017.72503,0.01541
1015.66485,0.01476
1013.60468,0.01442
1011.54451,0.01451
1009.48434,0.01487
1007.42417,0.01542
1005.36399,0.01628
1003.30382,0.01733
1001.24365,0.01829
999.18348,0.01925
997.12330,0.02032
995.06313,0.02154
993.00296,0.02293
990.94279,0.02428
988.88262,0.02537
986.82244,0.02601
984.76227,0.02637
982.70210,0.02680
980.64193,0.02716
978.58176,0.02714
976.52158,0.02671
974.46141,0.02612
972.40124,0.02551
970.34107,0.02476
968.28089,0.02372
966.22072,0.02232
964.16055,0.02055
962.10038,0.01868
960.04021,0.01721
957.98003,0.01598
955.91986,0.01452
953.85969,0.01312
951.79952,0.01210
949.73935,0.01115
947.67917,0.01002
945.61900,0.00885
943.55883,0.00785
941.49866,0.00705
939.43849,0.00631
937.37831,0.00553
935.31814,0.00490
933.25797,0.00439
931.19780,0.00374
929.13762,0.00307
927.07745,0.00267
925.01728,0.00250
922.95711,0.00237
920.89694,0.00215
918.83676,0.00184
916.77659,0.00158
914.71642,0.00135
912.65625,0.00112
910.59608,0.00088
908.53590,0.00068
906.47573,0.00073
904.41556,0.00094
902.35539,0.00116
900.29522,0.00140
898.23504,0.00160
896.17487,0.00169
894.11470,0.00191
892.05453,0.00235
889.99435,0.00286
887.93418,0.00337
885.87401,0.00398
883.81384,0.00466
881.75367,0.00525
879.69349,0.00560
877.63332,0.00598
875.57315,0.00661
873.51298,0.00729
871.45281,0.00810
869.39263,0.00880
867.33246,0.00918
865.27229,0.00975
863.21212,0.01023
861.15194,0.01011
859.09177,0.00987
857.03160,0.00997
854.97143,0.01011
852.91126,0.00997
850.85108,0.00971
848.79091,0.00948
846.73074,0.00917
844.67057,0.00867
842.61040,0.00808
840.55022,0.00767
838.49005,0.00736
836.42988,0.00694
834.36971,0.00656
832.30954,0.00647
830.24936,0.00636
828.18919,0.00602
826.12902,0.00574
824.06885,0.00547
822.00867,0.00518
819.94850,0.00489
817.88833,0.00440
815.82816,0.00389
813.76799,0.00366
811.70781,0.00346
809.64764,0.00327
807.58747,0.00318
805.52730,0.00283
803.46713,0.00238
801.40695,0.00206
799.34678,0.00178
797.28661,0.00170
795.22644,0.00162
793.16627,0.00142
791.10609,0.00153
789.04592,0.00190
786.98575,0.00229
784.92558,0.00231
782.86540,0.00183
780.80523,0.00148
778.74506,0.00141
776.68489,0.00125
774.62472,0.00113
772.56454,0.00129
770.50437,0.00178
768.44420,0.00208
766.38403,0.00157
764.32386,0.00099
762.26368,0.00090
760.20351,0.00088
758.14334,0.00103
756.08317,0.00131
754.02299,0.00102
751.96282,0.00022
749.90265,0.00000
747.84248,0.00052
745.78231,0.00093
743.72213,0.00063
741.66196,0.00011
739.60179,0.00002
737.54162,0.00011
735.48145,-0.00011
733.42127,-0.00030
731.36110,0.00019
729.30093,0.00104
727.24076,0.00140
725.18059,0.00146
723.12041,0.00153
721.06024,0.00111
719.00007,0.00082
716.93990,0.00049
714.87972,-0.00013
712.81955,-0.00042
710.75938,-0.00005
708.69921,0.00043
706.63904,0.00059
704.57886,0.00059
702.51869,0.00079
700.45852,0.00122
698.39835,0.00128
696.33818,0.00099
694.27800,0.00116
692.21783,0.00178
690.15766,0.00216
688.09749,0.00214
686.03731,0.00239
683.97714,0.00313
681.91697,0.00355
679.85680,0.00284
677.79663,0.00168
675.73645,0.00138
673.67628,0.00217
671.61611,0.00305
669.55594,0.00157
667.49577,0.00001
665.43559,0.00254
663.37542,0.00177
661.31525,0.00103
659.25508,0.00146
657.19491,0.00195
655.13473,0.00207
653.07456,0.00260
651.01439,0.00410
648.95422,0.00476
646.89404,0.00285
644.83387,0.00033
642.77370,0.00000
640.71353,0.00085
638.65336,0.00140
636.59318,0.00181
634.53301,0.00226
632.47284,0.00237
630.41267,0.00157
628.35250,0.00063
626.29232,0.00125
624.23215,0.00137
622.17198,0.00002
620.11181,-0.00006
618.05164,0.00069
615.99146,0.00190
613.93129,0.00363
611.87112,0.00313
609.81095,0.00191
607.75077,0.00286
605.69060,0.00376
603.63043,0.00349
601.57026,0.00224
599.51009,0.00000
