3996.73391,0.00039
3994.67373,0.00020
3992.61356,0.00004
3990.55339,0.00000
3988.49322,0.00014
3986.43305,0.00043
3984.37287,0.00075
3982.31270,0.00099
3980.25253,0.00106
3978.19236,0.00099
3976.13219,0.00093
3974.07201,0.00089
3972.01184,0.00076
3969.95167,0.00064
3967.89150,0.00074
3965.83133,0.00089
3963.77115,0.00077
3961.71098,0.00058
3959.65081,0.00078
3957.59064,0.00121
3955.53046,0.00149
3953.47029,0.00151
3951.41012,0.00129
3949.34995,0.00086
3947.28978,0.00054
3945.22960,0.00044
3943.16943,0.00030
3941.10926,0.00022
3939.04909,0.00052
3936.98892,0.00090
3934.92874,0.00098
3932.86857,0.00079
3930.80840,0.00057
3928.74823,0.00054
3926.68805,0.00076
3924.62788,0.00103
3922.56771,0.00104
3920.50754,0.00076
3918.44737,0.00049
3916.38719,0.00056
3914.32702,0.00092
3912.26685,0.00120
3910.20668,0.00135
3908.14651,0.00155
3906.08633,0.00162
3904.02616,0.00133
3901.96599,0.00112
3899.90582,0.00120
3897.84565,0.00128
3895.78547,0.00143
3893.72530,0.00150
3891.66513,0.00138
3889.60496,0.00142
3887.54478,0.00162
3885.48461,0.00159
3883.42444,0.00144
3881.36427,0.00135
3879.30410,0.00120
3877.24392,0.00110
3875.18375,0.00100
3873.12358,0.00077
3871.06341,0.00061
3869.00324,0.00065
3866.94306,0.00083
3864.88289,0.00080
3862.82272,0.00077
3860.76255,0.00128
3858.70237,0.00194
3856.64220,0.00195
3854.58203,0.00104
3852.52186,0.00000
3850.46169,0.00011
3848.40151,0.00101
3846.34134,0.00163
3844.28117,0.00171
3842.22100,0.00169
3840.16083,0.00164
3838.10065,0.00132
3836.04048,0.00117
3833.98031,0.00148
3831.92014,0.00189
3829.85997,0.00211
3827.79979,0.00217
3825.73962,0.00230
3823.67945,0.00261
3821.61928,0.00271
3819.55910,0.00257
3817.49893,0.00242
3815.43876,0.00191
3813.37859,0.00142
3811.31842,0.00157
3809.25824,0.00205
3807.19807,0.00221
3805.13790,0.00205
3803.07773,0.00188
3801.01756,0.00158
3798.95738,0.00137
3796.89721,0.00130
3794.83704,0.00141
3792.77687,0.00183
3790.71670,0.00219
3788.65652,0.00221
3786.59635,0.00206
3784.53618,0.00194
3782.47601,0.00184
3780.41583,0.00168
3778.35566,0.00156
3776.29549,0.00186
3774.23532,0.00240
3772.17515,0.00250
3770.11497,0.00193
3768.05480,0.00148
3765.99463,0.00176
3763.93446,0.00229
3761.87429,0.00269
3759.81411,0.00293
3757.75394,0.00292
3755.69377,0.00272
3753.63360,0.00246
3751.57342,0.00213
3749.51325,0.00193
3747.45308,0.00200
3745.39291,0.00166
3743.33274,0.00100
3741.27256,0.00113
3739.21239,0.00172
3737.15222,0.00176
3735.09205,0.00116
3733.03188,0.00089
3730.97170,0.00128
3728.91153,0.00175
3726.85136,0.00194
3724.79119,0.00197
3722.73102,0.00184
3720.67084,0.00147
3718.61067,0.00122
3716.55050,0.00152
3714.49033,0.00231
3712.43015,0.00305
3710.36998,0.00306
3708.30981,0.00247
3706.24964,0.00191
3704.18947,0.00183
3702.12929,0.00220
3700.06912,0.00252
3698.00895,0.00243
3695.94878,0.00208
3693.88861,0.00173
3691.82843,0.00143
3689.76826,0.00110
3687.70809,0.00104
3685.64792,0.00151
3683.58775,0.00212
3681.52757,0.00270
3679.46740,0.00323
3677.40723,0.00346
3675.34706,0.00326
3673.28688,0.00290
3671.22671,0.00232
3669.16654,0.00166
3667.10637,0.00162
3665.04620,0.00199
3662.98602,0.00229
3660.92585,0.00247
3658.86568,0.00257
3656.80551,0.00267
3654.74534,0.00311
3652.68516,0.00407
3650.62499,0.00476
3648.56482,0.00426
3646.50465,0.00341
3644.44447,0.00328
3642.38430,0.00362
3640.32413,0.00407
3638.26396,0.00449
3636.20379,0.00483
3634.14361,0.00500
3632.08344,0.00495
3630.02327,0.00482
3627.96310,0.00489
3625.90293,0.00532
3623.84275,0.00580
3621.78258,0.00591
3619.72241,0.00552
3617.66224,0.00514
3615.60207,0.00525
3613.54189,0.00553
3611.48172,0.00584
3609.42155,0.00623
3607.36138,0.00652
3605.30120,0.00686
3603.24103,0.00723
3601.18086,0.00742
3599.12069,0.00746
3597.06052,0.00739
3595.00034,0.00733
3592.94017,0.00754
3590.88000,0.00798
3588.81983,0.00832
3586.75966,0.00830
3584.69948,0.00814
3582.63931,0.00817
3580.57914,0.00823
3578.51897,0.00814
3576.45879,0.00816
3574.39862,0.00844
3572.33845,0.00894
3570.27828,0.00942
3568.21811,0.00948
3566.15793,0.00925
3564.09776,0.00939
3562.03759,0.00995
3559.97742,0.01043
3557.91725,0.01058
3555.85707,0.01053
3553.79690,0.01044
3551.73673,0.01041
3549.67656,0.01051
3547.61639,0.01064
3545.55621,0.01067
3543.49604,0.01063
3541.43587,0.01076
3539.37570,0.01116
3537.31552,0.01162
3535.25535,0.01185
3533.19518,0.01188
3531.13501,0.01208
3529.07484,0.01242
3527.01466,0.01275
3524.95449,0.01307
3522.89432,0.01326
3520.83415,0.01324
3518.77398,0.01328
3516.71380,0.01353
3514.65363,0.01392
3512.59346,0.01423
3510.53329,0.01425
3508.47312,0.01421
3506.41294,0.01429
3504.35277,0.01423
3502.29260,0.01403
3500.23243,0.01405
3498.17225,0.01424
3496.11208,0.01443
3494.05191,0.01475
3491.99174,0.01506
3489.93157,0.01519
3487.87139,0.01520
3485.81122,0.01512
3483.75105,0.01520
3481.69088,0.01562
3479.63071,0.01601
3477.57053,0.01600
3475.51036,0.01574
3473.45019,0.01566
3471.39002,0.01576
3469.32984,0.01589
3467.26967,0.01615
3465.20950,0.01642
3463.14933,0.01650
3461.08916,0.01652
3459.02898,0.01684
3456.96881,0.01742
3454.90864,0.01771
3452.84847,0.01754
3450.78830,0.01751
3448.72812,0.01800
3446.66795,0.01830
3444.60778,0.01803
3442.54761,0.01774
3440.48744,0.01768
3438.42726,0.01780
3436.36709,0.01818
3434.30692,0.01857
3432.24675,0.01869
3430.18657,0.01872
3428.12640,0.01881
3426.06623,0.01874
3424.00606,0.01856
3421.94589,0.01845
3419.88571,0.01837
3417.82554,0.01851
3415.76537,0.01914
3413.70520,0.01989
3411.64503,0.02007
3409.58485,0.01986
3407.52468,0.01985
3405.46451,0.01972
3403.40434,0.01932
3401.34416,0.01911
3399.28399,0.01911
3397.22382,0.01933
3395.16365,0.01964
3393.10348,0.01981
3391.04330,0.01987
3388.98313,0.02003
3386.92296,0.02018
3384.86279,0.02028
3382.80262,0.02043
3380.74244,0.02057
3378.68227,0.02049
3376.62210,0.02015
3374.56193,0.01981
3372.50176,0.01968
3370.44158,0.01977
3368.38141,0.02007
3366.32124,0.02030
3364.26107,0.02026
3362.20089,0.02034
3360.14072,0.02067
3358.08055,0.02102
3356.02038,0.02110
3353.96021,0.02083
3351.90003,0.02053
3349.83986,0.02043
3347.77969,0.02042
3345.71952,0.02046
3343.65935,0.02067
3341.59917,0.02088
3339.53900,0.02096
3337.47883,0.02093
3335.41866,0.02088
3333.35849,0.02079
3331.29831,0.02060
3329.23814,0.02046
3327.17797,0.02057
3325.11780,0.02080
3323.05762,0.02091
3320.99745,0.02076
3318.93728,0.02050
3316.87711,0.02043
3314.81694,0.02053
3312.75676,0.02072
3310.69659,0.02088
3308.63642,0.02084
3306.57625,0.02070
3304.51608,0.02078
3302.45590,0.02105
3300.39573,0.02122
3298.33556,0.02122
3296.27539,0.02114
3294.21521,0.02096
3292.15504,0.02077
3290.09487,0.02078
3288.03470,0.02085
3285.97453,0.02095
3283.91435,0.02121
3281.85418,0.02130
3279.79401,0.02097
3277.73384,0.02070
3275.67367,0.02082
3273.61349,0.02093
3271.55332,0.02083
3269.49315,0.02076
3267.43298,0.02072
3265.37281,0.02070
3263.31263,0.02079
3261.25246,0.02075
3259.19229,0.02064
3257.13212,0.02077
3255.07194,0.02100
3253.01177,0.02106
3250.95160,0.02099
3248.89143,0.02098
3246.83126,0.02103
3244.77108,0.02115
3242.71091,0.02135
3240.65074,0.02145
3238.59057,0.02132
3236.53040,0.02108
3234.47022,0.02080
3232.41005,0.02063
3230.34988,0.02076
3228.28971,0.02103
3226.22954,0.02125
3224.16936,0.02122
3222.10919,0.02080
3220.04902,0.02052
3217.98885,0.02072
3215.92867,0.02093
3213.86850,0.02089
3211.80833,0.02075
3209.74816,0.02060
3207.68799,0.02041
3205.62781,0.02016
3203.56764,0.01990
3201.50747,0.01980
3199.44730,0.01989
3197.38713,0.02005
3195.32695,0.02009
3193.26678,0.02000
3191.20661,0.02002
3189.14644,0.02010
3187.08626,0.02001
3185.02609,0.01978
3182.96592,0.01964
3180.90575,0.01968
3178.84558,0.01984
3176.78540,0.01979
3174.72523,0.01937
3172.66506,0.01895
3170.60489,0.01881
3168.54472,0.01885
3166.48454,0.01900
3164.42437,0.01919
3162.36420,0.01926
3160.30403,0.01914
3158.24386,0.01896
3156.18368,0.01881
3154.12351,0.01873
3152.06334,0.01864
3150.00317,0.01849
3147.94299,0.01836
3145.88282,0.01828
3143.82265,0.01829
3141.76248,0.01831
3139.70231,0.01826
3137.64213,0.01820
3135.58196,0.01821
3133.52179,0.01817
3131.46162,0.01806
3129.40145,0.01804
3127.34127,0.01822
3125.28110,0.01845
3123.22093,0.01852
3121.16076,0.01838
3119.10058,0.01811
3117.04041,0.01797
3114.98024,0.01798
3112.92007,0.01789
3110.85990,0.01777
3108.79972,0.01756
3106.73955,0.01717
3104.67938,0.01692
3102.61921,0.01704
3100.55904,0.01732
3098.49886,0.01741
3096.43869,0.01747
3094.37852,0.01771
3092.31835,0.01774
3090.25818,0.01738
3088.19800,0.01712
3086.13783,0.01713
3084.07766,0.01720
3082.01749,0.01730
3079.95731,0.01731
3077.89714,0.01703
3075.83697,0.01673
3073.77680,0.01654
3071.71663,0.01639
3069.65645,0.01652
3067.59628,0.01676
3065.53611,0.01670
3063.47594,0.01658
3061.41577,0.01667
3059.35559,0.01663
3057.29542,0.01637
3055.23525,0.01611
3053.17508,0.01584
3051.11491,0.01558
3049.05473,0.01562
3046.99456,0.01590
3044.93439,0.01593
3042.87422,0.01567
3040.81404,0.01546
3038.75387,0.01547
3036.69370,0.01559
3034.63353,0.01562
3032.57336,0.01545
3030.51318,0.01510
3028.45301,0.01483
3026.39284,0.01472
3024.33267,0.01473
3022.27250,0.01483
3020.21232,0.01484
3018.15215,0.01470
3016.09198,0.01446
3014.03181,0.01434
3011.97163,0.01440
3009.91146,0.01438
3007.85129,0.01418
3005.79112,0.01402
3003.73095,0.01399
3001.67077,0.01400
2999.61060,0.01394
2997.55043,0.01389
2995.49026,0.01404
2993.43009,0.01419
2991.36991,0.01411
2989.30974,0.01383
2987.24957,0.01357
2985.18940,0.01359
2983.12923,0.01385
2981.06905,0.01395
2979.00888,0.01382
2976.94871,0.01360
2974.88854,0.01339
2972.82836,0.01341
2970.76819,0.01372
2968.70802,0.01402
2966.64785,0.01402
2964.58768,0.01392
2962.52750,0.01386
2960.46733,0.01367
2958.40716,0.01349
2956.34699,0.01356
2954.28682,0.01388
2952.22664,0.01414
2950.16647,0.01414
2948.10630,0.01400
2946.04613,0.01393
2943.98596,0.01399
2941.92578,0.01413
2939.86561,0.01420
2937.80544,0.01411
2935.74527,0.01405
2933.68509,0.01417
2931.62492,0.01422
2929.56475,0.01400
2927.50458,0.01376
2925.44441,0.01371
2923.38423,0.01379
2921.32406,0.01387
2919.26389,0.01392
2917.20372,0.01395
2915.14355,0.01387
2913.08337,0.01359
2911.02320,0.01322
2908.96303,0.01295
2906.90286,0.01283
2904.84268,0.01280
2902.78251,0.01265
2900.72234,0.01235
2898.66217,0.01208
2896.60200,0.01189
2894.54182,0.01172
2892.48165,0.01176
2890.42148,0.01199
2888.36131,0.01216
2886.30114,0.01219
2884.24096,0.01207
2882.18079,0.01179
2880.12062,0.01149
2878.06045,0.01118
2876.00028,0.01102
2873.94010,0.01115
2871.87993,0.01128
2869.81976,0.01124
2867.75959,0.01122
2865.69941,0.01116
2863.63924,0.01111
2861.57907,0.01109
2859.51890,0.01098
2857.45873,0.01088
2855.39855,0.01095
2853.33838,0.01096
2851.27821,0.01084
2849.21804,0.01078
2847.15787,0.01070
2845.09769,0.01042
2843.03752,0.01006
2840.97735,0.00977
2838.91718,0.00958
2836.85700,0.00951
2834.79683,0.00958
2832.73666,0.00969
2830.67649,0.00974
2828.61632,0.00956
2826.55614,0.00920
2824.49597,0.00898
2822.43580,0.00898
2820.37563,0.00900
2818.31546,0.00899
2816.25528,0.00894
2814.19511,0.00879
2812.13494,0.00863
2810.07477,0.00861
2808.01460,0.00866
2805.95442,0.00867
2803.89425,0.00866
2801.83408,0.00864
2799.77391,0.00850
2797.71373,0.00840
2795.65356,0.00852
2793.59339,0.00859
2791.53322,0.00843
2789.47305,0.00816
2787.41287,0.00799
2785.35270,0.00793
2783.29253,0.00795
2781.23236,0.00807
2779.17219,0.00809
2777.11201,0.00805
2775.05184,0.00805
2772.99167,0.00803
2770.93150,0.00796
2768.87133,0.00788
2766.81115,0.00771
2764.75098,0.00752
2762.69081,0.00750
2760.63064,0.00750
2758.57046,0.00736
2756.51029,0.00728
2754.45012,0.00728
2752.38995,0.00732
2750.32978,0.00747
2748.26960,0.00758
2746.20943,0.00753
2744.14926,0.00740
2742.08909,0.00737
2740.02892,0.00734
2737.96874,0.00718
2735.90857,0.00704
2733.84840,0.00698
2731.78823,0.00687
2729.72805,0.00676
2727.66788,0.00672
2725.60771,0.00683
2723.54754,0.00689
2721.48737,0.00671
2719.42719,0.00658
2717.36702,0.00660
2715.30685,0.00657
2713.24668,0.00655
2711.18651,0.00656
2709.12633,0.00663
2707.06616,0.00683
2705.00599,0.00692
2702.94582,0.00669
2700.88565,0.00646
2698.82547,0.00653
2696.76530,0.00666
2694.70513,0.00657
2692.64496,0.00636
2690.58478,0.00628
2688.52461,0.00632
2686.46444,0.00630
2684.40427,0.00618
2682.34410,0.00605
2680.28392,0.00596
2678.22375,0.00595
2676.16358,0.00597
2674.10341,0.00596
2672.04324,0.00590
2669.98306,0.00587
2667.92289,0.00578
2665.86272,0.00574
2663.80255,0.00585
2661.74238,0.00592
2659.68220,0.00586
2657.62203,0.00588
2655.56186,0.00613
2653.50169,0.00633
2651.44151,0.00622
2649.38134,0.00613
2647.32117,0.00629
2645.26100,0.00630
2643.20083,0.00586
2641.14065,0.00533
2639.08048,0.00524
2637.02031,0.00540
2634.96014,0.00556
2632.89997,0.00574
2630.83979,0.00588
2628.77962,0.00599
2626.71945,0.00610
2624.65928,0.00603
2622.59910,0.00587
2620.53893,0.00571
2618.47876,0.00546
2616.41859,0.00525
2614.35842,0.00508
2612.29824,0.00499
2610.23807,0.00498
2608.17790,0.00497
2606.11773,0.00496
2604.05756,0.00491
2601.99738,0.00478
2599.93721,0.00469
2597.87704,0.00481
2595.81687,0.00504
2593.75670,0.00507
2591.69652,0.00480
2589.63635,0.00465
2587.57618,0.00477
2585.51601,0.00489
2583.45583,0.00503
2581.39566,0.00511
2579.33549,0.00493
2577.27532,0.00481
2575.21515,0.00492
2573.15497,0.00483
2571.09480,0.00457
2569.03463,0.00465
2566.97446,0.00502
2564.91429,0.00533
2562.85411,0.00529
2560.79394,0.00481
2558.73377,0.00443
2556.67360,0.00452
2554.61342,0.00487
2552.55325,0.00520
2550.49308,0.00519
2548.43291,0.00476
2546.37274,0.00441
2544.31256,0.00436
2542.25239,0.00435
2540.19222,0.00439
2538.13205,0.00450
2536.07188,0.00471
2534.01170,0.00496
2531.95153,0.00471
2529.89136,0.00416
2527.83119,0.00414
2525.77102,0.00455
2523.71084,0.00484
2521.65067,0.00494
2519.59050,0.00477
2517.53033,0.00443
2515.47015,0.00436
2513.40998,0.00468
2511.34981,0.00514
2509.28964,0.00529
2507.22947,0.00504
2505.16929,0.00473
2503.10912,0.00456
2501.04895,0.00450
2498.98878,0.00428
2496.92861,0.00399
2494.86843,0.00405
2492.80826,0.00438
2490.74809,0.00463
2488.68792,0.00454
2486.62775,0.00435
2484.56757,0.00439
2482.50740,0.00456
2480.44723,0.00460
2478.38706,0.00461
2476.32688,0.00486
2474.26671,0.00508
2472.20654,0.00501
2470.14637,0.00496
2468.08620,0.00496
2466.02602,0.00498
2463.96585,0.00499
2461.90568,0.00483
2459.84551,0.00468
2457.78534,0.00448
2455.72516,0.00426
2453.66499,0.00436
2451.60482,0.00448
2449.54465,0.00427
2447.48447,0.00423
2445.42430,0.00452
2443.36413,0.00449
2441.30396,0.00428
2439.24379,0.00449
2437.18361,0.00486
2435.12344,0.00483
2433.06327,0.00486
2431.00310,0.00510
2428.94293,0.00488
2426.88275,0.00450
2424.82258,0.00447
2422.76241,0.00446
2420.70224,0.00437
2418.64207,0.00439
2416.58189,0.00449
2414.52172,0.00457
2412.46155,0.00461
2410.40138,0.00482
2408.34120,0.00498
2406.28103,0.00477
2404.22086,0.00452
2402.16069,0.00450
2400.10052,0.00456
2398.04034,0.00448
2395.98017,0.00427
2393.92000,0.00411
2391.85983,0.00415
2389.79966,0.00441
2387.73948,0.00464
2385.67931,0.00460
2383.61914,0.00448
2381.55897,0.00452
2379.49880,0.00460
2377.43862,0.00467
2375.37845,0.00506
2373.31828,0.00581
2371.25811,0.00654
2369.19793,0.00672
2367.13776,0.00658
2365.07759,0.00635
2363.01742,0.00492
2360.95725,0.00289
2358.89707,0.00244
2356.83690,0.00362
2354.77673,0.00497
2352.71656,0.00486
2350.65639,0.00382
2348.59621,0.00369
2346.53604,0.00484
2344.47587,0.00618
2342.41570,0.00651
2340.35552,0.00610
2338.29535,0.00635
2336.23518,0.00714
2334.17501,0.00719
2332.11484,0.00640
2330.05466,0.00566
2327.99449,0.00575
2325.93432,0.00620
2323.87415,0.00593
2321.81398,0.00517
2319.75380,0.00502
2317.69363,0.00555
2315.63346,0.00613
2313.57329,0.00633
2311.51312,0.00596
2309.45294,0.00545
2307.39277,0.00529
2305.33260,0.00527
2303.27243,0.00506
2301.21225,0.00472
2299.15208,0.00461
2297.09191,0.00494
2295.03174,0.00540
2292.97157,0.00575
2290.91139,0.00617
2288.85122,0.00647
2286.79105,0.00620
2284.73088,0.00567
2282.67071,0.00536
2280.61053,0.00526
2278.55036,0.00529
2276.49019,0.00556
2274.43002,0.00578
2272.36984,0.00549
2270.30967,0.00488
2268.24950,0.00439
2266.18933,0.00434
2264.12916,0.00486
2262.06898,0.00552
2260.00881,0.00569
2257.94864,0.00517
2255.88847,0.00446
2253.82830,0.00421
2251.76812,0.00444
2249.70795,0.00465
2247.64778,0.00426
2245.58761,0.00386
2243.52744,0.00438
2241.46726,0.00537
2239.40709,0.00615
2237.34692,0.00640
2235.28675,0.00597
2233.22657,0.00532
2231.16640,0.00502
2229.10623,0.00478
2227.04606,0.00416
2224.98589,0.00384
2222.92571,0.00413
2220.86554,0.00461
2218.80537,0.00505
2216.74520,0.00516
2214.68503,0.00486
2212.62485,0.00465
2210.56468,0.00476
2208.50451,0.00503
2206.44434,0.00510
2204.38417,0.00443
2202.32399,0.00372
2200.26382,0.00344
2198.20365,0.00324
2196.14348,0.00339
2194.08330,0.00354
2192.02313,0.00360
2189.96296,0.00425
2187.90279,0.00516
2185.84262,0.00498
2183.78244,0.00408
2181.72227,0.00379
2179.66210,0.00346
2177.60193,0.00266
2175.54176,0.00258
2173.48158,0.00387
2171.42141,0.00475
2169.36124,0.00436
2167.30107,0.00388
2165.24089,0.00355
2163.18072,0.00297
2161.12055,0.00186
2159.06038,0.00104
2157.00021,0.00117
2154.94003,0.00120
2152.87986,0.00109
2150.81969,0.00192
2148.75952,0.00277
2146.69935,0.00265
2144.63917,0.00222
2142.57900,0.00195
2140.51883,0.00231
2138.45866,0.00242
2136.39849,0.00167
2134.33831,0.00151
2132.27814,0.00224
2130.21797,0.00333
2128.15780,0.00433
2126.09762,0.00427
2124.03745,0.00362
2121.97728,0.00349
2119.91711,0.00370
2117.85694,0.00391
2115.79676,0.00399
2113.73659,0.00403
2111.67642,0.00400
2109.61625,0.00356
2107.55608,0.00294
2105.49590,0.00303
2103.43573,0.00398
2101.37556,0.00475
2099.31539,0.00459
2097.25521,0.00379
2095.19504,0.00315
2093.13487,0.00297
2091.07470,0.00322
2089.01453,0.00347
2086.95435,0.00344
2084.89418,0.00351
2082.83401,0.00338
2080.77384,0.00307
2078.71367,0.00347
2076.65349,0.00413
2074.59332,0.00434
2072.53315,0.00446
2070.47298,0.00423
2068.41281,0.00334
2066.35263,0.00249
2064.29246,0.00197
2062.23229,0.00183
2060.17212,0.00268
2058.11194,0.00393
2056.05177,0.00467
2053.99160,0.00537
2051.93143,0.00572
2049.87126,0.00482
2047.81108,0.00356
2045.75091,0.00315
2043.69074,0.00335
2041.63057,0.00389
2039.57040,0.00451
2037.51022,0.00453
2035.45005,0.00409
2033.38988,0.00380
2031.32971,0.00382
2029.26954,0.00435
2027.20936,0.00522
2025.14919,0.00560
2023.08902,0.00560
2021.02885,0.00542
2018.96867,0.00415
2016.90850,0.00254
2014.84833,0.00216
2012.78816,0.00205
2010.72799,0.00134
2008.66781,0.00100
2006.60764,0.00117
2004.54747,0.00128
2002.48730,0.00129
2000.42713,0.00145
1998.36695,0.00185
1996.30678,0.00220
1994.24661,0.00214
1992.18644,0.00142
1990.12626,0.00138
1988.06609,0.00283
1986.00592,0.00337
1983.94575,0.00204
1981.88558,0.00076
1979.82540,0.00025
1977.76523,0.00000
1975.70506,0.00043
1973.64489,0.00133
1971.58472,0.00134
1969.52454,0.00078
1967.46437,0.00086
1965.40420,0.00128
1963.34403,0.00137
1961.28386,0.00173
1959.22368,0.00259
1957.16351,0.00289
1955.10334,0.00228
1953.04317,0.00161
1950.98299,0.00143
1948.92282,0.00167
1946.86265,0.00197
1944.80248,0.00191
1942.74231,0.00202
1940.68213,0.00263
1938.62196,0.00306
1936.56179,0.00291
1934.50162,0.00247
1932.44145,0.00252
1930.38127,0.00307
1928.32110,0.00353
1926.26093,0.00379
1924.20076,0.00360
1922.14059,0.00269
1920.08041,0.00152
1918.02024,0.00098
1915.96007,0.00145
1913.89990,0.00193
1911.83972,0.00165
1909.77955,0.00124
1907.71938,0.00149
1905.65921,0.00208
1903.59904,0.00222
1901.53886,0.00210
1899.47869,0.00221
1897.41852,0.00246
1895.35835,0.00267
1893.29818,0.00272
1891.23800,0.00267
1889.17783,0.00266
1887.11766,0.00263
1885.05749,0.00253
1882.99731,0.00236
1880.93714,0.00217
1878.87697,0.00211
1876.81680,0.00219
1874.75663,0.00233
1872.69645,0.00249
1870.63628,0.00264
1868.57611,0.00272
1866.51594,0.00259
1864.45577,0.00216
1862.39559,0.00161
1860.33542,0.00142
1858.27525,0.00176
1856.21508,0.00216
1854.15491,0.00226
1852.09473,0.00221
1850.03456,0.00205
1847.97439,0.00177
1845.91422,0.00154
1843.85404,0.00140
1841.79387,0.00135
1839.73370,0.00141
1837.67353,0.00153
1835.61336,0.00170
1833.55318,0.00184
1831.49301,0.00193
1829.43284,0.00200
1827.37267,0.00196
1825.31250,0.00184
1823.25232,0.00176
1821.19215,0.00171
1819.13198,0.00170
1817.07181,0.00174
1815.01163,0.00174
1812.95146,0.00172
1810.89129,0.00178
1808.83112,0.00194
1806.77095,0.00217
1804.71077,0.00233
1802.65060,0.00222
1800.59043,0.00188
1798.53026,0.00161
1796.47009,0.00160
1794.40991,0.00165
1792.34974,0.00156
1790.28957,0.00151
1788.22940,0.00168
1786.16923,0.00193
1784.10905,0.00213
1782.04888,0.00216
1779.98871,0.00198
1777.92854,0.00179
1775.86836,0.00174
1773.80819,0.00174
1771.74802,0.00155
1769.68785,0.00131
1767.62768,0.00138
1765.56750,0.00168
1763.50733,0.00187
1761.44716,0.00190
1759.38699,0.00196
1757.32682,0.00219
1755.26664,0.00256
1753.20647,0.00283
1751.14630,0.00291
1749.08613,0.00289
1747.02596,0.00289
1744.96578,0.00293
1742.90561,0.00306
1740.84544,0.00328
1738.78527,0.00340
1736.72509,0.00330
1734.66492,0.00308
1732.60475,0.00304
1730.54458,0.00329
1728.48441,0.00358
1726.42423,0.00373
1724.36406,0.00376
1722.30389,0.00375
1720.24372,0.00366
1718.18355,0.00342
1716.12337,0.00326
1714.06320,0.00343
1712.00303,0.00369
1709.94286,0.00381
1707.88268,0.00383
1705.82251,0.00396
1703.76234,0.00429
1701.70217,0.00451
1699.64200,0.00458
1697.58182,0.00509
1695.52165,0.00599
1693.46148,0.00655
1691.40131,0.00669
1689.34114,0.00686
1687.28096,0.00714
1685.22079,0.00754
1683.16062,0.00815
1681.10045,0.00872
1679.04028,0.00912
1676.98010,0.00954
1674.91993,0.01006
1672.85976,0.01058
1670.79959,0.01115
1668.73941,0.01190
1666.67924,0.01249
1664.61907,0.01284
1662.55890,0.01320
1660.49873,0.01351
1658.43855,0.01368
1656.37838,0.01378
1654.31821,0.01395
1652.25804,0.01404
1650.19787,0.01391
1648.13769,0.01382
1646.07752,0.01405
1644.01735,0.01420
1641.95718,0.01407
1639.89701,0.01387
1637.83683,0.01375
1635.77666,0.01360
1633.71649,0.01333
1631.65632,0.01300
1629.59614,0.01271
1627.53597,0.01243
1625.47580,0.01198
1623.41563,0.01152
1621.35546,0.01124
1619.29528,0.01107
1617.23511,0.01104
1615.17494,0.01111
1613.11477,0.01101
1611.05460,0.01071
1608.99442,0.01044
1606.93425,0.01030
1604.87408,0.01022
1602.81391,0.01014
1600.75373,0.01005
1598.69356,0.00992
1596.63339,0.00966
1594.57322,0.00935
1592.51305,0.00916
1590.45287,0.00918
1588.39270,0.00926
1586.33253,0.00922
1584.27236,0.00896
1582.21219,0.00859
1580.15201,0.00832
1578.09184,0.00825
1576.03167,0.00826
1573.97150,0.00810
1571.91133,0.00778
1569.85115,0.00748
1567.79098,0.00735
1565.73081,0.00729
1563.67064,0.00710
1561.61046,0.00675
1559.55029,0.00655
1557.49012,0.00679
1555.42995,0.00707
1553.36978,0.00709
1551.30960,0.00689
1549.24943,0.00664
1547.18926,0.00647
1545.12909,0.00636
1543.06892,0.00623
1541.00874,0.00607
1538.94857,0.00588
1536.88840,0.00566
1534.82823,0.00543
1532.76805,0.00522
1530.70788,0.00509
1528.64771,0.00496
1526.58754,0.00473
1524.52737,0.00450
1522.46719,0.00432
1520.40702,0.00412
1518.34685,0.00403
1516.28668,0.00413
1514.22651,0.00413
1512.16633,0.00387
1510.10616,0.00343
1508.04599,0.00292
1505.98582,0.00272
1503.92565,0.00290
1501.86547,0.00308
1499.80530,0.00313
1497.74513,0.00309
1495.68496,0.00295
1493.62478,0.00283
1491.56461,0.00278
1489.50444,0.00271
1487.44427,0.00262
1485.38410,0.00262
1483.32392,0.00273
1481.26375,0.00280
1479.20358,0.00269
1477.14341,0.00240
1475.08324,0.00219
1473.02306,0.00256
1470.96289,0.00337
1468.90272,0.00384
1466.84255,0.00391
1464.78238,0.00383
1462.72220,0.00368
1460.66203,0.00350
1458.60186,0.00343
1456.54169,0.00355
1454.48151,0.00369
1452.42134,0.00377
1450.36117,0.00379
1448.30100,0.00370
1446.24083,0.00358
1444.18065,0.00356
1442.12048,0.00364
1440.06031,0.00372
1438.00014,0.00364
1435.93997,0.00346
1433.87979,0.00342
1431.81962,0.00355
1429.75945,0.00378
1427.69928,0.00397
1425.63910,0.00404
1423.57893,0.00397
1421.51876,0.00391
1419.45859,0.00404
1417.39842,0.00434
1415.33824,0.00459
1413.27807,0.00471
1411.21790,0.00470
1409.15773,0.00460
1407.09756,0.00447
1405.03738,0.00431
1402.97721,0.00414
1400.91704,0.00398
1398.85687,0.00386
1396.79670,0.00382
1394.73652,0.00382
1392.67635,0.00375
1390.61618,0.00355
1388.55601,0.00333
1386.49583,0.00325
1384.43566,0.00332
1382.37549,0.00347
1380.31532,0.00358
1378.25515,0.00350
1376.19497,0.00325
1374.13480,0.00303
1372.07463,0.00296
1370.01446,0.00295
1367.95429,0.00290
1365.89411,0.00283
1363.83394,0.00274
1361.77377,0.00264
1359.71360,0.00261
1357.65343,0.00270
1355.59325,0.00279
1353.53308,0.00278
1351.47291,0.00268
1349.41274,0.00253
1347.35256,0.00237
1345.29239,0.00229
1343.23222,0.00225
1341.17205,0.00212
1339.11188,0.00192
1337.05170,0.00183
1334.99153,0.00193
1332.93136,0.00212
1330.87119,0.00225
1328.81102,0.00226
1326.75084,0.00220
1324.69067,0.00221
1322.63050,0.00219
1320.57033,0.00203
1318.51015,0.00189
1316.44998,0.00190
1314.38981,0.00196
1312.32964,0.00203
1310.26947,0.00216
1308.20929,0.00231
1306.14912,0.00236
1304.08895,0.00227
1302.02878,0.00219
1299.96861,0.00225
1297.90843,0.00242
1295.84826,0.00260
1293.78809,0.00266
1291.72792,0.00261
1289.66775,0.00250
1287.60757,0.00238
1285.54740,0.00233
1283.48723,0.00235
1281.42706,0.00236
1279.36688,0.00230
1277.30671,0.00222
1275.24654,0.00222
1273.18637,0.00230
1271.12620,0.00247
1269.06602,0.00266
1267.00585,0.00268
1264.94568,0.00263
1262.88551,0.00270
1260.82534,0.00289
1258.76516,0.00306
1256.70499,0.00313
1254.64482,0.00309
1252.58465,0.00289
1250.52447,0.00265
1248.46430,0.00255
1246.40413,0.00257
1244.34396,0.00258
1242.28379,0.00250
1240.22361,0.00239
1238.16344,0.00237
1236.10327,0.00250
1234.04310,0.00253
1231.98293,0.00229
1229.92275,0.00196
1227.86258,0.00169
1225.80241,0.00152
1223.74224,0.00148
1221.68207,0.00140
1219.62189,0.00123
1217.56172,0.00109
1215.50155,0.00101
1213.44138,0.00085
1211.38120,0.00055
1209.32103,0.00028
1207.26086,0.00027
1205.20069,0.00046
1203.14052,0.00052
1201.08034,0.00029
1199.02017,0.00004
1196.96000,0.00000
1194.89983,0.00003
1192.83966,-0.00002
1190.77948,-0.00006
1188.71931,0.00001
1186.65914,0.00003
1184.59897,-0.00003
1182.53880,-0.00003
1180.47862,0.00003
1178.41845,-0.00003
1176.35828,-0.00014
1174.29811,-0.00005
1172.23793,0.00023
1170.17776,0.00052
1168.11759,0.00074
1166.05742,0.00084
1163.99725,0.00091
1161.93707,0.00097
1159.87690,0.00110
1157.81673,0.00138
1155.75656,0.00166
1153.69639,0.00199
1151.63621,0.00246
1149.57604,0.00285
1147.51587,0.00310
1145.45570,0.00330
1143.39552,0.00352
1141.33535,0.00387
1139.27518,0.00425
1137.21501,0.00447
1135.15484,0.00457
1133.09466,0.00483
1131.03449,0.00541
1128.97432,0.00606
1126.91415,0.00656
1124.85398,0.00705
1122.79380,0.00768
1120.73363,0.00830
1118.67346,0.00873
1116.61329,0.00921
1114.55312,0.00987
1112.49294,0.01050
1110.43277,0.01102
1108.37260,0.01163
1106.31243,0.01242
1104.25225,0.01321
1102.19208,0.01389
1100.13191,0.01445
1098.07174,0.01495
1096.01157,0.01542
1093.95139,0.01593
1091.89122,0.01637
1089.83105,0.01663
1087.77088,0.01698
1085.71071,0.01747
1083.65053,0.01790
1081.59036,0.01835
1079.53019,0.01890
1077.47002,0.01935
1075.40985,0.01962
1073.34967,0.01970
1071.28950,0.01980
1069.22933,0.01999
1067.16916,0.01996
1065.10898,0.01980
1063.04881,0.01979
1060.98864,0.01983
1058.92847,0.01983
1056.86830,0.01989
1054.80812,0.02007
1052.74795,0.02008
1050.68778,0.01975
1048.62761,0.01943
1046.56744,0.01923
1044.50726,0.01887
1042.44709,0.01830
1040.38692,0.01763
1038.32675,0.01692
1036.26657,0.01622
1034.20640,0.01549
1032.14623,0.01473
1030.08606,0.01430
1028.02589,0.01407
1025.96571,0.01355
1023.90554,0.01265
1021.84537,0.01168
1019.78520,0.01102
1017.72503,0.01059
1015.66485,0.01003
1013.60468,0.00959
1011.54451,0.00948
1009.48434,0.00946
1007.42417,0.00944
1005.36399,0.00957
1003.30382,0.00976
1001.24365,0.00986
999.18348,0.01005
997.12330,0.01057
995.06313,0.01123
993.00296,0.01173
990.94279,0.01213
988.88262,0.01247
986.82244,0.01263
984.76227,0.01266
982.70210,0.01278
980.64193,0.01283
978.58176,0.01270
976.52158,0.01245
974.46141,0.01214
972.40124,0.01195
970.34107,0.01181
968.28089,0.01147
966.22072,0.01105
964.16055,0.01053
962.10038,0.00984
960.04021,0.00916
957.98003,0.00849
955.91986,0.00774
953.85969,0.00714
951.79952,0.00674
949.73935,0.00619
947.67917,0.00544
945.61900,0.00479
943.55883,0.00424
941.49866,0.00365
939.43849,0.00317
937.37831,0.00288
935.31814,0.00268
933.25797,0.00237
931.19780,0.00196
929.13762,0.00161
927.07745,0.00140
925.01728,0.00125
922.95711,0.00112
920.89694,0.00101
918.83676,0.00092
916.77659,0.00084
914.71642,0.00072
912.65625,0.00059
910.59608,0.00034
908.53590,0.00008
906.47573,0.00013
904.41556,0.00034
902.35539,0.00036
900.29522,0.00045
898.23504,0.00076
896.17487,0.00099
894.11470,0.00123
892.05453,0.00161
889.99435,0.00175
887.93418,0.00164
885.87401,0.00145
883.81384,0.00143
881.75367,0.00186
879.69349,0.00240
877.63332,0.00275
875.57315,0.00297
873.51298,0.00305
871.45281,0.00317
869.39263,0.00330
867.33246,0.00341
865.27229,0.00379
863.21212,0.00423
861.15194,0.00427
859.09177,0.00420
857.03160,0.00452
854.97143,0.00475
852.91126,0.00454
850.85108,0.00454
848.79091,0.00478
846.73074,0.00456
844.67057,0.00377
842.61040,0.00309
840.55022,0.00310
838.49005,0.00341
836.42988,0.00351
834.36971,0.00347
832.30954,0.00350
830.24936,0.00357
828.18919,0.00345
826.12902,0.00309
824.06885,0.00271
822.00867,0.00257
819.94850,0.00265
817.88833,0.00261
815.82816,0.00251
813.76799,0.00247
811.70781,0.00209
809.64764,0.00175
807.58747,0.00178
805.52730,0.00153
803.46713,0.00113
801.40695,0.00107
799.34678,0.00117
797.28661,0.00141
795.22644,0.00174
793.16627,0.00198
791.10609,0.00228
789.04592,0.00228
786.98575,0.00210
784.92558,0.00206
782.86540,0.00169
780.80523,0.00122
778.74506,0.00113
776.68489,0.00121
774.62472,0.00153
772.56454,0.00185
770.50437,0.00164
768.44420,0.00136
766.38403,0.00145
764.32386,0.00160
762.26368,0.00135
760.20351,0.00091
758.14334,0.00084
756.08317,0.00133
754.02299,0.00186
751.96282,0.00178
749.90265,0.00167
747.84248,0.00191
745.78231,0.00196
743.72213,0.00155
741.66196,0.00075
739.60179,0.00031
737.54162,0.00069
735.48145,0.00093
733.42127,0.00059
731.36110,0.00074
729.30093,0.00169
727.24076,0.00244
725.18059,0.00243
723.12041,0.00182
721.06024,0.00108
719.00007,0.00088
716.93990,0.00119
714.87972,0.00129
712.81955,0.00121
710.75938,0.00122
708.69921,0.00116
706.63904,0.00106
704.57886,0.00132
702.51869,0.00207
700.45852,0.00285
698.39835,0.00299
696.33818,0.00258
694.27800,0.00208
692.21783,0.00173
690.15766,0.00184
688.09749,0.00250
686.03731,0.00301
683.97714,0.00292
681.91697,0.00286
679.85680,0.00296
677.79663,0.00240
675.73645,0.00141
673.67628,0.00079
671.61611,0.00064
669.55594,0.00125
667.49577,0.00261
665.43559,0.00335
663.37542,0.00338
661.31525,0.00323
659.25508,0.00274
657.19491,0.00216
655.13473,0.00231
653.07456,0.00301
651.01439,0.00303
648.95422,0.00186
646.89404,0.00041
644.83387,0.00000
642.77370,0.00072
640.71353,0.00188
638.65336,0.00294
636.59318,0.00388
634.53301,0.00417
632.47284,0.00313
630.41267,0.00116
628.35250,0.00026
626.29232,0.00180
624.23215,0.00281
622.17198,0.00220
620.11181,0.00200
618.05164,0.00151
615.99146,0.00061
613.93129,0.00078
611.87112,0.00150
609.81095,0.00179
607.75077,0.00153
605.69060,0.00079
603.63043,0.00003
601.57026,-0.00017
599.51009,0.00000
