3996.73391,0.00023
3994.67373,0.00009
3992.61356,0.00034
3990.55339,0.00043
3988.49322,0.00012
3986.43305,0.00000
3984.37287,0.00028
3982.31270,0.00065
3980.25253,0.00094
3978.19236,0.00101
3976.13219,0.00082
3974.07201,0.00069
3972.01184,0.00081
3969.95167,0.00091
3967.89150,0.00083
3965.83133,0.00075
3963.77115,0.00086
3961.71098,0.00102
3959.65081,0.00095
3957.59064,0.00070
3955.53046,0.00046
3953.47029,0.00032
3951.41012,0.00041
3949.34995,0.00075
3947.28978,0.00106
3945.22960,0.00111
3943.16943,0.00100
3941.10926,0.00095
3939.04909,0.00089
3936.98892,0.00085
3934.92874,0.00106
3932.86857,0.00132
3930.80840,0.00111
3928.74823,0.00059
3926.68805,0.00038
3924.62788,0.00059
3922.56771,0.00098
3920.50754,0.00131
3918.44737,0.00143
3916.38719,0.00121
3914.32702,0.00091
3912.26685,0.00081
3910.20668,0.00081
3908.14651,0.00061
3906.08633,0.00034
3904.02616,0.00031
3901.96599,0.00048
3899.90582,0.00057
3897.84565,0.00066
3895.78547,0.00082
3893.72530,0.00086
3891.66513,0.00083
3889.60496,0.00103
3887.54478,0.00129
3885.48461,0.00120
3883.42444,0.00083
3881.36427,0.00075
3879.30410,0.00121
3877.24392,0.00161
3875.18375,0.00165
3873.12358,0.00162
3871.06341,0.00161
3869.00324,0.00137
3866.94306,0.00092
3864.88289,0.00075
3862.82272,0.00106
3860.76255,0.00129
3858.70237,0.00092
3856.64220,0.00031
3854.58203,0.00034
3852.52186,0.00103
3850.46169,0.00111
3848.40151,0.00069
3846.34134,0.00052
3844.28117,0.00070
3842.22100,0.00106
3840.16083,0.00138
3838.10065,0.00146
3836.04048,0.00136
3833.98031,0.00139
3831.92014,0.00150
3829.85997,0.00148
3827.79979,0.00139
3825.73962,0.00143
3823.67945,0.00171
3821.61928,0.00199
3819.55910,0.00186
3817.49893,0.00145
3815.43876,0.00119
3813.37859,0.00119
3811.31842,0.00130
3809.25824,0.00125
3807.19807,0.00091
3805.13790,0.00044
3803.07773,0.00020
3801.01756,0.00036
3798.95738,0.00061
3796.89721,0.00085
3794.83704,0.00099
3792.77687,0.00094
3790.71670,0.00088
3788.65652,0.00102
3786.59635,0.00126
3784.53618,0.00132
3782.47601,0.00107
3780.41583,0.00068
3778.35566,0.00062
3776.29549,0.00102
3774.23532,0.00151
3772.17515,0.00174
3770.11497,0.00182
3768.05480,0.00194
3765.99463,0.00189
3763.93446,0.00151
3761.87429,0.00109
3759.81411,0.00115
3757.75394,0.00156
3755.69377,0.00165
3753.63360,0.00131
3751.57342,0.00105
3749.51325,0.00115
3747.45308,0.00131
3745.39291,0.00136
3743.33274,0.00124
3741.27256,0.00101
3739.21239,0.00084
3737.15222,0.00097
3735.09205,0.00131
3733.03188,0.00142
3730.97170,0.00129
3728.91153,0.00124
3726.85136,0.00154
3724.79119,0.00195
3722.73102,0.00198
3720.67084,0.00169
3718.61067,0.00143
3716.55050,0.00143
3714.49033,0.00172
3712.43015,0.00199
3710.36998,0.00215
3708.30981,0.00241
3706.24964,0.00249
3704.18947,0.00215
3702.12929,0.00178
3700.06912,0.00189
3698.00895,0.00234
3695.94878,0.00272
3693.88861,0.00280
3691.82843,0.00251
3689.76826,0.00222
3687.70809,0.00209
3685.64792,0.00194
3683.58775,0.00185
3681.52757,0.00180
3679.46740,0.00156
3677.40723,0.00129
3675.34706,0.00148
3673.28688,0.00210
3671.22671,0.00272
3669.16654,0.00318
3667.10637,0.00326
3665.04620,0.00314
3662.98602,0.00322
3660.92585,0.00346
3658.86568,0.00364
3656.80551,0.00410
3654.74534,0.00491
3652.68516,0.00541
3650.62499,0.00536
3648.56482,0.00528
3646.50465,0.00529
3644.44447,0.00520
3642.38430,0.00529
3640.32413,0.00569
3638.26396,0.00610
3636.20379,0.00649
3634.14361,0.00688
3632.08344,0.00690
3630.02327,0.00666
3627.96310,0.00708
3625.90293,0.00800
3623.84275,0.00857
3621.78258,0.00891
3619.72241,0.00931
3617.66224,0.00944
3615.60207,0.00929
3613.54189,0.00963
3611.48172,0.01050
3609.42155,0.01107
3607.36138,0.01116
3605.30120,0.01127
3603.24103,0.01152
3601.18086,0.01168
3599.12069,0.01187
3597.06052,0.01237
3595.00034,0.01299
3592.94017,0.01327
3590.88000,0.01319
3588.81983,0.01320
3586.75966,0.01345
3584.69948,0.01374
3582.63931,0.01387
3580.57914,0.01395
3578.51897,0.01426
3576.45879,0.01479
3574.39862,0.01520
3572.33845,0.01538
3570.27828,0.01546
3568.21811,0.01555
3566.15793,0.01579
3564.09776,0.01640
3562.03759,0.01720
3559.97742,0.01770
3557.91725,0.01791
3555.85707,0.01801
3553.79690,0.01801
3551.73673,0.01805
3549.67656,0.01828
3547.61639,0.01858
3545.55621,0.01889
3543.49604,0.01919
3541.43587,0.01950
3539.37570,0.01992
3537.31552,0.02040
3535.25535,0.02068
3533.19518,0.02073
3531.13501,0.02092
3529.07484,0.02151
3527.01466,0.02219
3524.95449,0.02255
3522.89432,0.02269
3520.83415,0.02281
3518.77398,0.02295
3516.71380,0.02321
3514.65363,0.02349
3512.59346,0.02362
3510.53329,0.02365
3508.47312,0.02376
3506.41294,0.02393
3504.35277,0.02417
3502.29260,0.02457
3500.23243,0.02495
3498.17225,0.02515
3496.11208,0.02533
3494.05191,0.02555
3491.99174,0.02567
3489.93157,0.02582
3487.87139,0.02616
3485.81122,0.02673
3483.75105,0.02725
3481.69088,0.02747
3479.63071,0.02758
3477.57053,0.02775
3475.51036,0.02776
3473.45019,0.02754
3471.39002,0.02741
3469.32984,0.02764
3467.26967,0.02816
3465.20950,0.02859
3463.14933,0.02890
3461.08916,0.02928
3459.02898,0.02953
3456.96881,0.02945
3454.90864,0.02918
3452.84847,0.02904
3450.78830,0.02919
3448.72812,0.02951
3446.66795,0.02986
3444.60778,0.03004
3442.54761,0.03004
3440.48744,0.03027
3438.42726,0.03084
3436.36709,0.03132
3434.30692,0.03127
3432.24675,0.03120
3430.18657,0.03150
3428.12640,0.03169
3426.06623,0.03166
3424.00606,0.03171
3421.94589,0.03175
3419.88571,0.03174
3417.82554,0.03178
3415.76537,0.03187
3413.70520,0.03207
3411.64503,0.03223
3409.58485,0.03240
3407.52468,0.03272
3405.46451,0.03295
3403.40434,0.03284
3401.34416,0.03257
3399.28399,0.03265
3397.22382,0.03285
3395.16365,0.03285
3393.10348,0.03258
3391.04330,0.03242
3388.98313,0.03264
3386.92296,0.03300
3384.86279,0.03323
3382.80262,0.03332
3380.74244,0.03333
3378.68227,0.03332
3376.62210,0.03323
3374.56193,0.03315
3372.50176,0.03319
3370.44158,0.03312
3368.38141,0.03300
3366.32124,0.03309
3364.26107,0.03336
3362.20089,0.03346
3360.14072,0.03327
3358.08055,0.03307
3356.02038,0.03307
3353.96021,0.03322
3351.90003,0.03332
3349.83986,0.03334
3347.77969,0.03326
3345.71952,0.03312
3343.65935,0.03320
3341.59917,0.03330
3339.53900,0.03309
3337.47883,0.03297
3335.41866,0.03308
3333.35849,0.03308
3331.29831,0.03317
3329.23814,0.03342
3327.17797,0.03355
3325.11780,0.03346
3323.05762,0.03318
3320.99745,0.03297
3318.93728,0.03307
3316.87711,0.03333
3314.81694,0.03349
3312.75676,0.03333
3310.69659,0.03301
3308.63642,0.03286
3306.57625,0.03276
3304.51608,0.03272
3302.45590,0.03295
3300.39573,0.03310
3298.33556,0.03299
3296.27539,0.03300
3294.21521,0.03307
3292.15504,0.03280
3290.09487,0.03245
3288.03470,0.03245
3285.97453,0.03271
3283.91435,0.03295
3281.85418,0.03289
3279.79401,0.03269
3277.73384,0.03280
3275.67367,0.03317
3273.61349,0.03339
3271.55332,0.03329
3269.49315,0.03309
3267.43298,0.03293
3265.37281,0.03262
3263.31263,0.03227
3261.25246,0.03226
3259.19229,0.03248
3257.13212,0.03251
3255.07194,0.03255
3253.01177,0.03276
3250.95160,0.03281
3248.89143,0.03258
3246.83126,0.03222
3244.77108,0.03176
3242.71091,0.03138
3240.65074,0.03130
3238.59057,0.03150
3236.53040,0.03176
3234.47022,0.03187
3232.41005,0.03174
3230.34988,0.03150
3228.28971,0.03134
3226.22954,0.03142
3224.16936,0.03166
3222.10919,0.03164
3220.04902,0.03135
3217.98885,0.03125
3215.92867,0.03113
3213.86850,0.03080
3211.80833,0.03067
3209.74816,0.03073
3207.68799,0.03072
3205.62781,0.03081
3203.56764,0.03095
3201.50747,0.03080
3199.44730,0.03045
3197.38713,0.03018
3195.32695,0.03004
3193.26678,0.02998
3191.20661,0.03008
3189.14644,0.03033
3187.08626,0.03052
3185.02609,0.03043
3182.96592,0.03003
3180.90575,0.02942
3178.84558,0.02895
3176.78540,0.02893
3174.72523,0.02908
3172.66506,0.02900
3170.60489,0.02885
3168.54472,0.02886
3166.48454,0.02886
3164.42437,0.02876
3162.36420,0.02869
3160.30403,0.02862
3158.24386,0.02835
3156.18368,0.02807
3154.12351,0.02811
3152.06334,0.02823
3150.00317,0.02811
3147.94299,0.02798
3145.88282,0.02788
3143.82265,0.02753
3141.76248,0.02723
3139.70231,0.02731
3137.64213,0.02742
3135.58196,0.02714
3133.52179,0.02668
3131.46162,0.02644
3129.40145,0.02641
3127.34127,0.02642
3125.28110,0.02644
3123.22093,0.02649
3121.16076,0.02641
3119.10058,0.02617
3117.04041,0.02605
3114.98024,0.02611
3112.92007,0.02623
3110.85990,0.02611
3108.79972,0.02567
3106.73955,0.02530
3104.67938,0.02525
3102.61921,0.02524
3100.55904,0.02505
3098.49886,0.02493
3096.43869,0.02501
3094.37852,0.02510
3092.31835,0.02506
3090.25818,0.02492
3088.19800,0.02473
3086.13783,0.02455
3084.07766,0.02438
3082.01749,0.02419
3079.95731,0.02406
3077.89714,0.02407
3075.83697,0.02407
3073.77680,0.02394
3071.71663,0.02374
3069.65645,0.02336
3067.59628,0.02298
3065.53611,0.02287
3063.47594,0.02302
3061.41577,0.02310
3059.35559,0.02288
3057.29542,0.02258
3055.23525,0.02240
3053.17508,0.02228
3051.11491,0.02211
3049.05473,0.02192
3046.99456,0.02182
3044.93439,0.02194
3042.87422,0.02213
3040.81404,0.02211
3038.75387,0.02199
3036.69370,0.02188
3034.63353,0.02167
3032.57336,0.02145
3030.51318,0.02129
3028.45301,0.02111
3026.39284,0.02097
3024.33267,0.02091
3022.27250,0.02089
3020.21232,0.02075
3018.15215,0.02037
3016.09198,0.01995
3014.03181,0.01970
3011.97163,0.01965
3009.91146,0.01970
3007.85129,0.01969
3005.79112,0.01949
3003.73095,0.01920
3001.67077,0.01907
2999.61060,0.01909
2997.55043,0.01897
2995.49026,0.01884
2993.43009,0.01897
2991.36991,0.01909
2989.30974,0.01901
2987.24957,0.01887
2985.18940,0.01865
2983.12923,0.01846
2981.06905,0.01844
2979.00888,0.01854
2976.94871,0.01867
2974.88854,0.01869
2972.82836,0.01873
2970.76819,0.01884
2968.70802,0.01880
2966.64785,0.01859
2964.58768,0.01846
2962.52750,0.01845
2960.46733,0.01842
2958.40716,0.01824
2956.34699,0.01794
2954.28682,0.01779
2952.22664,0.01782
2950.16647,0.01777
2948.10630,0.01769
2946.04613,0.01774
2943.98596,0.01784
2941.92578,0.01781
2939.86561,0.01772
2937.80544,0.01772
2935.74527,0.01776
2933.68509,0.01769
2931.62492,0.01766
2929.56475,0.01771
2927.50458,0.01747
2925.44441,0.01715
2923.38423,0.01708
2921.32406,0.01704
2919.26389,0.01687
2917.20372,0.01663
2915.14355,0.01638
2913.08337,0.01616
2911.02320,0.01603
2908.96303,0.01603
2906.90286,0.01587
2904.84268,0.01548
2902.78251,0.01518
2900.72234,0.01521
2898.66217,0.01536
2896.60200,0.01537
2894.54182,0.01523
2892.48165,0.01508
2890.42148,0.01504
2888.36131,0.01512
2886.30114,0.01512
2884.24096,0.01505
2882.18079,0.01518
2880.12062,0.01535
2878.06045,0.01523
2876.00028,0.01494
2873.94010,0.01481
2871.87993,0.01483
2869.81976,0.01466
2867.75959,0.01424
2865.69941,0.01393
2863.63924,0.01382
2861.57907,0.01366
2859.51890,0.01362
2857.45873,0.01382
2855.39855,0.01383
2853.33838,0.01357
2851.27821,0.01327
2849.21804,0.01304
2847.15787,0.01285
2845.09769,0.01261
2843.03752,0.01248
2840.97735,0.01261
2838.91718,0.01262
2836.85700,0.01233
2834.79683,0.01206
2832.73666,0.01206
2830.67649,0.01212
2828.61632,0.01209
2826.55614,0.01201
2824.49597,0.01195
2822.43580,0.01190
2820.37563,0.01179
2818.31546,0.01161
2816.25528,0.01152
2814.19511,0.01154
2812.13494,0.01148
2810.07477,0.01132
2808.01460,0.01132
2805.95442,0.01139
2803.89425,0.01130
2801.83408,0.01130
2799.77391,0.01151
2797.71373,0.01167
2795.65356,0.01146
2793.59339,0.01111
2791.53322,0.01089
2789.47305,0.01063
2787.41287,0.01046
2785.35270,0.01044
2783.29253,0.01035
2781.23236,0.01024
2779.17219,0.01020
2777.11201,0.01027
2775.05184,0.01033
2772.99167,0.01029
2770.93150,0.01018
2768.87133,0.01008
2766.81115,0.00993
2764.75098,0.00963
2762.69081,0.00934
2760.63064,0.00932
2758.57046,0.00952
2756.51029,0.00969
2754.45012,0.00977
2752.38995,0.00980
2750.32978,0.00980
2748.26960,0.00976
2746.20943,0.00971
2744.14926,0.00959
2742.08909,0.00932
2740.02892,0.00908
2737.96874,0.00909
2735.90857,0.00914
2733.84840,0.00894
2731.78823,0.00879
2729.72805,0.00883
2727.66788,0.00882
2725.60771,0.00868
2723.54754,0.00856
2721.48737,0.00866
2719.42719,0.00890
2717.36702,0.00899
2715.30685,0.00888
2713.24668,0.00865
2711.18651,0.00839
2709.12633,0.00831
2707.06616,0.00853
2705.00599,0.00866
2702.94582,0.00846
2700.88565,0.00821
2698.82547,0.00816
2696.76530,0.00828
2694.70513,0.00835
2692.64496,0.00830
2690.58478,0.00820
2688.52461,0.00804
2686.46444,0.00788
2684.40427,0.00785
2682.34410,0.00791
2680.28392,0.00793
2678.22375,0.00782
2676.16358,0.00766
2674.10341,0.00756
2672.04324,0.00756
2669.98306,0.00771
2667.92289,0.00791
2665.86272,0.00789
2663.80255,0.00771
2661.74238,0.00750
2659.68220,0.00731
2657.62203,0.00732
2655.56186,0.00749
2653.50169,0.00758
2651.44151,0.00756
2649.38134,0.00746
2647.32117,0.00729
2645.26100,0.00720
2643.20083,0.00723
2641.14065,0.00727
2639.08048,0.00731
2637.02031,0.00734
2634.96014,0.00729
2632.89997,0.00712
2630.83979,0.00696
2628.77962,0.00693
2626.71945,0.00696
2624.65928,0.00687
2622.59910,0.00672
2620.53893,0.00657
2618.47876,0.00648
2616.41859,0.00656
2614.35842,0.00692
2612.29824,0.00729
2610.23807,0.00726
2608.17790,0.00692
2606.11773,0.00659
2604.05756,0.00646
2601.99738,0.00639
2599.93721,0.00617
2597.87704,0.00604
2595.81687,0.00603
2593.75670,0.00580
2591.69652,0.00555
2589.63635,0.00559
2587.57618,0.00577
2585.51601,0.00583
2583.45583,0.00598
2581.39566,0.00631
2579.33549,0.00635
2577.27532,0.00602
2575.21515,0.00562
2573.15497,0.00544
2571.09480,0.00571
2569.03463,0.00612
2566.97446,0.00635
2564.91429,0.00644
2562.85411,0.00639
2560.79394,0.00618
2558.73377,0.00590
2556.67360,0.00565
2554.61342,0.00553
2552.55325,0.00557
2550.49308,0.00555
2548.43291,0.00559
2546.37274,0.00581
2544.31256,0.00583
2542.25239,0.00562
2540.19222,0.00547
2538.13205,0.00548
2536.07188,0.00556
2534.01170,0.00571
2531.95153,0.00602
2529.89136,0.00635
2527.83119,0.00626
2525.77102,0.00588
2523.71084,0.00582
2521.65067,0.00597
2519.59050,0.00599
2517.53033,0.00602
2515.47015,0.00616
2513.40998,0.00626
2511.34981,0.00597
2509.28964,0.00548
2507.22947,0.00544
2505.16929,0.00573
2503.10912,0.00587
2501.04895,0.00585
2498.98878,0.00569
2496.92861,0.00563
2494.86843,0.00591
2492.80826,0.00603
2490.74809,0.00593
2488.68792,0.00604
2486.62775,0.00619
2484.56757,0.00614
2482.50740,0.00611
2480.44723,0.00595
2478.38706,0.00577
2476.32688,0.00600
2474.26671,0.00631
2472.20654,0.00633
2470.14637,0.00628
2468.08620,0.00622
2466.02602,0.00601
2463.96585,0.00601
2461.90568,0.00626
2459.84551,0.00636
2457.78534,0.00635
2455.72516,0.00615
2453.66499,0.00586
2451.60482,0.00595
2449.54465,0.00619
2447.48447,0.00622
2445.42430,0.00622
2443.36413,0.00620
2441.30396,0.00622
2439.24379,0.00647
2437.18361,0.00672
2435.12344,0.00661
2433.06327,0.00635
2431.00310,0.00614
2428.94293,0.00596
2426.88275,0.00599
2424.82258,0.00632
2422.76241,0.00676
2420.70224,0.00695
2418.64207,0.00682
2416.58189,0.00666
2414.52172,0.00657
2412.46155,0.00656
2410.40138,0.00646
2408.34120,0.00626
2406.28103,0.00620
2404.22086,0.00633
2402.16069,0.00632
2400.10052,0.00603
2398.04034,0.00549
2395.98017,0.00570
2393.92000,0.00607
2391.85983,0.00615
2389.79966,0.00623
2387.73948,0.00650
2385.67931,0.00666
2383.61914,0.00652
2381.55897,0.00629
2379.49880,0.00609
2377.43862,0.00575
2375.37845,0.00548
2373.31828,0.00535
2371.25811,0.00512
2369.19793,0.00483
2367.13776,0.00508
2365.07759,0.00614
2363.01742,0.00741
2360.95725,0.00756
2358.89707,0.00746
2356.83690,0.00743
2354.77673,0.00773
2352.71656,0.00822
2350.65639,0.00807
2348.59621,0.00804
2346.53604,0.00920
2344.47587,0.00904
2342.41570,0.00824
2340.35552,0.00758
2338.29535,0.00707
2336.23518,0.00705
2334.17501,0.00767
2332.11484,0.00858
2330.05466,0.00920
2327.99449,0.00951
2325.93432,0.00920
2323.87415,0.00865
2321.81398,0.00808
2319.75380,0.00807
2317.69363,0.00795
2315.63346,0.00789
2313.57329,0.00792
2311.51312,0.00783
2309.45294,0.00766
2307.39277,0.00757
2305.33260,0.00765
2303.27243,0.00770
2301.21225,0.00768
2299.15208,0.00771
2297.09191,0.00793
2295.03174,0.00817
2292.97157,0.00808
2290.91139,0.00776
2288.85122,0.00754
2286.79105,0.00741
2284.73088,0.00688
2282.67071,0.00593
2280.61053,0.00528
2278.55036,0.00542
2276.49019,0.00605
2274.43002,0.00664
2272.36984,0.00674
2270.30967,0.00613
2268.24950,0.00518
2266.18933,0.00460
2264.12916,0.00501
2262.06898,0.00601
2260.00881,0.00656
2257.94864,0.00658
2255.88847,0.00659
2253.82830,0.00652
2251.76812,0.00618
2249.70795,0.00564
2247.64778,0.00554
2245.58761,0.00572
2243.52744,0.00580
2241.46726,0.00600
2239.40709,0.00622
2237.34692,0.00629
2235.28675,0.00656
2233.22657,0.00691
2231.16640,0.00679
2229.10623,0.00620
2227.04606,0.00598
2224.98589,0.00626
2222.92571,0.00608
2220.86554,0.00527
2218.80537,0.00474
2216.74520,0.00477
2214.68503,0.00504
2212.62485,0.00515
2210.56468,0.00449
2208.50451,0.00367
2206.44434,0.00426
2204.38417,0.00586
2202.32399,0.00653
2200.26382,0.00615
2198.20365,0.00597
2196.14348,0.00576
2194.08330,0.00454
2192.02313,0.00319
2189.96296,0.00252
2187.90279,0.00234
2185.84262,0.00309
2183.78244,0.00402
2181.72227,0.00444
2179.66210,0.00504
2177.60193,0.00554
2175.54176,0.00568
2173.48158,0.00568
2171.42141,0.00557
2169.36124,0.00494
2167.30107,0.00359
2165.24089,0.00332
2163.18072,0.00424
2161.12055,0.00309
2159.06038,0.00064
2157.00021,0.00000
2154.94003,0.00055
2152.87986,0.00147
2150.81969,0.00217
2148.75952,0.00230
2146.69935,0.00250
2144.63917,0.00304
2142.57900,0.00338
2140.51883,0.00325
2138.45866,0.00310
2136.39849,0.00317
2134.33831,0.00358
2132.27814,0.00404
2130.21797,0.00422
2128.15780,0.00410
2126.09762,0.00382
2124.03745,0.00378
2121.97728,0.00384
2119.91711,0.00389
2117.85694,0.00432
2115.79676,0.00477
2113.73659,0.00483
2111.67642,0.00500
2109.61625,0.00526
2107.55608,0.00515
2105.49590,0.00472
2103.43573,0.00444
2101.37556,0.00447
2099.31539,0.00450
2097.25521,0.00444
2095.19504,0.00433
2093.13487,0.00439
2091.07470,0.00443
2089.01453,0.00431
2086.95435,0.00420
2084.89418,0.00422
2082.83401,0.00417
2080.77384,0.00386
2078.71367,0.00353
2076.65349,0.00328
2074.59332,0.00327
2072.53315,0.00371
2070.47298,0.00416
2068.41281,0.00425
2066.35263,0.00381
2064.29246,0.00307
2062.23229,0.00279
2060.17212,0.00291
2058.11194,0.00332
2056.05177,0.00399
2053.99160,0.00433
2051.93143,0.00422
2049.87126,0.00372
2047.81108,0.00307
2045.75091,0.00293
2043.69074,0.00324
2041.63057,0.00340
2039.57040,0.00372
2037.51022,0.00361
2035.45005,0.00209
2033.38988,0.00091
2031.32971,0.00131
2029.26954,0.00195
2027.20936,0.00180
2025.14919,0.00153
2023.08902,0.00179
2021.02885,0.00208
2018.96867,0.00200
2016.90850,0.00172
2014.84833,0.00163
2012.78816,0.00223
2010.72799,0.00285
2008.66781,0.00244
2006.60764,0.00173
2004.54747,0.00160
2002.48730,0.00200
2000.42713,0.00266
1998.36695,0.00285
1996.30678,0.00255
1994.24661,0.00310
1992.18644,0.00438
1990.12626,0.00453
1988.06609,0.00352
1986.00592,0.00261
1983.94575,0.00220
1981.88558,0.00177
1979.82540,0.00072
1977.76523,0.00016
1975.70506,0.00088
1973.64489,0.00126
1971.58472,0.00056
1969.52454,0.00016
1967.46437,0.00069
1965.40420,0.00132
1963.34403,0.00147
1961.28386,0.00120
1959.22368,0.00101
1957.16351,0.00113
1955.10334,0.00105
1953.04317,0.00050
1950.98299,0.00007
1948.92282,0.00060
1946.86265,0.00163
1944.80248,0.00186
1942.74231,0.00112
1940.68213,0.00049
1938.62196,0.00058
1936.56179,0.00097
1934.50162,0.00113
1932.44145,0.00091
1930.38127,0.00074
1928.32110,0.00085
1926.26093,0.00112
1924.20076,0.00156
1922.14059,0.00196
1920.08041,0.00180
1918.02024,0.00118
1915.96007,0.00091
1913.89990,0.00107
1911.83972,0.00120
1909.77955,0.00132
1907.71938,0.00168
1905.65921,0.00196
1903.59904,0.00213
1901.53886,0.00250
1899.47869,0.00270
1897.41852,0.00229
1895.35835,0.00158
1893.29818,0.00123
1891.23800,0.00138
1889.17783,0.00155
1887.11766,0.00145
1885.05749,0.00137
1882.99731,0.00141
1880.93714,0.00148
1878.87697,0.00159
1876.81680,0.00170
1874.75663,0.00177
1872.69645,0.00190
1870.63628,0.00199
1868.57611,0.00166
1866.51594,0.00107
1864.45577,0.00077
1862.39559,0.00077
1860.33542,0.00095
1858.27525,0.00129
1856.21508,0.00161
1854.15491,0.00172
1852.09473,0.00168
1850.03456,0.00157
1847.97439,0.00146
1845.91422,0.00138
1843.85404,0.00133
1841.79387,0.00135
1839.73370,0.00136
1837.67353,0.00128
1835.61336,0.00125
1833.55318,0.00137
1831.49301,0.00145
1829.43284,0.00151
1827.37267,0.00163
1825.31250,0.00165
1823.25232,0.00153
1821.19215,0.00138
1819.13198,0.00137
1817.07181,0.00148
1815.01163,0.00142
1812.95146,0.00107
1810.89129,0.00074
1808.83112,0.00079
1806.77095,0.00115
1804.71077,0.00144
1802.65060,0.00156
1800.59043,0.00160
1798.53026,0.00161
1796.47009,0.00166
1794.40991,0.00171
1792.34974,0.00169
1790.28957,0.00166
1788.22940,0.00184
1786.16923,0.00219
1784.10905,0.00244
1782.04888,0.00241
1779.98871,0.00213
1777.92854,0.00172
1775.86836,0.00147
1773.80819,0.00157
1771.74802,0.00192
1769.68785,0.00221
1767.62768,0.00235
1765.56750,0.00253
1763.50733,0.00274
1761.44716,0.00282
1759.38699,0.00290
1757.32682,0.00308
1755.26664,0.00313
1753.20647,0.00302
1751.14630,0.00310
1749.08613,0.00340
1747.02596,0.00359
1744.96578,0.00361
1742.90561,0.00360
1740.84544,0.00361
1738.78527,0.00359
1736.72509,0.00352
1734.66492,0.00348
1732.60475,0.00367
1730.54458,0.00405
1728.48441,0.00433
1726.42423,0.00440
1724.36406,0.00443
1722.30389,0.00444
1720.24372,0.00430
1718.18355,0.00420
1716.12337,0.00449
1714.06320,0.00489
1712.00303,0.00515
1709.94286,0.00532
1707.88268,0.00552
1705.82251,0.00568
1703.76234,0.00577
1701.70217,0.00595
1699.64200,0.00636
1697.58182,0.00682
1695.52165,0.00732
1693.46148,0.00795
1691.40131,0.00855
1689.34114,0.00895
1687.28096,0.00915
1685.22079,0.00936
1683.16062,0.01000
1681.10045,0.01095
1679.04028,0.01175
1676.98010,0.01223
1674.91993,0.01259
1672.85976,0.01308
1670.79959,0.01374
1668.73941,0.01446
1666.67924,0.01497
1664.61907,0.01522
1662.55890,0.01557
1660.49873,0.01626
1658.43855,0.01694
1656.37838,0.01722
1654.31821,0.01709
1652.25804,0.01695
1650.19787,0.01699
1648.13769,0.01689
1646.07752,0.01673
1644.01735,0.01683
1641.95718,0.01694
1639.89701,0.01680
1637.83683,0.01645
1635.77666,0.01596
1633.71649,0.01555
1631.65632,0.01534
1629.59614,0.01511
1627.53597,0.01481
1625.47580,0.01451
1623.41563,0.01407
1621.35546,0.01361
1619.29528,0.01330
1617.23511,0.01302
1615.17494,0.01273
1613.11477,0.01248
1611.05460,0.01217
1608.99442,0.01181
1606.93425,0.01152
1604.87408,0.01132
1602.81391,0.01112
1600.75373,0.01094
1598.69356,0.01077
1596.63339,0.01054
1594.57322,0.01024
1592.51305,0.00990
1590.45287,0.00952
1588.39270,0.00915
1586.33253,0.00891
1584.27236,0.00875
1582.21219,0.00860
1580.15201,0.00843
1578.09184,0.00821
1576.03167,0.00802
1573.97150,0.00799
1571.91133,0.00788
1569.85115,0.00765
1567.79098,0.00756
1565.73081,0.00759
1563.67064,0.00759
1561.61046,0.00745
1559.55029,0.00710
1557.49012,0.00692
1555.42995,0.00722
1553.36978,0.00753
1551.30960,0.00749
1549.24943,0.00717
1547.18926,0.00674
1545.12909,0.00625
1543.06892,0.00584
1541.00874,0.00564
1538.94857,0.00567
1536.88840,0.00578
1534.82823,0.00568
1532.76805,0.00542
1530.70788,0.00527
1528.64771,0.00524
1526.58754,0.00528
1524.52737,0.00542
1522.46719,0.00540
1520.40702,0.00507
1518.34685,0.00475
1516.28668,0.00468
1514.22651,0.00469
1512.16633,0.00459
1510.10616,0.00441
1508.04599,0.00414
1505.98582,0.00373
1503.92565,0.00358
1501.86547,0.00361
1499.80530,0.00358
1497.74513,0.00348
1495.68496,0.00334
1493.62478,0.00322
1491.56461,0.00318
1489.50444,0.00318
1487.44427,0.00312
1485.38410,0.00302
1483.32392,0.00287
1481.26375,0.00273
1479.20358,0.00268
1477.14341,0.00263
1475.08324,0.00251
1473.02306,0.00261
1470.96289,0.00306
1468.90272,0.00346
1466.84255,0.00363
1464.78238,0.00369
1462.72220,0.00368
1460.66203,0.00355
1458.60186,0.00338
1456.54169,0.00343
1454.48151,0.00366
1452.42134,0.00376
1450.36117,0.00367
1448.30100,0.00357
1446.24083,0.00358
1444.18065,0.00362
1442.12048,0.00366
1440.06031,0.00369
1438.00014,0.00369
1435.93997,0.00370
1433.87979,0.00375
1431.81962,0.00379
1429.75945,0.00379
1427.69928,0.00380
1425.63910,0.00386
1423.57893,0.00399
1421.51876,0.00420
1419.45859,0.00443
1417.39842,0.00459
1415.33824,0.00464
1413.27807,0.00461
1411.21790,0.00454
1409.15773,0.00449
1407.09756,0.00454
1405.03738,0.00465
1402.97721,0.00461
1400.91704,0.00437
1398.85687,0.00403
1396.79670,0.00372
1394.73652,0.00356
1392.67635,0.00354
1390.61618,0.00357
1388.55601,0.00357
1386.49583,0.00351
1384.43566,0.00343
1382.37549,0.00339
1380.31532,0.00341
1378.25515,0.00338
1376.19497,0.00324
1374.13480,0.00314
1372.07463,0.00312
1370.01446,0.00303
1367.95429,0.00295
1365.89411,0.00300
1363.83394,0.00299
1361.77377,0.00282
1359.71360,0.00261
1357.65343,0.00250
1355.59325,0.00246
1353.53308,0.00243
1351.47291,0.00233
1349.41274,0.00220
1347.35256,0.00209
1345.29239,0.00197
1343.23222,0.00184
1341.17205,0.00179
1339.11188,0.00186
1337.05170,0.00201
1334.99153,0.00217
1332.93136,0.00227
1330.87119,0.00226
1328.81102,0.00221
1326.75084,0.00221
1324.69067,0.00227
1322.63050,0.00228
1320.57033,0.00222
1318.51015,0.00215
1316.44998,0.00211
1314.38981,0.00207
1312.32964,0.00202
1310.26947,0.00205
1308.20929,0.00212
1306.14912,0.00214
1304.08895,0.00211
1302.02878,0.00213
1299.96861,0.00223
1297.90843,0.00229
1295.84826,0.00232
1293.78809,0.00242
1291.72792,0.00254
1289.66775,0.00260
1287.60757,0.00260
1285.54740,0.00262
1283.48723,0.00265
1281.42706,0.00267
1279.36688,0.00263
1277.30671,0.00243
1275.24654,0.00225
1273.18637,0.00231
1271.12620,0.00247
1269.06602,0.00255
1267.00585,0.00248
1264.94568,0.00236
1262.88551,0.00243
1260.82534,0.00268
1258.76516,0.00290
1256.70499,0.00294
1254.64482,0.00286
1252.58465,0.00282
1250.52447,0.00272
1248.46430,0.00259
1246.40413,0.00269
1244.34396,0.00291
1242.28379,0.00292
1240.22361,0.00267
1238.16344,0.00237
1236.10327,0.00214
1234.04310,0.00203
1231.98293,0.00200
1229.92275,0.00192
1227.86258,0.00181
1225.80241,0.00172
1223.74224,0.00156
1221.68207,0.00131
1219.62189,0.00110
1217.56172,0.00106
1215.50155,0.00104
1213.44138,0.00082
1211.38120,0.00046
1209.32103,0.00020
1207.26086,0.00005
1205.20069,0.00000
1203.14052,0.00011
1201.08034,0.00018
1199.02017,0.00007
1196.96000,-0.00001
1194.89983,0.00002
1192.83966,-0.00002
1190.77948,-0.00003
1188.71931,0.00004
1186.65914,0.00004
1184.59897,0.00007
1182.53880,0.00022
1180.47862,0.00031
1178.41845,0.00030
1176.35828,0.00035
1174.29811,0.00053
1172.23793,0.00086
1170.17776,0.00126
1168.11759,0.00169
1166.05742,0.00200
1163.99725,0.00215
1161.93707,0.00238
1159.87690,0.00274
1157.81673,0.00301
1155.75656,0.00323
1153.69639,0.00360
1151.63621,0.00409
1149.57604,0.00448
1147.51587,0.00485
1145.45570,0.00534
1143.39552,0.00587
1141.33535,0.00640
1139.27518,0.00694
1137.21501,0.00740
1135.15484,0.00781
1133.09466,0.00838
1131.03449,0.00918
1128.97432,0.00999
1126.91415,0.01074
1124.85398,0.01159
1122.79380,0.01263
1120.73363,0.01380
1118.67346,0.01498
1116.61329,0.01604
1114.55312,0.01680
1112.49294,0.01745
1110.43277,0.01821
1108.37260,0.01905
1106.31243,0.01996
1104.25225,0.02087
1102.19208,0.02176
1100.13191,0.02260
1098.07174,0.02326
1096.01157,0.02384
1093.95139,0.02451
1091.89122,0.02517
1089.83105,0.02567
1087.77088,0.02597
1085.71071,0.02620
1083.65053,0.02664
1081.59036,0.02723
1079.53019,0.02762
1077.47002,0.02782
1075.40985,0.02795
1073.34967,0.02798
1071.28950,0.02797
1069.22933,0.02783
1067.16916,0.02750
1065.10898,0.02716
1063.04881,0.02684
1060.98864,0.02647
1058.92847,0.02598
1056.86830,0.02536
1054.80812,0.02468
1052.74795,0.02400
1050.68778,0.02329
1048.62761,0.02248
1046.56744,0.02163
1044.50726,0.02078
1042.44709,0.01985
1040.38692,0.01886
1038.32675,0.01795
1036.26657,0.01705
1034.20640,0.01605
1032.14623,0.01518
1030.08606,0.01452
1028.02589,0.01385
1025.96571,0.01318
1023.90554,0.01255
1021.84537,0.01188
1019.78520,0.01140
1017.72503,0.01121
1015.66485,0.01097
1013.60468,0.01065
1011.54451,0.01053
1009.48434,0.01060
1007.42417,0.01074
1005.36399,0.01094
1003.30382,0.01125
1001.24365,0.01183
999.18348,0.01257
997.12330,0.01319
995.06313,0.01359
993.00296,0.01392
990.94279,0.01438
988.88262,0.01499
986.82244,0.01548
984.76227,0.01556
982.70210,0.01533
980.64193,0.01502
978.58176,0.01457
976.52158,0.01417
974.46141,0.01381
972.40124,0.01311
970.34107,0.01205
968.28089,0.01102
966.22072,0.01030
964.16055,0.00967
962.10038,0.00883
960.04021,0.00796
957.98003,0.00719
955.91986,0.00644
953.85969,0.00574
951.79952,0.00512
949.73935,0.00454
947.67917,0.00405
945.61900,0.00364
943.55883,0.00310
941.49866,0.00261
939.43849,0.00232
937.37831,0.00203
935.31814,0.00173
933.25797,0.00155
931.19780,0.00137
929.13762,0.00110
927.07745,0.00094
925.01728,0.00090
922.95711,0.00079
920.89694,0.00065
918.83676,0.00054
916.77659,0.00045
914.71642,0.00057
912.65625,0.00077
910.59608,0.00054
908.53590,0.00007
906.47573,0.00000
904.41556,0.00019
902.35539,0.00034
900.29522,0.00066
898.23504,0.00110
896.17487,0.00115
894.11470,0.00093
892.05453,0.00100
889.99435,0.00129
887.93418,0.00148
885.87401,0.00164
883.81384,0.00182
881.75367,0.00191
879.69349,0.00208
877.63332,0.00252
875.57315,0.00316
873.51298,0.00379
871.45281,0.00403
869.39263,0.00387
867.33246,0.00378
865.27229,0.00405
863.21212,0.00465
861.15194,0.00492
859.09177,0.00452
857.03160,0.00420
854.97143,0.00426
852.91126,0.00419
850.85108,0.00405
848.79091,0.00400
846.73074,0.00388
844.67057,0.00368
842.61040,0.00369
840.55022,0.00409
838.49005,0.00423
836.42988,0.00364
834.36971,0.00304
832.30954,0.00282
830.24936,0.00260
828.18919,0.00235
826.12902,0.00222
824.06885,0.00209
822.00867,0.00200
819.94850,0.00204
817.88833,0.00162
815.82816,0.00084
813.76799,0.00050
811.70781,0.00057
809.64764,0.00082
807.58747,0.00116
805.52730,0.00135
803.46713,0.00138
801.40695,0.00137
799.34678,0.00149
797.28661,0.00126
795.22644,0.00065
793.16627,0.00035
791.10609,0.00043
789.04592,0.00051
786.98575,0.00046
784.92558,0.00052
782.86540,0.00090
780.80523,0.00123
778.74506,0.00095
776.68489,0.00051
774.62472,0.00040
772.56454,0.00059
770.50437,0.00102
768.44420,0.00137
766.38403,0.00137
764.32386,0.00103
762.26368,0.00030
760.20351,-0.00021
758.14334,0.00011
756.08317,0.00068
754.02299,0.00116
751.96282,0.00146
749.90265,0.00126
747.84248,0.00100
745.78231,0.00101
743.72213,0.00106
741.66196,0.00092
739.60179,0.00049
737.54162,0.00032
735.48145,0.00067
733.42127,0.00091
731.36110,0.00057
729.30093,0.00011
727.24076,0.00017
725.18059,0.00046
723.12041,0.00083
721.06024,0.00084
719.00007,0.00068
716.93990,0.00068
714.87972,0.00077
712.81955,0.00085
710.75938,0.00090
708.69921,0.00080
706.63904,0.00063
704.57886,0.00070
702.51869,0.00090
700.45852,0.00106
698.39835,0.00155
696.33818,0.00237
694.27800,0.00284
692.21783,0.00268
690.15766,0.00206
688.09749,0.00140
686.03731,0.00091
683.97714,0.00069
681.91697,0.00134
679.85680,0.00229
677.79663,0.00249
675.73645,0.00246
673.67628,0.00216
671.61611,0.00071
669.55594,0.00043
667.49577,0.00160
665.43559,0.00000
663.37542,0.00191
661.31525,0.00308
659.25508,0.00288
657.19491,0.00293
655.13473,0.00333
653.07456,0.00325
651.01439,0.00262
648.95422,0.00226
646.89404,0.00254
644.83387,0.00304
642.77370,0.00362
640.71353,0.00464
638.65336,0.00520
636.59318,0.00426
634.53301,0.00265
632.47284,0.00193
630.41267,0.00237
628.35250,0.00302
626.29232,0.00284
624.23215,0.00152
622.17198,0.00000
620.11181,-0.00028
618.05164,0.00152
615.99146,0.00325
613.93129,0.00188
611.87112,-0.00098
609.81095,-0.00130
607.75077,0.00071
605.69060,0.00117
603.63043,0.00007
601.57026,0.00004
599.51009,0.00000
