3996.73391,0.00042
3994.67374,0.00019
3992.61357,0.00000
3990.55339,0.00002
3988.49322,0.00024
3986.43305,0.00038
3984.37288,0.00032
3982.31271,0.00028
3980.25253,0.00025
3978.19236,0.00016
3976.13219,0.00016
3974.07202,0.00038
3972.01184,0.00061
3969.95167,0.00063
3967.89150,0.00059
3965.83133,0.00062
3963.77116,0.00053
3961.71098,0.00044
3959.65081,0.00056
3957.59064,0.00070
3955.53047,0.00080
3953.47030,0.00095
3951.41012,0.00091
3949.34995,0.00062
3947.28978,0.00048
3945.22961,0.00053
3943.16943,0.00058
3941.10926,0.00072
3939.04909,0.00093
3936.98892,0.00107
3934.92875,0.00108
3932.86857,0.00095
3930.80840,0.00087
3928.74823,0.00093
3926.68806,0.00108
3924.62789,0.00133
3922.56771,0.00149
3920.50754,0.00135
3918.44737,0.00121
3916.38720,0.00150
3914.32703,0.00199
3912.26685,0.00224
3910.20668,0.00228
3908.14651,0.00217
3906.08634,0.00179
3904.02616,0.00107
3901.96599,0.00044
3899.90582,0.00048
3897.84565,0.00088
3895.78548,0.00105
3893.72530,0.00096
3891.66513,0.00100
3889.60496,0.00128
3887.54479,0.00146
3885.48462,0.00147
3883.42444,0.00148
3881.36427,0.00166
3879.30410,0.00194
3877.24393,0.00199
3875.18376,0.00180
3873.12358,0.00156
3871.06341,0.00130
3869.00324,0.00125
3866.94307,0.00158
3864.88289,0.00186
3862.82272,0.00166
3860.76255,0.00131
3858.70238,0.00130
3856.64221,0.00182
3854.58203,0.00275
3852.52186,0.00309
3850.46169,0.00246
3848.40152,0.00181
3846.34135,0.00160
3844.28117,0.00163
3842.22100,0.00182
3840.16083,0.00211
3838.10066,0.00217
3836.04048,0.00202
3833.98031,0.00190
3831.92014,0.00184
3829.85997,0.00197
3827.79980,0.00230
3825.73962,0.00247
3823.67945,0.00238
3821.61928,0.00216
3819.55911,0.00188
3817.49894,0.00180
3815.43876,0.00192
3813.37859,0.00181
3811.31842,0.00155
3809.25825,0.00170
3807.19808,0.00226
3805.13790,0.00281
3803.07773,0.00322
3801.01756,0.00330
3798.95739,0.00301
3796.89721,0.00281
3794.83704,0.00278
3792.77687,0.00272
3790.71670,0.00258
3788.65653,0.00244
3786.59635,0.00256
3784.53618,0.00300
3782.47601,0.00325
3780.41584,0.00312
3778.35567,0.00294
3776.29549,0.00290
3774.23532,0.00298
3772.17515,0.00315
3770.11498,0.00313
3768.05481,0.00262
3765.99463,0.00205
3763.93446,0.00192
3761.87429,0.00209
3759.81412,0.00215
3757.75394,0.00197
3755.69377,0.00181
3753.63360,0.00174
3751.57343,0.00165
3749.51326,0.00150
3747.45308,0.00114
3745.39291,0.00048
3743.33274,0.00045
3741.27257,0.00105
3739.21240,0.00131
3737.15222,0.00125
3735.09205,0.00144
3733.03188,0.00194
3730.97171,0.00203
3728.91153,0.00171
3726.85136,0.00147
3724.79119,0.00146
3722.73102,0.00164
3720.67085,0.00191
3718.61067,0.00187
3716.55050,0.00154
3714.49033,0.00137
3712.43016,0.00153
3710.36999,0.00190
3708.30981,0.00235
3706.24964,0.00252
3704.18947,0.00225
3702.12930,0.00194
3700.06913,0.00188
3698.00895,0.00191
3695.94878,0.00204
3693.88861,0.00254
3691.82844,0.00317
3689.76826,0.00321
3687.70809,0.00277
3685.64792,0.00253
3683.58775,0.00243
3681.52758,0.00231
3679.46740,0.00225
3677.40723,0.00232
3675.34706,0.00246
3673.28689,0.00265
3671.22672,0.00281
3669.16654,0.00279
3667.10637,0.00278
3665.04620,0.00288
3662.98603,0.00298
3660.92586,0.00302
3658.86568,0.00284
3656.80551,0.00243
3654.74534,0.00215
3652.68517,0.00225
3650.62499,0.00262
3648.56482,0.00306
3646.50465,0.00351
3644.44448,0.00369
3642.38431,0.00378
3640.32413,0.00406
3638.26396,0.00441
3636.20379,0.00467
3634.14362,0.00481
3632.08345,0.00501
3630.02327,0.00560
3627.96310,0.00622
3625.90293,0.00616
3623.84276,0.00590
3621.78258,0.00600
3619.72241,0.00637
3617.66224,0.00663
3615.60207,0.00667
3613.54190,0.00664
3611.48172,0.00658
3609.42155,0.00676
3607.36138,0.00729
3605.30121,0.00794
3603.24104,0.00863
3601.18086,0.00930
3599.12069,0.00947
3597.06052,0.00891
3595.00035,0.00829
3592.94018,0.00835
3590.88000,0.00885
3588.81983,0.00915
3586.75966,0.00946
3584.69949,0.01002
3582.63931,0.01045
3580.57914,0.01059
3578.51897,0.01062
3576.45880,0.01080
3574.39863,0.01111
3572.33845,0.01136
3570.27828,0.01155
3568.21811,0.01167
3566.15794,0.01171
3564.09777,0.01190
3562.03759,0.01220
3559.97742,0.01266
3557.91725,0.01342
3555.85708,0.01419
3553.79690,0.01465
3551.73673,0.01476
3549.67656,0.01450
3547.61639,0.01411
3545.55622,0.01417
3543.49604,0.01481
3541.43587,0.01542
3539.37570,0.01563
3537.31553,0.01571
3535.25536,0.01589
3533.19518,0.01605
3531.13501,0.01617
3529.07484,0.01641
3527.01467,0.01674
3524.95450,0.01701
3522.89432,0.01719
3520.83415,0.01738
3518.77398,0.01783
3516.71381,0.01849
3514.65363,0.01898
3512.59346,0.01905
3510.53329,0.01896
3508.47312,0.01908
3506.41295,0.01933
3504.35277,0.01944
3502.29260,0.01951
3500.23243,0.01980
3498.17226,0.02031
3496.11209,0.02083
3494.05191,0.02110
3491.99174,0.02107
3489.93157,0.02093
3487.87140,0.02095
3485.81123,0.02130
3483.75105,0.02173
3481.69088,0.02200
3479.63071,0.02222
3477.57054,0.02259
3475.51036,0.02302
3473.45019,0.02337
3471.39002,0.02359
3469.32985,0.02364
3467.26968,0.02364
3465.20950,0.02370
3463.14933,0.02380
3461.08916,0.02394
3459.02899,0.02419
3456.96882,0.02454
3454.90864,0.02471
3452.84847,0.02469
3450.78830,0.02484
3448.72813,0.02500
3446.66795,0.02497
3444.60778,0.02502
3442.54761,0.02524
3440.48744,0.02553
3438.42727,0.02602
3436.36709,0.02648
3434.30692,0.02675
3432.24675,0.02691
3430.18658,0.02700
3428.12641,0.02711
3426.06623,0.02717
3424.00606,0.02719
3421.94589,0.02730
3419.88572,0.02732
3417.82555,0.02734
3415.76537,0.02753
3413.70520,0.02759
3411.64503,0.02745
3409.58486,0.02749
3407.52468,0.02787
3405.46451,0.02833
3403.40434,0.02852
3401.34417,0.02868
3399.28400,0.02878
3397.22382,0.02892
3395.16365,0.02886
3393.10348,0.02894
3391.04331,0.02919
3388.98314,0.02936
3386.92296,0.02938
3384.86279,0.02930
3382.80262,0.02925
3380.74245,0.02939
3378.68228,0.02974
3376.62210,0.03008
3374.56193,0.03022
3372.50176,0.03024
3370.44159,0.03030
3368.38141,0.03034
3366.32124,0.03024
3364.26107,0.03013
3362.20090,0.03018
3360.14073,0.03035
3358.08055,0.03055
3356.02038,0.03079
3353.96021,0.03098
3351.90004,0.03097
3349.83987,0.03088
3347.77969,0.03091
3345.71952,0.03098
3343.65935,0.03095
3341.59918,0.03102
3339.53900,0.03115
3337.47883,0.03107
3335.41866,0.03091
3333.35849,0.03081
3331.29832,0.03075
3329.23814,0.03081
3327.17797,0.03099
3325.11780,0.03122
3323.05763,0.03140
3320.99746,0.03154
3318.93728,0.03179
3316.87711,0.03206
3314.81694,0.03213
3312.75677,0.03201
3310.69660,0.03188
3308.63642,0.03192
3306.57625,0.03200
3304.51608,0.03201
3302.45591,0.03203
3300.39573,0.03197
3298.33556,0.03189
3296.27539,0.03201
3294.21522,0.03219
3292.15505,0.03230
3290.09487,0.03239
3288.03470,0.03257
3285.97453,0.03275
3283.91436,0.03290
3281.85419,0.03292
3279.79401,0.03263
3277.73384,0.03231
3275.67367,0.03234
3273.61350,0.03259
3271.55333,0.03271
3269.49315,0.03263
3267.43298,0.03249
3265.37281,0.03239
3263.31264,0.03238
3261.25246,0.03246
3259.19229,0.03263
3257.13212,0.03286
3255.07195,0.03291
3253.01178,0.03259
3250.95160,0.03229
3248.89143,0.03239
3246.83126,0.03255
3244.77109,0.03238
3242.71092,0.03214
3240.65074,0.03209
3238.59057,0.03218
3236.53040,0.03237
3234.47023,0.03253
3232.41005,0.03251
3230.34988,0.03239
3228.28971,0.03239
3226.22954,0.03259
3224.16937,0.03263
3222.10919,0.03241
3220.04902,0.03224
3217.98885,0.03218
3215.92868,0.03210
3213.86851,0.03189
3211.80833,0.03170
3209.74816,0.03177
3207.68799,0.03207
3205.62782,0.03229
3203.56765,0.03209
3201.50747,0.03164
3199.44730,0.03149
3197.38713,0.03163
3195.32696,0.03171
3193.26678,0.03172
3191.20661,0.03173
3189.14644,0.03177
3187.08627,0.03178
3185.02610,0.03165
3182.96592,0.03153
3180.90575,0.03145
3178.84558,0.03131
3176.78541,0.03127
3174.72524,0.03132
3172.66506,0.03118
3170.60489,0.03095
3168.54472,0.03080
3166.48455,0.03066
3164.42437,0.03059
3162.36420,0.03074
3160.30403,0.03088
3158.24386,0.03070
3156.18369,0.03041
3154.12351,0.03030
3152.06334,0.03045
3150.00317,0.03069
3147.94300,0.03073
3145.88283,0.03055
3143.82265,0.03038
3141.76248,0.03034
3139.70231,0.03038
3137.64214,0.03026
3135.58197,0.02993
3133.52179,0.02960
3131.46162,0.02948
3129.40145,0.02953
3127.34128,0.02948
3125.28110,0.02935
3123.22093,0.02936
3121.16076,0.02943
3119.10059,0.02943
3117.04042,0.02937
3114.98024,0.02923
3112.92007,0.02907
3110.85990,0.02897
3108.79973,0.02884
3106.73956,0.02866
3104.67938,0.02849
3102.61921,0.02837
3100.55904,0.02832
3098.49887,0.02822
3096.43870,0.02809
3094.37852,0.02802
3092.31835,0.02793
3090.25818,0.02769
3088.19801,0.02736
3086.13783,0.02734
3084.07766,0.02765
3082.01749,0.02778
3079.95732,0.02749
3077.89715,0.02715
3075.83697,0.02704
3073.77680,0.02705
3071.71663,0.02705
3069.65646,0.02691
3067.59629,0.02665
3065.53611,0.02654
3063.47594,0.02662
3061.41577,0.02663
3059.35560,0.02661
3057.29542,0.02656
3055.23525,0.02650
3053.17508,0.02649
3051.11491,0.02646
3049.05474,0.02627
3046.99456,0.02591
3044.93439,0.02564
3042.87422,0.02557
3040.81405,0.02550
3038.75388,0.02539
3036.69370,0.02523
3034.63353,0.02497
3032.57336,0.02468
3030.51319,0.02460
3028.45302,0.02474
3026.39284,0.02481
3024.33267,0.02464
3022.27250,0.02439
3020.21233,0.02433
3018.15215,0.02441
3016.09198,0.02437
3014.03181,0.02419
3011.97164,0.02405
3009.91147,0.02393
3007.85129,0.02368
3005.79112,0.02351
3003.73095,0.02357
3001.67078,0.02352
2999.61061,0.02343
2997.55043,0.02346
2995.49026,0.02341
2993.43009,0.02319
2991.36992,0.02305
2989.30975,0.02315
2987.24957,0.02336
2985.18940,0.02348
2983.12923,0.02340
2981.06906,0.02324
2979.00888,0.02318
2976.94871,0.02317
2974.88854,0.02314
2972.82837,0.02318
2970.76820,0.02327
2968.70802,0.02327
2966.64785,0.02325
2964.58768,0.02337
2962.52751,0.02345
2960.46734,0.02342
2958.40716,0.02337
2956.34699,0.02324
2954.28682,0.02315
2952.22665,0.02325
2950.16647,0.02353
2948.10630,0.02382
2946.04613,0.02395
2943.98596,0.02394
2941.92579,0.02393
2939.86561,0.02388
2937.80544,0.02387
2935.74527,0.02384
2933.68510,0.02367
2931.62493,0.02357
2929.56475,0.02367
2927.50458,0.02381
2925.44441,0.02389
2923.38424,0.02386
2921.32407,0.02374
2919.26389,0.02358
2917.20372,0.02355
2915.14355,0.02357
2913.08338,0.02336
2911.02320,0.02306
2908.96303,0.02295
2906.90286,0.02301
2904.84269,0.02300
2902.78252,0.02280
2900.72234,0.02265
2898.66217,0.02263
2896.60200,0.02263
2894.54183,0.02256
2892.48166,0.02248
2890.42148,0.02226
2888.36131,0.02205
2886.30114,0.02217
2884.24097,0.02248
2882.18080,0.02255
2880.12062,0.02232
2878.06045,0.02214
2876.00028,0.02225
2873.94011,0.02249
2871.87993,0.02265
2869.81976,0.02258
2867.75959,0.02234
2865.69942,0.02206
2863.63925,0.02191
2861.57907,0.02201
2859.51890,0.02199
2857.45873,0.02162
2855.39856,0.02122
2853.33839,0.02109
2851.27821,0.02110
2849.21804,0.02104
2847.15787,0.02084
2845.09770,0.02054
2843.03752,0.02031
2840.97735,0.02024
2838.91718,0.02019
2836.85701,0.01996
2834.79684,0.01969
2832.73666,0.01968
2830.67649,0.01973
2828.61632,0.01964
2826.55615,0.01959
2824.49598,0.01958
2822.43580,0.01941
2820.37563,0.01916
2818.31546,0.01895
2816.25529,0.01878
2814.19512,0.01870
2812.13494,0.01866
2810.07477,0.01854
2808.01460,0.01827
2805.95443,0.01805
2803.89425,0.01797
2801.83408,0.01792
2799.77391,0.01775
2797.71374,0.01756
2795.65357,0.01754
2793.59339,0.01753
2791.53322,0.01739
2789.47305,0.01720
2787.41288,0.01712
2785.35271,0.01708
2783.29253,0.01690
2781.23236,0.01664
2779.17219,0.01655
2777.11202,0.01665
2775.05184,0.01660
2772.99167,0.01631
2770.93150,0.01610
2768.87133,0.01605
2766.81116,0.01593
2764.75098,0.01574
2762.69081,0.01556
2760.63064,0.01540
2758.57047,0.01535
2756.51030,0.01540
2754.45012,0.01533
2752.38995,0.01515
2750.32978,0.01492
2748.26961,0.01475
2746.20944,0.01473
2744.14926,0.01469
2742.08909,0.01459
2740.02892,0.01449
2737.96875,0.01434
2735.90857,0.01415
2733.84840,0.01405
2731.78823,0.01403
2729.72806,0.01400
2727.66789,0.01399
2725.60771,0.01398
2723.54754,0.01383
2721.48737,0.01365
2719.42720,0.01367
2717.36703,0.01372
2715.30685,0.01359
2713.24668,0.01347
2711.18651,0.01338
2709.12634,0.01317
2707.06617,0.01287
2705.00599,0.01266
2702.94582,0.01269
2700.88565,0.01280
2698.82548,0.01281
2696.76530,0.01280
2694.70513,0.01281
2692.64496,0.01271
2690.58479,0.01256
2688.52462,0.01249
2686.46444,0.01247
2684.40427,0.01247
2682.34410,0.01250
2680.28393,0.01244
2678.22376,0.01229
2676.16358,0.01216
2674.10341,0.01204
2672.04324,0.01190
2669.98307,0.01174
2667.92289,0.01170
2665.86272,0.01183
2663.80255,0.01199
2661.74238,0.01208
2659.68221,0.01211
2657.62203,0.01205
2655.56186,0.01186
2653.50169,0.01160
2651.44152,0.01148
2649.38135,0.01166
2647.32117,0.01194
2645.26100,0.01192
2643.20083,0.01160
2641.14066,0.01139
2639.08049,0.01147
2637.02031,0.01150
2634.96014,0.01126
2632.89997,0.01101
2630.83980,0.01093
2628.77962,0.01094
2626.71945,0.01107
2624.65928,0.01122
2622.59911,0.01119
2620.53894,0.01106
2618.47876,0.01090
2616.41859,0.01075
2614.35842,0.01079
2612.29825,0.01092
2610.23808,0.01090
2608.17790,0.01090
2606.11773,0.01102
2604.05756,0.01112
2601.99739,0.01096
2599.93722,0.01052
2597.87704,0.01023
2595.81687,0.01037
2593.75670,0.01064
2591.69653,0.01073
2589.63635,0.01071
2587.57618,0.01073
2585.51601,0.01077
2583.45584,0.01072
2581.39567,0.01063
2579.33549,0.01054
2577.27532,0.01039
2575.21515,0.01039
2573.15498,0.01060
2571.09481,0.01073
2569.03463,0.01075
2566.97446,0.01076
2564.91429,0.01073
2562.85412,0.01058
2560.79394,0.01036
2558.73377,0.01025
2556.67360,0.01022
2554.61343,0.01037
2552.55326,0.01077
2550.49308,0.01099
2548.43291,0.01096
2546.37274,0.01103
2544.31257,0.01111
2542.25240,0.01084
2540.19222,0.01062
2538.13205,0.01078
2536.07188,0.01084
2534.01171,0.01067
2531.95154,0.01053
2529.89136,0.01056
2527.83119,0.01093
2525.77102,0.01132
2523.71085,0.01120
2521.65067,0.01087
2519.59050,0.01082
2517.53033,0.01097
2515.47016,0.01125
2513.40999,0.01157
2511.34981,0.01171
2509.28964,0.01167
2507.22947,0.01147
2505.16930,0.01114
2503.10913,0.01083
2501.04895,0.01086
2498.98878,0.01124
2496.92861,0.01155
2494.86844,0.01159
2492.80827,0.01159
2490.74809,0.01162
2488.68792,0.01167
2486.62775,0.01188
2484.56758,0.01220
2482.50740,0.01237
2480.44723,0.01240
2478.38706,0.01246
2476.32689,0.01268
2474.26672,0.01298
2472.20654,0.01310
2470.14637,0.01303
2468.08620,0.01297
2466.02603,0.01300
2463.96586,0.01311
2461.90568,0.01325
2459.84551,0.01336
2457.78534,0.01330
2455.72517,0.01308
2453.66499,0.01298
2451.60482,0.01302
2449.54465,0.01299
2447.48448,0.01291
2445.42431,0.01293
2443.36413,0.01303
2441.30396,0.01299
2439.24379,0.01282
2437.18362,0.01279
2435.12345,0.01290
2433.06327,0.01303
2431.00310,0.01326
2428.94293,0.01348
2426.88276,0.01335
2424.82259,0.01301
2422.76241,0.01295
2420.70224,0.01310
2418.64207,0.01295
2416.58190,0.01250
2414.52172,0.01209
2412.46155,0.01219
2410.40138,0.01269
2408.34121,0.01293
2406.28104,0.01285
2404.22086,0.01272
2402.16069,0.01265
2400.10052,0.01251
2398.04035,0.01238
2395.98018,0.01259
2393.92000,0.01295
2391.85983,0.01307
2389.79966,0.01280
2387.73949,0.01234
2385.67931,0.01196
2383.61914,0.01162
2381.55897,0.01116
2379.49880,0.01071
2377.43863,0.01059
2375.37845,0.01078
2373.31828,0.01130
2371.25811,0.01194
2369.19794,0.01209
2367.13777,0.01198
2365.07759,0.01210
2363.01742,0.01211
2360.95725,0.01331
2358.89708,0.01513
2356.83691,0.01563
2354.77673,0.01416
2352.71656,0.01252
2350.65639,0.01251
2348.59622,0.01305
2346.53604,0.01250
2344.47587,0.01272
2342.41570,0.01281
2340.35553,0.01283
2338.29536,0.01330
2336.23518,0.01354
2334.17501,0.01306
2332.11484,0.01206
2330.05467,0.01162
2327.99450,0.01175
2325.93432,0.01187
2323.87415,0.01099
2321.81398,0.00991
2319.75381,0.00952
2317.69364,0.01015
2315.63346,0.01056
2313.57329,0.01020
2311.51312,0.00947
2309.45295,0.00901
2307.39277,0.00914
2305.33260,0.00950
2303.27243,0.00971
2301.21226,0.00978
2299.15209,0.00994
2297.09191,0.01012
2295.03174,0.01035
2292.97157,0.01070
2290.91140,0.01079
2288.85123,0.01043
2286.79105,0.01019
2284.73088,0.01047
2282.67071,0.01092
2280.61054,0.01099
2278.55036,0.01061
2276.49019,0.01021
2274.43002,0.01000
2272.36985,0.00974
2270.30968,0.00942
2268.24950,0.00922
2266.18933,0.00930
2264.12916,0.00974
2262.06899,0.01009
2260.00882,0.00983
2257.94864,0.00906
2255.88847,0.00828
2253.82830,0.00799
2251.76813,0.00788
2249.70796,0.00757
2247.64778,0.00751
2245.58761,0.00784
2243.52744,0.00784
2241.46727,0.00739
2239.40709,0.00730
2237.34692,0.00757
2235.28675,0.00737
2233.22658,0.00636
2231.16641,0.00547
2229.10623,0.00567
2227.04606,0.00640
2224.98589,0.00700
2222.92572,0.00762
2220.86555,0.00799
2218.80537,0.00781
2216.74520,0.00743
2214.68503,0.00709
2212.62486,0.00643
2210.56469,0.00585
2208.50451,0.00591
2206.44434,0.00607
2204.38417,0.00585
2202.32400,0.00583
2200.26382,0.00644
2198.20365,0.00670
2196.14348,0.00639
2194.08331,0.00669
2192.02314,0.00713
2189.96296,0.00657
2187.90279,0.00538
2185.84262,0.00460
2183.78245,0.00440
2181.72228,0.00362
2179.66210,0.00276
2177.60193,0.00327
2175.54176,0.00465
2173.48159,0.00549
2171.42141,0.00497
2169.36124,0.00370
2167.30107,0.00319
2165.24090,0.00408
2163.18073,0.00530
2161.12055,0.00459
2159.06038,0.00253
2157.00021,0.00184
2154.94004,0.00227
2152.87987,0.00276
2150.81969,0.00306
2148.75952,0.00290
2146.69935,0.00252
2144.63918,0.00215
2142.57901,0.00196
2140.51883,0.00189
2138.45866,0.00124
2136.39849,0.00039
2134.33832,0.00079
2132.27814,0.00200
2130.21797,0.00257
2128.15780,0.00244
2126.09763,0.00236
2124.03746,0.00267
2121.97728,0.00316
2119.91711,0.00359
2117.85694,0.00371
2115.79677,0.00328
2113.73660,0.00292
2111.67642,0.00327
2109.61625,0.00363
2107.55608,0.00369
2105.49591,0.00410
2103.43573,0.00442
2101.37556,0.00412
2099.31539,0.00389
2097.25522,0.00384
2095.19505,0.00371
2093.13487,0.00340
2091.07470,0.00306
2089.01453,0.00307
2086.95436,0.00352
2084.89419,0.00363
2082.83401,0.00312
2080.77384,0.00265
2078.71367,0.00212
2076.65350,0.00170
2074.59333,0.00217
2072.53315,0.00307
2070.47298,0.00316
2068.41281,0.00259
2066.35264,0.00252
2064.29246,0.00309
2062.23229,0.00355
2060.17212,0.00345
2058.11195,0.00297
2056.05178,0.00287
2053.99160,0.00380
2051.93143,0.00517
2049.87126,0.00524
2047.81109,0.00402
2045.75092,0.00314
2043.69074,0.00266
2041.63057,0.00222
2039.57040,0.00199
2037.51023,0.00206
2035.45006,0.00269
2033.38988,0.00331
2031.32971,0.00260
2029.26954,0.00116
2027.20937,0.00074
2025.14919,0.00174
2023.08902,0.00269
2021.02885,0.00224
2018.96868,0.00150
2016.90851,0.00156
2014.84833,0.00197
2012.78816,0.00266
2010.72799,0.00301
2008.66782,0.00215
2006.60765,0.00132
2004.54747,0.00190
2002.48730,0.00260
2000.42713,0.00265
1998.36696,0.00304
1996.30678,0.00319
1994.24661,0.00236
1992.18644,0.00141
1990.12627,0.00129
1988.06610,0.00204
1986.00592,0.00300
1983.94575,0.00367
1981.88558,0.00394
1979.82541,0.00350
1977.76524,0.00292
1975.70506,0.00360
1973.64489,0.00466
1971.58472,0.00412
1969.52455,0.00224
1967.46438,0.00066
1965.40420,0.00043
1963.34403,0.00081
1961.28386,0.00053
1959.22369,0.00020
1957.16351,0.00069
1955.10334,0.00169
1953.04317,0.00257
1950.98300,0.00270
1948.92283,0.00224
1946.86265,0.00190
1944.80248,0.00171
1942.74231,0.00164
1940.68214,0.00184
1938.62197,0.00200
1936.56179,0.00205
1934.50162,0.00241
1932.44145,0.00312
1930.38128,0.00366
1928.32111,0.00376
1926.26093,0.00345
1924.20076,0.00285
1922.14059,0.00260
1920.08042,0.00321
1918.02024,0.00398
1915.96007,0.00411
1913.89990,0.00391
1911.83973,0.00389
1909.77956,0.00404
1907.71938,0.00411
1905.65921,0.00398
1903.59904,0.00389
1901.53887,0.00410
1899.47870,0.00445
1897.41852,0.00462
1895.35835,0.00450
1893.29818,0.00429
1891.23801,0.00428
1889.17783,0.00445
1887.11766,0.00459
1885.05749,0.00459
1882.99732,0.00454
1880.93715,0.00468
1878.87697,0.00502
1876.81680,0.00517
1874.75663,0.00507
1872.69646,0.00511
1870.63629,0.00547
1868.57611,0.00594
1866.51594,0.00608
1864.45577,0.00587
1862.39560,0.00570
1860.33543,0.00571
1858.27525,0.00578
1856.21508,0.00596
1854.15491,0.00625
1852.09474,0.00644
1850.03456,0.00646
1847.97439,0.00636
1845.91422,0.00624
1843.85405,0.00619
1841.79388,0.00631
1839.73370,0.00656
1837.67353,0.00668
1835.61336,0.00646
1833.55319,0.00626
1831.49302,0.00643
1829.43284,0.00676
1827.37267,0.00694
1825.31250,0.00703
1823.25233,0.00715
1821.19216,0.00721
1819.13198,0.00709
1817.07181,0.00694
1815.01164,0.00699
1812.95147,0.00719
1810.89129,0.00736
1808.83112,0.00744
1806.77095,0.00741
1804.71078,0.00731
1802.65061,0.00718
1800.59043,0.00727
1798.53026,0.00761
1796.47009,0.00803
1794.40992,0.00846
1792.34975,0.00856
1790.28957,0.00811
1788.22940,0.00761
1786.16923,0.00746
1784.10906,0.00768
1782.04888,0.00806
1779.98871,0.00819
1777.92854,0.00812
1775.86837,0.00831
1773.80820,0.00881
1771.74802,0.00890
1769.68785,0.00831
1767.62768,0.00787
1765.56751,0.00800
1763.50734,0.00837
1761.44716,0.00858
1759.38699,0.00854
1757.32682,0.00853
1755.26665,0.00858
1753.20648,0.00847
1751.14630,0.00829
1749.08613,0.00850
1747.02596,0.00896
1744.96579,0.00927
1742.90561,0.00949
1740.84544,0.00962
1738.78527,0.00960
1736.72510,0.00957
1734.66493,0.00947
1732.60475,0.00928
1730.54458,0.00926
1728.48441,0.00937
1726.42424,0.00936
1724.36407,0.00922
1722.30389,0.00926
1720.24372,0.00957
1718.18355,0.00968
1716.12338,0.00916
1714.06320,0.00878
1712.00303,0.00894
1709.94286,0.00935
1707.88269,0.00964
1705.82252,0.00961
1703.76234,0.00951
1701.70217,0.00980
1699.64200,0.01039
1697.58183,0.01093
1695.52166,0.01127
1693.46148,0.01132
1691.40131,0.01135
1689.34114,0.01169
1687.28097,0.01244
1685.22080,0.01342
1683.16062,0.01404
1681.10045,0.01417
1679.04028,0.01444
1676.98011,0.01517
1674.91993,0.01616
1672.85976,0.01706
1670.79959,0.01771
1668.73942,0.01809
1666.67925,0.01834
1664.61907,0.01878
1662.55890,0.01920
1660.49873,0.01923
1658.43856,0.01921
1656.37839,0.01962
1654.31821,0.02029
1652.25804,0.02070
1650.19787,0.02093
1648.13770,0.02118
1646.07753,0.02111
1644.01735,0.02065
1641.95718,0.02030
1639.89701,0.02029
1637.83684,0.02057
1635.77666,0.02065
1633.71649,0.02023
1631.65632,0.01983
1629.59615,0.01980
1627.53598,0.01995
1625.47580,0.01994
1623.41563,0.01964
1621.35546,0.01941
1619.29529,0.01967
1617.23512,0.01999
1615.17494,0.01969
1613.11477,0.01915
1611.05460,0.01893
1608.99443,0.01892
1606.93425,0.01880
1604.87408,0.01860
1602.81391,0.01844
1600.75374,0.01831
1598.69357,0.01817
1596.63339,0.01800
1594.57322,0.01768
1592.51305,0.01724
1590.45288,0.01690
1588.39271,0.01665
1586.33253,0.01621
1584.27236,0.01559
1582.21219,0.01514
1580.15202,0.01515
1578.09185,0.01539
1576.03167,0.01524
1573.97150,0.01460
1571.91133,0.01419
1569.85116,0.01401
1567.79098,0.01358
1565.73081,0.01309
1563.67064,0.01294
1561.61047,0.01331
1559.55030,0.01360
1557.49012,0.01276
1555.42995,0.01167
1553.36978,0.01106
1551.30961,0.01076
1549.24944,0.01053
1547.18926,0.01032
1545.12909,0.01040
1543.06892,0.01103
1541.00875,0.01162
1538.94858,0.01106
1536.88840,0.01002
1534.82823,0.00948
1532.76806,0.00924
1530.70789,0.00892
1528.64771,0.00860
1526.58754,0.00841
1524.52737,0.00844
1522.46720,0.00838
1520.40703,0.00779
1518.34685,0.00717
1516.28668,0.00678
1514.22651,0.00645
1512.16634,0.00611
1510.10617,0.00582
1508.04599,0.00590
1505.98582,0.00638
1503.92565,0.00651
1501.86548,0.00633
1499.80530,0.00631
1497.74513,0.00635
1495.68496,0.00625
1493.62479,0.00615
1491.56462,0.00602
1489.50444,0.00570
1487.44427,0.00547
1485.38410,0.00555
1483.32393,0.00567
1481.26376,0.00564
1479.20358,0.00552
1477.14341,0.00544
1475.08324,0.00553
1473.02307,0.00583
1470.96290,0.00619
1468.90272,0.00646
1466.84255,0.00675
1464.78238,0.00701
1462.72221,0.00715
1460.66203,0.00732
1458.60186,0.00744
1456.54169,0.00721
1454.48152,0.00692
1452.42135,0.00680
1450.36117,0.00690
1448.30100,0.00717
1446.24083,0.00751
1444.18066,0.00773
1442.12049,0.00776
1440.06031,0.00769
1438.00014,0.00761
1435.93997,0.00764
1433.87980,0.00785
1431.81963,0.00817
1429.75945,0.00857
1427.69928,0.00899
1425.63911,0.00939
1423.57894,0.00970
1421.51876,0.00975
1419.45859,0.00973
1417.39842,0.01008
1415.33825,0.01081
1413.27808,0.01141
1411.21790,0.01170
1409.15773,0.01188
1407.09756,0.01205
1405.03739,0.01216
1402.97722,0.01222
1400.91704,0.01221
1398.85687,0.01207
1396.79670,0.01194
1394.73653,0.01195
1392.67635,0.01200
1390.61618,0.01199
1388.55601,0.01198
1386.49584,0.01209
1384.43567,0.01232
1382.37549,0.01242
1380.31532,0.01239
1378.25515,0.01243
1376.19498,0.01252
1374.13481,0.01248
1372.07463,0.01245
1370.01446,0.01264
1367.95429,0.01289
1365.89412,0.01295
1363.83395,0.01265
1361.77377,0.01225
1359.71360,0.01229
1357.65343,0.01263
1355.59326,0.01282
1353.53308,0.01270
1351.47291,0.01240
1349.41274,0.01211
1347.35257,0.01183
1345.29240,0.01145
1343.23222,0.01079
1341.17205,0.00984
1339.11188,0.00904
1337.05171,0.00887
1334.99154,0.00911
1332.93136,0.00921
1330.87119,0.00907
1328.81102,0.00882
1326.75085,0.00860
1324.69067,0.00841
1322.63050,0.00824
1320.57033,0.00790
1318.51016,0.00741
1316.44999,0.00712
1314.38981,0.00708
1312.32964,0.00708
1310.26947,0.00713
1308.20930,0.00723
1306.14913,0.00726
1304.08895,0.00725
1302.02878,0.00717
1299.96861,0.00690
1297.90844,0.00657
1295.84827,0.00638
1293.78809,0.00631
1291.72792,0.00625
1289.66775,0.00614
1287.60758,0.00599
1285.54740,0.00588
1283.48723,0.00578
1281.42706,0.00563
1279.36689,0.00552
1277.30672,0.00555
1275.24654,0.00561
1273.18637,0.00563
1271.12620,0.00557
1269.06603,0.00540
1267.00586,0.00529
1264.94568,0.00531
1262.88551,0.00541
1260.82534,0.00560
1258.76517,0.00572
1256.70500,0.00571
1254.64482,0.00573
1252.58465,0.00578
1250.52448,0.00574
1248.46431,0.00568
1246.40413,0.00553
1244.34396,0.00530
1242.28379,0.00516
1240.22362,0.00511
1238.16345,0.00504
1236.10327,0.00494
1234.04310,0.00483
1231.98293,0.00474
1229.92276,0.00470
1227.86259,0.00459
1225.80241,0.00431
1223.74224,0.00403
1221.68207,0.00394
1219.62190,0.00388
1217.56172,0.00375
1215.50155,0.00366
1213.44138,0.00362
1211.38121,0.00362
1209.32104,0.00368
1207.26086,0.00390
1205.20069,0.00425
1203.14052,0.00462
1201.08035,0.00496
1199.02018,0.00535
1196.96000,0.00602
1194.89983,0.00707
1192.83966,0.00836
1190.77949,0.00961
1188.71932,0.01081
1186.65914,0.01204
1184.59897,0.01341
1182.53880,0.01497
1180.47863,0.01671
1178.41845,0.01841
1176.35828,0.01993
1174.29811,0.02128
1172.23794,0.02250
1170.17777,0.02370
1168.11759,0.02501
1166.05742,0.02633
1163.99725,0.02750
1161.93708,0.02863
1159.87691,0.02971
1157.81673,0.03062
1155.75656,0.03159
1153.69639,0.03264
1151.63622,0.03357
1149.57605,0.03444
1147.51587,0.03528
1145.45570,0.03594
1143.39553,0.03638
1141.33536,0.03676
1139.27518,0.03709
1137.21501,0.03722
1135.15484,0.03728
1133.09467,0.03750
1131.03450,0.03779
1128.97432,0.03813
1126.91415,0.03860
1124.85398,0.03901
1122.79381,0.03928
1120.73364,0.03970
1118.67346,0.04041
1116.61329,0.04123
1114.55312,0.04207
1112.49295,0.04302
1110.43277,0.04410
1108.37260,0.04520
1106.31243,0.04619
1104.25226,0.04726
1102.19209,0.04851
1100.13191,0.04976
1098.07174,0.05097
1096.01157,0.05220
1093.95140,0.05347
1091.89123,0.05476
1089.83105,0.05595
1087.77088,0.05704
1085.71071,0.05811
1083.65054,0.05927
1081.59037,0.06054
1079.53019,0.06184
1077.47002,0.06301
1075.40985,0.06406
1073.34968,0.06503
1071.28950,0.06576
1069.22933,0.06607
1067.16916,0.06601
1065.10899,0.06580
1063.04882,0.06566
1060.98864,0.06543
1058.92847,0.06488
1056.86830,0.06402
1054.80813,0.06303
1052.74796,0.06206
1050.68778,0.06096
1048.62761,0.05964
1046.56744,0.05824
1044.50727,0.05681
1042.44710,0.05516
1040.38692,0.05324
1038.32675,0.05129
1036.26658,0.04958
1034.20641,0.04807
1032.14623,0.04649
1030.08606,0.04476
1028.02589,0.04314
1025.96572,0.04169
1023.90555,0.04032
1021.84537,0.03910
1019.78520,0.03812
1017.72503,0.03716
1015.66486,0.03615
1013.60469,0.03540
1011.54451,0.03504
1009.48434,0.03485
1007.42417,0.03479
1005.36400,0.03501
1003.30382,0.03546
1001.24365,0.03614
999.18348,0.03701
997.12331,0.03783
995.06314,0.03862
993.00296,0.03949
990.94279,0.04032
988.88262,0.04092
986.82245,0.04127
984.76228,0.04158
982.70210,0.04196
980.64193,0.04227
978.58176,0.04241
976.52159,0.04251
974.46142,0.04263
972.40124,0.04263
970.34107,0.04246
968.28090,0.04221
966.22073,0.04187
964.16055,0.04145
962.10038,0.04120
960.04021,0.04108
957.98004,0.04083
955.91987,0.04046
953.85969,0.04015
951.79952,0.04006
949.73935,0.04014
947.67918,0.03996
945.61901,0.03944
943.55883,0.03894
941.49866,0.03861
939.43849,0.03818
937.37832,0.03741
935.31814,0.03654
933.25797,0.03584
931.19780,0.03501
929.13763,0.03380
927.07746,0.03252
925.01728,0.03135
922.95711,0.03015
920.89694,0.02894
918.83677,0.02781
916.77660,0.02674
914.71642,0.02586
912.65625,0.02518
910.59608,0.02438
908.53591,0.02349
906.47574,0.02287
904.41556,0.02252
902.35539,0.02223
900.29522,0.02183
898.23505,0.02132
896.17487,0.02099
894.11470,0.02108
892.05453,0.02147
889.99436,0.02178
887.93419,0.02192
885.87401,0.02245
883.81384,0.02350
881.75367,0.02460
879.69350,0.02580
877.63333,0.02738
875.57315,0.02908
873.51298,0.03060
871.45281,0.03229
869.39264,0.03415
867.33247,0.03588
865.27229,0.03783
863.21212,0.04001
861.15195,0.04185
859.09178,0.04323
857.03160,0.04412
854.97143,0.04456
852.91126,0.04470
850.85109,0.04456
848.79092,0.04422
846.73074,0.04350
844.67057,0.04236
842.61040,0.04115
840.55023,0.03995
838.49006,0.03866
836.42988,0.03731
834.36971,0.03615
832.30954,0.03500
830.24937,0.03365
828.18919,0.03237
826.12902,0.03146
824.06885,0.03077
822.00868,0.03000
819.94851,0.02908
817.88833,0.02809
815.82816,0.02713
813.76799,0.02618
811.70782,0.02522
809.64765,0.02423
807.58747,0.02332
805.52730,0.02267
803.46713,0.02219
801.40696,0.02157
799.34679,0.02097
797.28661,0.02078
795.22644,0.02074
793.16627,0.02024
791.10610,0.01953
789.04592,0.01928
786.98575,0.01928
784.92558,0.01902
782.86541,0.01856
780.80524,0.01819
778.74506,0.01780
776.68489,0.01717
774.62472,0.01648
772.56455,0.01595
770.50438,0.01564
768.44420,0.01539
766.38403,0.01507
764.32386,0.01489
762.26369,0.01488
760.20352,0.01454
758.14334,0.01394
756.08317,0.01362
754.02300,0.01340
751.96283,0.01316
749.90265,0.01288
747.84248,0.01236
745.78231,0.01187
743.72214,0.01173
741.66197,0.01179
739.60179,0.01215
737.54162,0.01257
735.48145,0.01235
733.42128,0.01169
731.36111,0.01135
729.30093,0.01130
727.24076,0.01131
725.18059,0.01142
723.12042,0.01155
721.06024,0.01136
719.00007,0.01135
716.93990,0.01120
714.87973,0.01080
712.81956,0.01042
710.75938,0.01004
708.69921,0.00987
706.63904,0.01000
704.57887,0.01005
702.51870,0.00991
700.45852,0.00981
698.39835,0.00987
696.33818,0.01030
694.27801,0.01092
692.21784,0.01126
690.15766,0.01104
688.09749,0.01045
686.03732,0.01027
683.97715,0.01062
681.91697,0.01077
679.85680,0.01074
677.79663,0.01091
675.73646,0.01112
673.67629,0.01127
671.61611,0.01133
669.55594,0.00976
667.49577,0.00844
665.43560,0.01111
663.37543,0.01043
661.31525,0.00905
659.25508,0.00830
657.19491,0.00779
655.13474,0.00733
653.07457,0.00710
651.01439,0.00740
648.95422,0.00829
646.89405,0.00905
644.83388,0.00894
642.77370,0.00877
640.71353,0.00881
638.65336,0.00793
636.59319,0.00627
634.53302,0.00573
632.47284,0.00665
630.41267,0.00768
628.35250,0.00784
626.29233,0.00693
624.23216,0.00593
622.17198,0.00572
620.11181,0.00587
618.05164,0.00605
615.99147,0.00652
613.93129,0.00684
611.87112,0.00582
609.81095,0.00407
607.75078,0.00301
605.69061,0.00248
603.63043,0.00141
601.57026,0.00000
599.51009,0.00000
