3996.73391,0.00010
3994.67374,0.00000
3992.61357,0.00005
3990.55339,0.00022
3988.49322,0.00038
3986.43305,0.00044
3984.37288,0.00042
3982.31271,0.00043
3980.25253,0.00047
3978.19236,0.00037
3976.13219,0.00023
3974.07202,0.00029
3972.01184,0.00044
3969.95167,0.00048
3967.89150,0.00057
3965.83133,0.00081
3963.77116,0.00087
3961.71098,0.00074
3959.65081,0.00083
3957.59064,0.00101
3955.53047,0.00102
3953.47030,0.00093
3951.41012,0.00082
3949.34995,0.00071
3947.28978,0.00069
3945.22961,0.00063
3943.16943,0.00060
3941.10926,0.00084
3939.04909,0.00112
3936.98892,0.00126
3934.92875,0.00138
3932.86857,0.00137
3930.80840,0.00124
3928.74823,0.00126
3926.68806,0.00140
3924.62789,0.00149
3922.56771,0.00145
3920.50754,0.00129
3918.44737,0.00120
3916.38720,0.00154
3914.32703,0.00208
3912.26685,0.00235
3910.20668,0.00242
3908.14651,0.00238
3906.08634,0.00197
3904.02616,0.00118
3901.96599,0.00068
3899.90582,0.00089
3897.84565,0.00143
3895.78548,0.00167
3893.72530,0.00157
3891.66513,0.00162
3889.60496,0.00185
3887.54479,0.00178
3885.48462,0.00144
3883.42444,0.00115
3881.36427,0.00101
3879.30410,0.00122
3877.24393,0.00166
3875.18376,0.00196
3873.12358,0.00200
3871.06341,0.00176
3869.00324,0.00149
3866.94307,0.00144
3864.88289,0.00150
3862.82272,0.00150
3860.76255,0.00142
3858.70238,0.00126
3856.64221,0.00114
3854.58203,0.00148
3852.52186,0.00208
3850.46169,0.00221
3848.40152,0.00193
3846.34135,0.00184
3844.28117,0.00200
3842.22100,0.00212
3840.16083,0.00224
3838.10066,0.00240
3836.04048,0.00240
3833.98031,0.00229
3831.92014,0.00220
3829.85997,0.00212
3827.79980,0.00196
3825.73962,0.00180
3823.67945,0.00184
3821.61928,0.00207
3819.55911,0.00217
3817.49894,0.00225
3815.43876,0.00242
3813.37859,0.00235
3811.31842,0.00197
3809.25825,0.00182
3807.19808,0.00213
3805.13790,0.00251
3803.07773,0.00276
3801.01756,0.00291
3798.95739,0.00304
3796.89721,0.00325
3794.83704,0.00324
3792.77687,0.00289
3790.71670,0.00256
3788.65653,0.00246
3786.59635,0.00258
3784.53618,0.00281
3782.47601,0.00293
3780.41584,0.00280
3778.35567,0.00257
3776.29549,0.00261
3774.23532,0.00296
3772.17515,0.00324
3770.11498,0.00308
3768.05481,0.00252
3765.99463,0.00211
3763.93446,0.00200
3761.87429,0.00197
3759.81412,0.00197
3757.75394,0.00204
3755.69377,0.00201
3753.63360,0.00204
3751.57343,0.00237
3749.51326,0.00246
3747.45308,0.00177
3745.39291,0.00076
3743.33274,0.00065
3741.27257,0.00120
3739.21240,0.00131
3737.15222,0.00109
3735.09205,0.00123
3733.03188,0.00189
3730.97171,0.00232
3728.91153,0.00228
3726.85136,0.00194
3724.79119,0.00155
3722.73102,0.00146
3720.67085,0.00169
3718.61067,0.00174
3716.55050,0.00153
3714.49033,0.00148
3712.43016,0.00182
3710.36999,0.00232
3708.30981,0.00271
3706.24964,0.00287
3704.18947,0.00281
3702.12930,0.00277
3700.06913,0.00287
3698.00895,0.00293
3695.94878,0.00289
3693.88861,0.00301
3691.82844,0.00338
3689.76826,0.00348
3687.70809,0.00311
3685.64792,0.00279
3683.58775,0.00262
3681.52758,0.00255
3679.46740,0.00246
3677.40723,0.00228
3675.34706,0.00211
3673.28689,0.00216
3671.22672,0.00239
3669.16654,0.00254
3667.10637,0.00266
3665.04620,0.00294
3662.98603,0.00318
3660.92586,0.00317
3658.86568,0.00298
3656.80551,0.00279
3654.74534,0.00283
3652.68517,0.00328
3650.62499,0.00385
3648.56482,0.00403
3646.50465,0.00408
3644.44448,0.00408
3642.38431,0.00394
3640.32413,0.00396
3638.26396,0.00440
3636.20379,0.00492
3634.14362,0.00512
3632.08345,0.00521
3630.02327,0.00557
3627.96310,0.00598
3625.90293,0.00622
3623.84276,0.00647
3621.78258,0.00669
3619.72241,0.00667
3617.66224,0.00655
3615.60207,0.00658
3613.54190,0.00653
3611.48172,0.00646
3609.42155,0.00670
3607.36138,0.00735
3605.30121,0.00828
3603.24104,0.00918
3601.18086,0.00975
3599.12069,0.00965
3597.06052,0.00907
3595.00035,0.00881
3592.94018,0.00927
3590.88000,0.00974
3588.81983,0.00971
3586.75966,0.00971
3584.69949,0.01009
3582.63931,0.01038
3580.57914,0.01053
3578.51897,0.01084
3576.45880,0.01134
3574.39863,0.01188
3572.33845,0.01224
3570.27828,0.01243
3568.21811,0.01258
3566.15794,0.01280
3564.09777,0.01316
3562.03759,0.01347
3559.97742,0.01372
3557.91725,0.01413
3555.85708,0.01461
3553.79690,0.01493
3551.73673,0.01495
3549.67656,0.01471
3547.61639,0.01447
3545.55622,0.01462
3543.49604,0.01522
3541.43587,0.01580
3539.37570,0.01595
3537.31553,0.01577
3535.25536,0.01590
3533.19518,0.01655
3531.13501,0.01716
3529.07484,0.01738
3527.01467,0.01745
3524.95450,0.01773
3522.89432,0.01819
3520.83415,0.01864
3518.77398,0.01901
3516.71381,0.01917
3514.65363,0.01909
3512.59346,0.01892
3510.53329,0.01896
3508.47312,0.01939
3506.41295,0.01990
3504.35277,0.02013
3502.29260,0.02027
3500.23243,0.02062
3498.17226,0.02107
3496.11209,0.02139
3494.05191,0.02157
3491.99174,0.02172
3489.93157,0.02185
3487.87140,0.02201
3485.81123,0.02235
3483.75105,0.02267
3481.69088,0.02268
3479.63071,0.02259
3477.57054,0.02277
3475.51036,0.02316
3473.45019,0.02353
3471.39002,0.02379
3469.32985,0.02395
3467.26968,0.02408
3465.20950,0.02418
3463.14933,0.02428
3461.08916,0.02461
3459.02899,0.02513
3456.96882,0.02552
3454.90864,0.02569
3452.84847,0.02585
3450.78830,0.02610
3448.72813,0.02622
3446.66795,0.02624
3444.60778,0.02646
3442.54761,0.02677
3440.48744,0.02697
3438.42727,0.02707
3436.36709,0.02707
3434.30692,0.02721
3432.24675,0.02746
3430.18658,0.02753
3428.12641,0.02749
3426.06623,0.02755
3424.00606,0.02776
3421.94589,0.02804
3419.88572,0.02825
3417.82555,0.02839
3415.76537,0.02839
3413.70520,0.02839
3411.64503,0.02864
3409.58486,0.02899
3407.52468,0.02916
3405.46451,0.02916
3403.40434,0.02917
3401.34417,0.02929
3399.28400,0.02942
3397.22382,0.02976
3395.16365,0.02981
3393.10348,0.02971
3391.04331,0.02981
3388.98314,0.03007
3386.92296,0.03025
3384.86279,0.03031
3382.80262,0.03020
3380.74245,0.03003
3378.68228,0.03010
3376.62210,0.03044
3374.56193,0.03081
3372.50176,0.03102
3370.44159,0.03109
3368.38141,0.03114
3366.32124,0.03113
3364.26107,0.03114
3362.20090,0.03128
3360.14073,0.03153
3358.08055,0.03163
3356.02038,0.03160
3353.96021,0.03168
3351.90004,0.03178
3349.83987,0.03183
3347.77969,0.03186
3345.71952,0.03185
3343.65935,0.03189
3341.59918,0.03205
3339.53900,0.03218
3337.47883,0.03221
3335.41866,0.03208
3333.35849,0.03190
3331.29832,0.03194
3329.23814,0.03217
3327.17797,0.03238
3325.11780,0.03242
3323.05763,0.03231
3320.99746,0.03233
3318.93728,0.03260
3316.87711,0.03294
3314.81694,0.03327
3312.75677,0.03339
3310.69660,0.03326
3308.63642,0.03319
3306.57625,0.03327
3304.51608,0.03330
3302.45591,0.03314
3300.39573,0.03282
3298.33556,0.03260
3296.27539,0.03272
3294.21522,0.03297
3292.15505,0.03299
3290.09487,0.03291
3288.03470,0.03303
3285.97453,0.03326
3283.91436,0.03353
3281.85419,0.03365
3279.79401,0.03354
3277.73384,0.03343
3275.67367,0.03355
3273.61350,0.03387
3271.55333,0.03411
3269.49315,0.03409
3267.43298,0.03390
3265.37281,0.03370
3263.31264,0.03363
3261.25246,0.03372
3259.19229,0.03385
3257.13212,0.03380
3255.07195,0.03361
3253.01178,0.03344
3250.95160,0.03329
3248.89143,0.03330
3246.83126,0.03349
3244.77109,0.03357
3242.71092,0.03349
3240.65074,0.03339
3238.59057,0.03343
3236.53040,0.03366
3234.47023,0.03379
3232.41005,0.03368
3230.34988,0.03350
3228.28971,0.03330
3226.22954,0.03317
3224.16937,0.03315
3222.10919,0.03320
3220.04902,0.03332
3217.98885,0.03348
3215.92868,0.03359
3213.86851,0.03352
3211.80833,0.03340
3209.74816,0.03343
3207.68799,0.03342
3205.62782,0.03335
3203.56765,0.03333
3201.50747,0.03324
3199.44730,0.03305
3197.38713,0.03294
3195.32696,0.03300
3193.26678,0.03308
3191.20661,0.03308
3189.14644,0.03297
3187.08627,0.03284
3185.02610,0.03263
3182.96592,0.03250
3180.90575,0.03268
3178.84558,0.03287
3176.78541,0.03280
3174.72524,0.03265
3172.66506,0.03238
3170.60489,0.03210
3168.54472,0.03193
3166.48455,0.03170
3164.42437,0.03152
3162.36420,0.03165
3160.30403,0.03178
3158.24386,0.03168
3156.18369,0.03159
3154.12351,0.03166
3152.06334,0.03182
3150.00317,0.03190
3147.94300,0.03168
3145.88283,0.03131
3143.82265,0.03127
3141.76248,0.03155
3139.70231,0.03175
3137.64214,0.03167
3135.58197,0.03131
3133.52179,0.03083
3131.46162,0.03053
3129.40145,0.03056
3127.34128,0.03074
3125.28110,0.03076
3123.22093,0.03057
3121.16076,0.03039
3119.10059,0.03027
3117.04042,0.03021
3114.98024,0.03019
3112.92007,0.03019
3110.85990,0.03013
3108.79973,0.02992
3106.73956,0.02982
3104.67938,0.02993
3102.61921,0.02988
3100.55904,0.02979
3098.49887,0.02989
3096.43870,0.02980
3094.37852,0.02945
3092.31835,0.02915
3090.25818,0.02898
3088.19801,0.02889
3086.13783,0.02891
3084.07766,0.02906
3082.01749,0.02906
3079.95732,0.02871
3077.89715,0.02829
3075.83697,0.02818
3073.77680,0.02839
3071.71663,0.02849
3069.65646,0.02821
3067.59629,0.02780
3065.53611,0.02773
3063.47594,0.02787
3061.41577,0.02783
3059.35560,0.02761
3057.29542,0.02741
3055.23525,0.02729
3053.17508,0.02735
3051.11491,0.02750
3049.05474,0.02740
3046.99456,0.02702
3044.93439,0.02670
3042.87422,0.02654
3040.81405,0.02652
3038.75388,0.02650
3036.69370,0.02638
3034.63353,0.02611
3032.57336,0.02583
3030.51319,0.02581
3028.45302,0.02597
3026.39284,0.02604
3024.33267,0.02594
3022.27250,0.02579
3020.21233,0.02569
3018.15215,0.02556
3016.09198,0.02537
3014.03181,0.02520
3011.97164,0.02512
3009.91147,0.02498
3007.85129,0.02467
3005.79112,0.02451
3003.73095,0.02457
3001.67078,0.02461
2999.61061,0.02467
2997.55043,0.02465
2995.49026,0.02446
2993.43009,0.02428
2991.36992,0.02422
2989.30975,0.02423
2987.24957,0.02429
2985.18940,0.02438
2983.12923,0.02453
2981.06906,0.02461
2979.00888,0.02442
2976.94871,0.02408
2974.88854,0.02402
2972.82837,0.02422
2970.76820,0.02437
2968.70802,0.02443
2966.64785,0.02446
2964.58768,0.02450
2962.52751,0.02453
2960.46734,0.02438
2958.40716,0.02415
2956.34699,0.02401
2954.28682,0.02402
2952.22665,0.02411
2950.16647,0.02425
2948.10630,0.02447
2946.04613,0.02444
2943.98596,0.02423
2941.92579,0.02424
2939.86561,0.02435
2937.80544,0.02436
2935.74527,0.02436
2933.68510,0.02430
2931.62493,0.02418
2929.56475,0.02416
2927.50458,0.02426
2925.44441,0.02423
2923.38424,0.02415
2921.32407,0.02422
2919.26389,0.02422
2917.20372,0.02414
2915.14355,0.02415
2913.08338,0.02407
2911.02320,0.02387
2908.96303,0.02378
2906.90286,0.02376
2904.84269,0.02364
2902.78252,0.02351
2900.72234,0.02350
2898.66217,0.02347
2896.60200,0.02334
2894.54183,0.02318
2892.48166,0.02310
2890.42148,0.02308
2888.36131,0.02302
2886.30114,0.02301
2884.24097,0.02307
2882.18080,0.02304
2880.12062,0.02296
2878.06045,0.02292
2876.00028,0.02287
2873.94011,0.02289
2871.87993,0.02294
2869.81976,0.02283
2867.75959,0.02269
2865.69942,0.02266
2863.63925,0.02268
2861.57907,0.02272
2859.51890,0.02256
2857.45873,0.02212
2855.39856,0.02172
2853.33839,0.02169
2851.27821,0.02189
2849.21804,0.02194
2847.15787,0.02170
2845.09770,0.02129
2843.03752,0.02094
2840.97735,0.02075
2838.91718,0.02066
2836.85701,0.02057
2834.79684,0.02043
2832.73666,0.02030
2830.67649,0.02026
2828.61632,0.02021
2826.55615,0.02012
2824.49598,0.02007
2822.43580,0.01995
2820.37563,0.01975
2818.31546,0.01955
2816.25529,0.01938
2814.19512,0.01924
2812.13494,0.01913
2810.07477,0.01898
2808.01460,0.01873
2805.95443,0.01857
2803.89425,0.01853
2801.83408,0.01837
2799.77391,0.01810
2797.71374,0.01798
2795.65357,0.01807
2793.59339,0.01814
2791.53322,0.01810
2789.47305,0.01796
2787.41288,0.01770
2785.35271,0.01743
2783.29253,0.01724
2781.23236,0.01707
2779.17219,0.01705
2777.11202,0.01713
2775.05184,0.01697
2772.99167,0.01665
2770.93150,0.01650
2768.87133,0.01652
2766.81116,0.01647
2764.75098,0.01627
2762.69081,0.01606
2760.63064,0.01587
2758.57047,0.01575
2756.51030,0.01574
2754.45012,0.01572
2752.38995,0.01553
2750.32978,0.01538
2748.26961,0.01543
2746.20944,0.01543
2744.14926,0.01528
2742.08909,0.01514
2740.02892,0.01505
2737.96875,0.01497
2735.90857,0.01486
2733.84840,0.01474
2731.78823,0.01469
2729.72806,0.01461
2727.66789,0.01441
2725.60771,0.01423
2723.54754,0.01416
2721.48737,0.01413
2719.42720,0.01403
2717.36703,0.01389
2715.30685,0.01382
2713.24668,0.01381
2711.18651,0.01370
2709.12634,0.01357
2707.06617,0.01349
2705.00599,0.01339
2702.94582,0.01340
2700.88565,0.01343
2698.82548,0.01333
2696.76530,0.01323
2694.70513,0.01321
2692.64496,0.01318
2690.58479,0.01299
2688.52462,0.01276
2686.46444,0.01263
2684.40427,0.01262
2682.34410,0.01268
2680.28393,0.01268
2678.22376,0.01263
2676.16358,0.01262
2674.10341,0.01256
2672.04324,0.01230
2669.98307,0.01203
2667.92289,0.01201
2665.86272,0.01220
2663.80255,0.01236
2661.74238,0.01238
2659.68221,0.01232
2657.62203,0.01229
2655.56186,0.01223
2653.50169,0.01202
2651.44152,0.01175
2649.38135,0.01176
2647.32117,0.01193
2645.26100,0.01187
2643.20083,0.01169
2641.14066,0.01170
2639.08049,0.01186
2637.02031,0.01184
2634.96014,0.01156
2632.89997,0.01129
2630.83980,0.01124
2628.77962,0.01132
2626.71945,0.01147
2624.65928,0.01153
2622.59911,0.01134
2620.53894,0.01113
2618.47876,0.01108
2616.41859,0.01108
2614.35842,0.01113
2612.29825,0.01117
2610.23808,0.01107
2608.17790,0.01092
2606.11773,0.01091
2604.05756,0.01103
2601.99739,0.01099
2599.93722,0.01069
2597.87704,0.01052
2595.81687,0.01064
2593.75670,0.01080
2591.69653,0.01091
2589.63635,0.01098
2587.57618,0.01087
2585.51601,0.01073
2583.45584,0.01062
2581.39567,0.01046
2579.33549,0.01038
2577.27532,0.01048
2575.21515,0.01062
2573.15498,0.01078
2571.09481,0.01103
2569.03463,0.01113
2566.97446,0.01110
2564.91429,0.01102
2562.85412,0.01076
2560.79394,0.01066
2558.73377,0.01084
2556.67360,0.01084
2554.61343,0.01071
2552.55326,0.01079
2550.49308,0.01097
2548.43291,0.01114
2546.37274,0.01125
2544.31257,0.01118
2542.25240,0.01081
2540.19222,0.01058
2538.13205,0.01074
2536.07188,0.01081
2534.01171,0.01063
2531.95154,0.01057
2529.89136,0.01063
2527.83119,0.01065
2525.77102,0.01075
2523.71085,0.01097
2521.65067,0.01114
2519.59050,0.01117
2517.53033,0.01110
2515.47016,0.01116
2513.40999,0.01128
2511.34981,0.01131
2509.28964,0.01137
2507.22947,0.01133
2505.16930,0.01106
2503.10913,0.01089
2501.04895,0.01107
2498.98878,0.01132
2496.92861,0.01139
2494.86844,0.01132
2492.80827,0.01137
2490.74809,0.01168
2488.68792,0.01211
2486.62775,0.01239
2484.56758,0.01250
2482.50740,0.01258
2480.44723,0.01276
2478.38706,0.01292
2476.32689,0.01286
2474.26672,0.01269
2472.20654,0.01265
2470.14637,0.01279
2468.08620,0.01284
2466.02603,0.01288
2463.96586,0.01308
2461.90568,0.01323
2459.84551,0.01318
2457.78534,0.01295
2455.72517,0.01282
2453.66499,0.01297
2451.60482,0.01329
2449.54465,0.01353
2447.48448,0.01350
2445.42431,0.01335
2443.36413,0.01341
2441.30396,0.01351
2439.24379,0.01320
2437.18362,0.01268
2435.12345,0.01251
2433.06327,0.01248
2431.00310,0.01238
2428.94293,0.01257
2426.88276,0.01298
2424.82259,0.01317
2422.76241,0.01317
2420.70224,0.01316
2418.64207,0.01318
2416.58190,0.01319
2414.52172,0.01302
2412.46155,0.01287
2410.40138,0.01302
2408.34121,0.01321
2406.28104,0.01324
2404.22086,0.01319
2402.16069,0.01318
2400.10052,0.01293
2398.04035,0.01246
2395.98018,0.01240
2393.92000,0.01278
2391.85983,0.01308
2389.79966,0.01293
2387.73949,0.01245
2385.67931,0.01202
2383.61914,0.01169
2381.55897,0.01119
2379.49880,0.01055
2377.43863,0.01019
2375.37845,0.01049
2373.31828,0.01095
2371.25811,0.01093
2369.19794,0.01082
2367.13777,0.01130
2365.07759,0.01239
2363.01742,0.01367
2360.95725,0.01421
2358.89708,0.01515
2356.83691,0.01564
2354.77673,0.01440
2352.71656,0.01203
2350.65639,0.00986
2348.59622,0.00945
2346.53604,0.01151
2344.47587,0.01287
2342.41570,0.01338
2340.35553,0.01328
2338.29536,0.01280
2336.23518,0.01266
2334.17501,0.01271
2332.11484,0.01251
2330.05467,0.01208
2327.99450,0.01211
2325.93432,0.01203
2323.87415,0.01153
2321.81398,0.01049
2319.75381,0.01005
2317.69364,0.01004
2315.63346,0.01005
2313.57329,0.00973
2311.51312,0.00923
2309.45295,0.00897
2307.39277,0.00903
2305.33260,0.00929
2303.27243,0.00967
2301.21226,0.01004
2299.15209,0.01006
2297.09191,0.00984
2295.03174,0.00989
2292.97157,0.01020
2290.91140,0.01032
2288.85123,0.01017
2286.79105,0.01025
2284.73088,0.01074
2282.67071,0.01122
2280.61054,0.01113
2278.55036,0.01045
2276.49019,0.00985
2274.43002,0.00993
2272.36985,0.01018
2270.30968,0.00991
2268.24950,0.00952
2266.18933,0.00960
2264.12916,0.00979
2262.06899,0.00952
2260.00882,0.00897
2257.94864,0.00858
2255.88847,0.00849
2253.82830,0.00854
2251.76813,0.00833
2249.70796,0.00780
2247.64778,0.00748
2245.58761,0.00770
2243.52744,0.00798
2241.46727,0.00784
2239.40709,0.00751
2237.34692,0.00742
2235.28675,0.00761
2233.22658,0.00737
2231.16641,0.00696
2229.10623,0.00726
2227.04606,0.00766
2224.98589,0.00764
2222.92572,0.00755
2220.86555,0.00738
2218.80537,0.00719
2216.74520,0.00726
2214.68503,0.00723
2212.62486,0.00718
2210.56469,0.00726
2208.50451,0.00696
2206.44434,0.00637
2204.38417,0.00563
2202.32400,0.00494
2200.26382,0.00496
2198.20365,0.00522
2196.14348,0.00550
2194.08331,0.00603
2192.02314,0.00598
2189.96296,0.00517
2187.90279,0.00438
2185.84262,0.00445
2183.78245,0.00508
2181.72228,0.00468
2179.66210,0.00393
2177.60193,0.00411
2175.54176,0.00455
2173.48159,0.00473
2171.42141,0.00470
2169.36124,0.00456
2167.30107,0.00447
2165.24090,0.00451
2163.18073,0.00431
2161.12055,0.00310
2159.06038,0.00187
2157.00021,0.00177
2154.94004,0.00188
2152.87987,0.00177
2150.81969,0.00153
2148.75952,0.00136
2146.69935,0.00195
2144.63918,0.00311
2142.57901,0.00360
2140.51883,0.00298
2138.45866,0.00198
2136.39849,0.00134
2134.33832,0.00139
2132.27814,0.00212
2130.21797,0.00259
2128.15780,0.00225
2126.09763,0.00214
2124.03746,0.00289
2121.97728,0.00363
2119.91711,0.00375
2117.85694,0.00324
2115.79677,0.00240
2113.73660,0.00219
2111.67642,0.00298
2109.61625,0.00354
2107.55608,0.00333
2105.49591,0.00331
2103.43573,0.00379
2101.37556,0.00403
2099.31539,0.00388
2097.25522,0.00369
2095.19505,0.00363
2093.13487,0.00329
2091.07470,0.00285
2089.01453,0.00283
2086.95436,0.00326
2084.89419,0.00328
2082.83401,0.00258
2080.77384,0.00208
2078.71367,0.00199
2076.65350,0.00211
2074.59333,0.00271
2072.53315,0.00336
2070.47298,0.00363
2068.41281,0.00394
2066.35264,0.00404
2064.29246,0.00348
2062.23229,0.00295
2060.17212,0.00311
2058.11195,0.00362
2056.05178,0.00391
2053.99160,0.00423
2051.93143,0.00472
2049.87126,0.00457
2047.81109,0.00373
2045.75092,0.00296
2043.69074,0.00207
2041.63057,0.00109
2039.57040,0.00070
2037.51023,0.00112
2035.45006,0.00168
2033.38988,0.00197
2031.32971,0.00241
2029.26954,0.00272
2027.20937,0.00270
2025.14919,0.00284
2023.08902,0.00291
2021.02885,0.00235
2018.96868,0.00147
2016.90851,0.00084
2014.84833,0.00053
2012.78816,0.00076
2010.72799,0.00131
2008.66782,0.00119
2006.60765,0.00118
2004.54747,0.00229
2002.48730,0.00275
2000.42713,0.00213
1998.36696,0.00193
1996.30678,0.00203
1994.24661,0.00168
1992.18644,0.00154
1990.12627,0.00230
1988.06610,0.00309
1986.00592,0.00325
1983.94575,0.00373
1981.88558,0.00507
1979.82541,0.00572
1977.76524,0.00475
1975.70506,0.00375
1973.64489,0.00348
1971.58472,0.00312
1969.52455,0.00241
1967.46438,0.00199
1965.40420,0.00233
1963.34403,0.00247
1961.28386,0.00144
1959.22369,0.00028
1957.16351,0.00058
1955.10334,0.00192
1953.04317,0.00311
1950.98300,0.00368
1948.92283,0.00348
1946.86265,0.00287
1944.80248,0.00216
1942.74231,0.00156
1940.68214,0.00161
1938.62197,0.00230
1936.56179,0.00278
1934.50162,0.00266
1932.44145,0.00270
1930.38128,0.00304
1928.32111,0.00309
1926.26093,0.00295
1924.20076,0.00294
1922.14059,0.00317
1920.08042,0.00355
1918.02024,0.00393
1915.96007,0.00406
1913.89990,0.00399
1911.83973,0.00391
1909.77956,0.00384
1907.71938,0.00376
1905.65921,0.00374
1903.59904,0.00383
1901.53887,0.00394
1899.47870,0.00398
1897.41852,0.00387
1895.35835,0.00358
1893.29818,0.00336
1891.23801,0.00342
1889.17783,0.00380
1887.11766,0.00433
1885.05749,0.00461
1882.99732,0.00450
1880.93715,0.00448
1878.87697,0.00467
1876.81680,0.00485
1874.75663,0.00496
1872.69646,0.00510
1870.63629,0.00533
1868.57611,0.00554
1866.51594,0.00542
1864.45577,0.00512
1862.39560,0.00507
1860.33543,0.00528
1858.27525,0.00549
1856.21508,0.00568
1854.15491,0.00586
1852.09474,0.00592
1850.03456,0.00592
1847.97439,0.00584
1845.91422,0.00559
1843.85405,0.00531
1841.79388,0.00537
1839.73370,0.00571
1837.67353,0.00580
1835.61336,0.00552
1833.55319,0.00543
1831.49302,0.00577
1829.43284,0.00615
1827.37267,0.00636
1825.31250,0.00660
1823.25233,0.00683
1821.19216,0.00684
1819.13198,0.00665
1817.07181,0.00654
1815.01164,0.00667
1812.95147,0.00682
1810.89129,0.00684
1808.83112,0.00688
1806.77095,0.00689
1804.71078,0.00668
1802.65061,0.00641
1800.59043,0.00659
1798.53026,0.00710
1796.47009,0.00746
1794.40992,0.00753
1792.34975,0.00727
1790.28957,0.00682
1788.22940,0.00656
1786.16923,0.00653
1784.10906,0.00677
1782.04888,0.00717
1779.98871,0.00744
1777.92854,0.00746
1775.86837,0.00756
1773.80820,0.00794
1771.74802,0.00805
1769.68785,0.00759
1767.62768,0.00726
1765.56751,0.00742
1763.50734,0.00779
1761.44716,0.00810
1759.38699,0.00821
1757.32682,0.00814
1755.26665,0.00792
1753.20648,0.00765
1751.14630,0.00758
1749.08613,0.00794
1747.02596,0.00838
1744.96579,0.00857
1742.90561,0.00877
1740.84544,0.00901
1738.78527,0.00899
1736.72510,0.00869
1734.66493,0.00834
1732.60475,0.00826
1730.54458,0.00843
1728.48441,0.00857
1726.42424,0.00859
1724.36407,0.00860
1722.30389,0.00874
1720.24372,0.00903
1718.18355,0.00908
1716.12338,0.00858
1714.06320,0.00828
1712.00303,0.00847
1709.94286,0.00882
1707.88269,0.00900
1705.82252,0.00884
1703.76234,0.00850
1701.70217,0.00846
1699.64200,0.00888
1697.58183,0.00954
1695.52166,0.01025
1693.46148,0.01071
1691.40131,0.01091
1689.34114,0.01124
1687.28097,0.01193
1685.22080,0.01275
1683.16062,0.01315
1681.10045,0.01329
1679.04028,0.01373
1676.98011,0.01450
1674.91993,0.01537
1672.85976,0.01616
1670.79959,0.01678
1668.73942,0.01717
1666.67925,0.01751
1664.61907,0.01809
1662.55890,0.01866
1660.49873,0.01874
1658.43856,0.01858
1656.37839,0.01877
1654.31821,0.01948
1652.25804,0.02023
1650.19787,0.02062
1648.13770,0.02075
1646.07753,0.02050
1644.01735,0.01988
1641.95718,0.01949
1639.89701,0.01961
1637.83684,0.01994
1635.77666,0.01999
1633.71649,0.01962
1631.65632,0.01928
1629.59615,0.01919
1627.53598,0.01924
1625.47580,0.01920
1623.41563,0.01901
1621.35546,0.01877
1619.29529,0.01877
1617.23512,0.01890
1615.17494,0.01872
1613.11477,0.01840
1611.05460,0.01823
1608.99443,0.01804
1606.93425,0.01770
1604.87408,0.01738
1602.81391,0.01726
1600.75374,0.01727
1598.69357,0.01727
1596.63339,0.01718
1594.57322,0.01690
1592.51305,0.01640
1590.45288,0.01590
1588.39271,0.01553
1586.33253,0.01526
1584.27236,0.01492
1582.21219,0.01454
1580.15202,0.01436
1578.09185,0.01435
1576.03167,0.01404
1573.97150,0.01342
1571.91133,0.01306
1569.85116,0.01285
1567.79098,0.01241
1565.73081,0.01198
1563.67064,0.01188
1561.61047,0.01225
1559.55030,0.01256
1557.49012,0.01178
1555.42995,0.01070
1553.36978,0.01003
1551.30961,0.00968
1549.24944,0.00948
1547.18926,0.00935
1545.12909,0.00932
1543.06892,0.00964
1541.00875,0.01004
1538.94858,0.00966
1536.88840,0.00892
1534.82823,0.00846
1532.76806,0.00810
1530.70789,0.00769
1528.64771,0.00739
1526.58754,0.00725
1524.52737,0.00728
1522.46720,0.00727
1520.40703,0.00693
1518.34685,0.00655
1516.28668,0.00616
1514.22651,0.00564
1512.16634,0.00507
1510.10617,0.00460
1508.04599,0.00453
1505.98582,0.00491
1503.92565,0.00519
1501.86548,0.00522
1499.80530,0.00517
1497.74513,0.00499
1495.68496,0.00480
1493.62479,0.00483
1491.56462,0.00484
1489.50444,0.00465
1487.44427,0.00447
1485.38410,0.00447
1483.32393,0.00455
1481.26376,0.00466
1479.20358,0.00464
1477.14341,0.00444
1475.08324,0.00434
1473.02307,0.00456
1470.96290,0.00492
1468.90272,0.00521
1466.84255,0.00548
1464.78238,0.00574
1462.72221,0.00587
1460.66203,0.00592
1458.60186,0.00579
1456.54169,0.00542
1454.48152,0.00531
1452.42135,0.00549
1450.36117,0.00579
1448.30100,0.00606
1446.24083,0.00621
1444.18066,0.00629
1442.12049,0.00637
1440.06031,0.00641
1438.00014,0.00636
1435.93997,0.00637
1433.87980,0.00658
1431.81963,0.00694
1429.75945,0.00735
1427.69928,0.00772
1425.63911,0.00806
1423.57894,0.00834
1421.51876,0.00841
1419.45859,0.00835
1417.39842,0.00860
1415.33825,0.00919
1413.27808,0.00970
1411.21790,0.00998
1409.15773,0.01018
1407.09756,0.01035
1405.03739,0.01044
1402.97722,0.01052
1400.91704,0.01051
1398.85687,0.01033
1396.79670,0.01017
1394.73653,0.01019
1392.67635,0.01032
1390.61618,0.01039
1388.55601,0.01035
1386.49584,0.01040
1384.43567,0.01063
1382.37549,0.01078
1380.31532,0.01070
1378.25515,0.01060
1376.19498,0.01061
1374.13481,0.01065
1372.07463,0.01076
1370.01446,0.01096
1367.95429,0.01113
1365.89412,0.01107
1363.83395,0.01073
1361.77377,0.01042
1359.71360,0.01051
1357.65343,0.01073
1355.59326,0.01080
1353.53308,0.01072
1351.47291,0.01055
1349.41274,0.01032
1347.35257,0.01005
1345.29240,0.00966
1343.23222,0.00900
1341.17205,0.00804
1339.11188,0.00720
1337.05171,0.00704
1334.99154,0.00732
1332.93136,0.00750
1330.87119,0.00747
1328.81102,0.00732
1326.75085,0.00711
1324.69067,0.00688
1322.63050,0.00669
1320.57033,0.00639
1318.51016,0.00597
1316.44999,0.00569
1314.38981,0.00562
1312.32964,0.00556
1310.26947,0.00552
1308.20930,0.00554
1306.14913,0.00558
1304.08895,0.00568
1302.02878,0.00570
1299.96861,0.00550
1297.90844,0.00515
1295.84827,0.00489
1293.78809,0.00485
1291.72792,0.00487
1289.66775,0.00478
1287.60758,0.00458
1285.54740,0.00440
1283.48723,0.00434
1281.42706,0.00435
1279.36689,0.00434
1277.30672,0.00437
1275.24654,0.00441
1273.18637,0.00430
1271.12620,0.00417
1269.06603,0.00408
1267.00586,0.00404
1264.94568,0.00416
1262.88551,0.00434
1260.82534,0.00442
1258.76517,0.00435
1256.70500,0.00425
1254.64482,0.00422
1252.58465,0.00418
1250.52448,0.00414
1248.46431,0.00415
1246.40413,0.00412
1244.34396,0.00403
1242.28379,0.00394
1240.22362,0.00387
1238.16345,0.00379
1236.10327,0.00373
1234.04310,0.00371
1231.98293,0.00359
1229.92276,0.00338
1227.86259,0.00319
1225.80241,0.00294
1223.74224,0.00268
1221.68207,0.00258
1219.62190,0.00250
1217.56172,0.00244
1215.50155,0.00242
1213.44138,0.00233
1211.38121,0.00220
1209.32104,0.00218
1207.26086,0.00238
1205.20069,0.00281
1203.14052,0.00326
1201.08035,0.00359
1199.02018,0.00395
1196.96000,0.00459
1194.89983,0.00546
1192.83966,0.00646
1190.77949,0.00755
1188.71932,0.00869
1186.65914,0.00994
1184.59897,0.01133
1182.53880,0.01278
1180.47863,0.01421
1178.41845,0.01557
1176.35828,0.01684
1174.29811,0.01821
1172.23794,0.01963
1170.17777,0.02094
1168.11759,0.02218
1166.05742,0.02335
1163.99725,0.02438
1161.93708,0.02542
1159.87691,0.02647
1157.81673,0.02742
1155.75656,0.02830
1153.69639,0.02920
1151.63622,0.03009
1149.57605,0.03096
1147.51587,0.03175
1145.45570,0.03236
1143.39553,0.03291
1141.33536,0.03357
1139.27518,0.03412
1137.21501,0.03449
1135.15484,0.03472
1133.09467,0.03487
1131.03450,0.03509
1128.97432,0.03546
1126.91415,0.03596
1124.85398,0.03653
1122.79381,0.03704
1120.73364,0.03760
1118.67346,0.03838
1116.61329,0.03932
1114.55312,0.04029
1112.49295,0.04127
1110.43277,0.04221
1108.37260,0.04319
1106.31243,0.04428
1104.25226,0.04554
1102.19209,0.04681
1100.13191,0.04788
1098.07174,0.04883
1096.01157,0.04986
1093.95140,0.05112
1091.89123,0.05243
1089.83105,0.05352
1087.77088,0.05453
1085.71071,0.05575
1083.65054,0.05715
1081.59037,0.05847
1079.53019,0.05963
1077.47002,0.06066
1075.40985,0.06165
1073.34968,0.06254
1071.28950,0.06305
1069.22933,0.06322
1067.16916,0.06323
1065.10899,0.06315
1063.04882,0.06317
1060.98864,0.06314
1058.92847,0.06276
1056.86830,0.06197
1054.80813,0.06091
1052.74796,0.05991
1050.68778,0.05891
1048.62761,0.05756
1046.56744,0.05587
1044.50727,0.05414
1042.44710,0.05258
1040.38692,0.05106
1038.32675,0.04937
1036.26658,0.04752
1034.20641,0.04563
1032.14623,0.04382
1030.08606,0.04221
1028.02589,0.04070
1025.96572,0.03922
1023.90555,0.03791
1021.84537,0.03662
1019.78520,0.03544
1017.72503,0.03460
1015.66486,0.03381
1013.60469,0.03299
1011.54451,0.03249
1009.48434,0.03236
1007.42417,0.03249
1005.36400,0.03284
1003.30382,0.03334
1001.24365,0.03398
999.18348,0.03483
997.12331,0.03577
995.06314,0.03674
993.00296,0.03769
990.94279,0.03840
988.88262,0.03894
986.82245,0.03936
984.76228,0.03962
982.70210,0.03988
980.64193,0.04031
978.58176,0.04080
976.52159,0.04101
974.46142,0.04090
972.40124,0.04080
970.34107,0.04067
968.28090,0.04026
966.22073,0.03970
964.16055,0.03922
962.10038,0.03884
960.04021,0.03858
957.98004,0.03834
955.91987,0.03808
953.85969,0.03791
951.79952,0.03769
949.73935,0.03737
947.67918,0.03703
945.61901,0.03657
943.55883,0.03596
941.49866,0.03539
939.43849,0.03487
937.37832,0.03436
935.31814,0.03374
933.25797,0.03290
931.19780,0.03193
929.13763,0.03082
927.07746,0.02955
925.01728,0.02828
922.95711,0.02716
920.89694,0.02621
918.83677,0.02532
916.77660,0.02437
914.71642,0.02353
912.65625,0.02284
910.59608,0.02193
908.53591,0.02093
906.47574,0.02019
904.41556,0.01980
902.35539,0.01968
900.29522,0.01952
898.23505,0.01917
896.17487,0.01892
894.11470,0.01893
892.05453,0.01903
889.99436,0.01919
887.93419,0.01953
885.87401,0.02029
883.81384,0.02139
881.75367,0.02248
879.69350,0.02373
877.63333,0.02530
875.57315,0.02680
873.51298,0.02810
871.45281,0.02960
869.39264,0.03142
867.33247,0.03327
865.27229,0.03507
863.21212,0.03678
861.15195,0.03823
859.09178,0.03948
857.03160,0.04055
854.97143,0.04110
852.91126,0.04092
850.85109,0.04056
848.79092,0.04032
846.73074,0.03972
844.67057,0.03872
842.61040,0.03776
840.55023,0.03682
838.49006,0.03558
836.42988,0.03420
834.36971,0.03303
832.30954,0.03206
830.24937,0.03107
828.18919,0.02989
826.12902,0.02854
824.06885,0.02740
822.00868,0.02659
819.94851,0.02575
817.88833,0.02487
815.82816,0.02413
813.76799,0.02329
811.70782,0.02222
809.64765,0.02138
807.58747,0.02098
805.52730,0.02052
803.46713,0.01961
801.40696,0.01838
799.34679,0.01744
797.28661,0.01731
795.22644,0.01751
793.16627,0.01717
791.10610,0.01656
789.04592,0.01623
786.98575,0.01604
784.92558,0.01572
782.86541,0.01543
780.80524,0.01517
778.74506,0.01482
776.68489,0.01469
774.62472,0.01462
772.56455,0.01419
770.50438,0.01351
768.44420,0.01277
766.38403,0.01210
764.32386,0.01195
762.26369,0.01250
760.20352,0.01267
758.14334,0.01222
756.08317,0.01198
754.02300,0.01182
751.96283,0.01144
749.90265,0.01114
747.84248,0.01095
745.78231,0.01055
743.72214,0.01007
741.66197,0.00986
739.60179,0.00997
737.54162,0.01010
735.48145,0.01002
733.42128,0.00999
731.36111,0.00996
729.30093,0.00985
727.24076,0.00981
725.18059,0.00942
723.12042,0.00891
721.06024,0.00905
719.00007,0.00931
716.93990,0.00925
714.87973,0.00877
712.81956,0.00841
710.75938,0.00834
708.69921,0.00827
706.63904,0.00814
704.57887,0.00796
702.51870,0.00787
700.45852,0.00795
698.39835,0.00806
696.33818,0.00830
694.27801,0.00851
692.21784,0.00827
690.15766,0.00763
688.09749,0.00710
686.03732,0.00710
683.97715,0.00752
681.91697,0.00811
679.85680,0.00892
677.79663,0.00948
675.73646,0.00907
673.67629,0.00757
671.61611,0.00550
669.55594,0.00581
667.49577,0.00796
665.43560,0.00648
663.37543,0.00736
661.31525,0.00787
659.25508,0.00773
657.19491,0.00797
655.13474,0.00798
653.07457,0.00681
651.01439,0.00511
648.95422,0.00434
646.89405,0.00466
644.83388,0.00544
642.77370,0.00618
640.71353,0.00666
638.65336,0.00634
636.59319,0.00525
634.53302,0.00422
632.47284,0.00394
630.41267,0.00435
628.35250,0.00480
626.29233,0.00438
624.23216,0.00369
622.17198,0.00403
620.11181,0.00480
618.05164,0.00502
615.99147,0.00455
613.93129,0.00455
611.87112,0.00445
609.81095,0.00282
607.75078,0.00124
605.69061,0.00103
603.63043,0.00085
601.57026,0.00000
599.51009,0.00000
