3996.73391,0.00003
3994.67374,0.00000
3992.61357,0.00016
3990.55339,0.00030
3988.49322,0.00028
3986.43305,0.00025
3984.37288,0.00035
3982.31271,0.00051
3980.25253,0.00062
3978.19236,0.00071
3976.13219,0.00075
3974.07202,0.00078
3972.01184,0.00080
3969.95167,0.00079
3967.89150,0.00100
3965.83133,0.00139
3963.77116,0.00150
3961.71098,0.00127
3959.65081,0.00113
3957.59064,0.00114
3955.53047,0.00125
3953.47030,0.00152
3951.41012,0.00163
3949.34995,0.00141
3947.28978,0.00121
3945.22961,0.00122
3943.16943,0.00141
3941.10926,0.00179
3939.04909,0.00201
3936.98892,0.00192
3934.92875,0.00174
3932.86857,0.00158
3930.80840,0.00146
3928.74823,0.00147
3926.68806,0.00160
3924.62789,0.00179
3922.56771,0.00202
3920.50754,0.00213
3918.44737,0.00208
3916.38720,0.00223
3914.32703,0.00267
3912.26685,0.00308
3910.20668,0.00330
3908.14651,0.00322
3906.08634,0.00265
3904.02616,0.00174
3901.96599,0.00120
3899.90582,0.00143
3897.84565,0.00199
3895.78548,0.00217
3893.72530,0.00195
3891.66513,0.00188
3889.60496,0.00224
3887.54479,0.00254
3885.48462,0.00259
3883.42444,0.00255
3881.36427,0.00259
3879.30410,0.00277
3877.24393,0.00289
3875.18376,0.00273
3873.12358,0.00239
3871.06341,0.00220
3869.00324,0.00243
3866.94307,0.00278
3864.88289,0.00282
3862.82272,0.00262
3860.76255,0.00255
3858.70238,0.00269
3856.64221,0.00275
3854.58203,0.00272
3852.52186,0.00269
3850.46169,0.00269
3848.40152,0.00263
3846.34135,0.00261
3844.28117,0.00269
3842.22100,0.00280
3840.16083,0.00300
3838.10066,0.00323
3836.04048,0.00331
3833.98031,0.00321
3831.92014,0.00317
3829.85997,0.00334
3827.79980,0.00351
3825.73962,0.00338
3823.67945,0.00304
3821.61928,0.00281
3819.55911,0.00275
3817.49894,0.00297
3815.43876,0.00341
3813.37859,0.00356
3811.31842,0.00339
3809.25825,0.00335
3807.19808,0.00353
3805.13790,0.00375
3803.07773,0.00390
3801.01756,0.00391
3798.95739,0.00395
3796.89721,0.00416
3794.83704,0.00431
3792.77687,0.00419
3790.71670,0.00391
3788.65653,0.00376
3786.59635,0.00392
3784.53618,0.00413
3782.47601,0.00402
3780.41584,0.00385
3778.35567,0.00390
3776.29549,0.00399
3774.23532,0.00398
3772.17515,0.00396
3770.11498,0.00381
3768.05481,0.00347
3765.99463,0.00326
3763.93446,0.00337
3761.87429,0.00352
3759.81412,0.00343
3757.75394,0.00320
3755.69377,0.00297
3753.63360,0.00271
3751.57343,0.00249
3749.51326,0.00228
3747.45308,0.00179
3745.39291,0.00114
3743.33274,0.00135
3741.27257,0.00233
3739.21240,0.00278
3737.15222,0.00233
3735.09205,0.00195
3733.03188,0.00249
3730.97171,0.00288
3728.91153,0.00258
3726.85136,0.00226
3724.79119,0.00228
3722.73102,0.00256
3720.67085,0.00292
3718.61067,0.00307
3716.55050,0.00303
3714.49033,0.00315
3712.43016,0.00364
3710.36999,0.00429
3708.30981,0.00450
3706.24964,0.00416
3704.18947,0.00359
3702.12930,0.00332
3700.06913,0.00347
3698.00895,0.00363
3695.94878,0.00359
3693.88861,0.00362
3691.82844,0.00389
3689.76826,0.00409
3687.70809,0.00411
3685.64792,0.00408
3683.58775,0.00389
3681.52758,0.00364
3679.46740,0.00348
3677.40723,0.00339
3675.34706,0.00344
3673.28689,0.00368
3671.22672,0.00386
3669.16654,0.00393
3667.10637,0.00399
3665.04620,0.00404
3662.98603,0.00412
3660.92586,0.00433
3658.86568,0.00452
3656.80551,0.00450
3654.74534,0.00446
3652.68517,0.00451
3650.62499,0.00465
3648.56482,0.00498
3646.50465,0.00548
3644.44448,0.00568
3642.38431,0.00569
3640.32413,0.00586
3638.26396,0.00629
3636.20379,0.00678
3634.14362,0.00698
3632.08345,0.00685
3630.02327,0.00668
3627.96310,0.00674
3625.90293,0.00707
3623.84276,0.00741
3621.78258,0.00768
3619.72241,0.00787
3617.66224,0.00791
3615.60207,0.00798
3613.54190,0.00818
3611.48172,0.00845
3609.42155,0.00893
3607.36138,0.00966
3605.30121,0.01054
3603.24104,0.01132
3601.18086,0.01167
3599.12069,0.01153
3597.06052,0.01129
3595.00035,0.01133
3592.94018,0.01160
3590.88000,0.01177
3588.81983,0.01157
3586.75966,0.01163
3584.69949,0.01236
3582.63931,0.01311
3580.57914,0.01350
3578.51897,0.01372
3576.45880,0.01395
3574.39863,0.01422
3572.33845,0.01445
3570.27828,0.01451
3568.21811,0.01453
3566.15794,0.01498
3564.09777,0.01572
3562.03759,0.01613
3559.97742,0.01631
3557.91725,0.01674
3555.85708,0.01740
3553.79690,0.01791
3551.73673,0.01807
3549.67656,0.01793
3547.61639,0.01774
3545.55622,0.01792
3543.49604,0.01855
3541.43587,0.01914
3539.37570,0.01938
3537.31553,0.01944
3535.25536,0.01971
3533.19518,0.02024
3531.13501,0.02066
3529.07484,0.02077
3527.01467,0.02076
3524.95450,0.02102
3522.89432,0.02155
3520.83415,0.02195
3518.77398,0.02213
3516.71381,0.02239
3514.65363,0.02282
3512.59346,0.02319
3510.53329,0.02331
3508.47312,0.02337
3506.41295,0.02357
3504.35277,0.02387
3502.29260,0.02417
3500.23243,0.02456
3498.17226,0.02506
3496.11209,0.02544
3494.05191,0.02559
3491.99174,0.02563
3489.93157,0.02581
3487.87140,0.02623
3485.81123,0.02662
3483.75105,0.02674
3481.69088,0.02673
3479.63071,0.02693
3477.57054,0.02734
3475.51036,0.02761
3473.45019,0.02782
3471.39002,0.02818
3469.32985,0.02851
3467.26968,0.02861
3465.20950,0.02859
3463.14933,0.02862
3461.08916,0.02894
3459.02899,0.02942
3456.96882,0.02967
3454.90864,0.02973
3452.84847,0.02986
3450.78830,0.03013
3448.72813,0.03046
3446.66795,0.03077
3444.60778,0.03111
3442.54761,0.03142
3440.48744,0.03162
3438.42727,0.03185
3436.36709,0.03212
3434.30692,0.03226
3432.24675,0.03233
3430.18658,0.03247
3428.12641,0.03260
3426.06623,0.03265
3424.00606,0.03279
3421.94589,0.03310
3419.88572,0.03325
3417.82555,0.03332
3415.76537,0.03345
3413.70520,0.03348
3411.64503,0.03358
3409.58486,0.03397
3407.52468,0.03446
3405.46451,0.03477
3403.40434,0.03481
3401.34417,0.03488
3399.28400,0.03492
3397.22382,0.03496
3395.16365,0.03496
3393.10348,0.03527
3391.04331,0.03560
3388.98314,0.03559
3386.92296,0.03539
3384.86279,0.03529
3382.80262,0.03539
3380.74245,0.03560
3378.68228,0.03590
3376.62210,0.03635
3374.56193,0.03673
3372.50176,0.03681
3370.44159,0.03686
3368.38141,0.03698
3366.32124,0.03695
3364.26107,0.03681
3362.20090,0.03671
3360.14073,0.03679
3358.08055,0.03698
3356.02038,0.03709
3353.96021,0.03715
3351.90004,0.03732
3349.83987,0.03758
3347.77969,0.03766
3345.71952,0.03759
3343.65935,0.03762
3341.59918,0.03775
3339.53900,0.03783
3337.47883,0.03786
3335.41866,0.03789
3333.35849,0.03786
3331.29832,0.03780
3329.23814,0.03783
3327.17797,0.03795
3325.11780,0.03813
3323.05763,0.03835
3320.99746,0.03853
3318.93728,0.03866
3316.87711,0.03876
3314.81694,0.03888
3312.75677,0.03899
3310.69660,0.03902
3308.63642,0.03904
3306.57625,0.03904
3304.51608,0.03898
3302.45591,0.03895
3300.39573,0.03895
3298.33556,0.03893
3296.27539,0.03902
3294.21522,0.03910
3292.15505,0.03914
3290.09487,0.03921
3288.03470,0.03933
3285.97453,0.03954
3283.91436,0.03978
3281.85419,0.03978
3279.79401,0.03954
3277.73384,0.03946
3275.67367,0.03966
3273.61350,0.03983
3271.55333,0.03984
3269.49315,0.03987
3267.43298,0.03993
3265.37281,0.03985
3263.31264,0.03967
3261.25246,0.03960
3259.19229,0.03968
3257.13212,0.03975
3255.07195,0.03976
3253.01178,0.03975
3250.95160,0.03970
3248.89143,0.03974
3246.83126,0.03982
3244.77109,0.03974
3242.71092,0.03971
3240.65074,0.03987
3238.59057,0.04007
3236.53040,0.04014
3234.47023,0.03998
3232.41005,0.03977
3230.34988,0.03958
3228.28971,0.03942
3226.22954,0.03928
3224.16937,0.03920
3222.10919,0.03924
3220.04902,0.03929
3217.98885,0.03924
3215.92868,0.03922
3213.86851,0.03925
3211.80833,0.03926
3209.74816,0.03934
3207.68799,0.03949
3205.62782,0.03964
3203.56765,0.03953
3201.50747,0.03906
3199.44730,0.03861
3197.38713,0.03849
3195.32696,0.03856
3193.26678,0.03864
3191.20661,0.03874
3189.14644,0.03889
3187.08627,0.03895
3185.02610,0.03886
3182.96592,0.03875
3180.90575,0.03863
3178.84558,0.03844
3176.78541,0.03846
3174.72524,0.03861
3172.66506,0.03851
3170.60489,0.03818
3168.54472,0.03787
3166.48455,0.03756
3164.42437,0.03746
3162.36420,0.03780
3160.30403,0.03808
3158.24386,0.03785
3156.18369,0.03750
3154.12351,0.03743
3152.06334,0.03762
3150.00317,0.03779
3147.94300,0.03766
3145.88283,0.03733
3143.82265,0.03711
3141.76248,0.03710
3139.70231,0.03720
3137.64214,0.03722
3135.58197,0.03705
3133.52179,0.03674
3131.46162,0.03655
3129.40145,0.03659
3127.34128,0.03656
3125.28110,0.03628
3123.22093,0.03605
3121.16076,0.03603
3119.10059,0.03602
3117.04042,0.03589
3114.98024,0.03561
3112.92007,0.03540
3110.85990,0.03532
3108.79973,0.03526
3106.73956,0.03524
3104.67938,0.03521
3102.61921,0.03501
3100.55904,0.03485
3098.49887,0.03492
3096.43870,0.03505
3094.37852,0.03506
3092.31835,0.03491
3090.25818,0.03452
3088.19801,0.03403
3086.13783,0.03394
3084.07766,0.03431
3082.01749,0.03458
3079.95732,0.03442
3077.89715,0.03406
3075.83697,0.03378
3073.77680,0.03367
3071.71663,0.03370
3069.65646,0.03353
3067.59629,0.03308
3065.53611,0.03275
3063.47594,0.03265
3061.41577,0.03262
3059.35560,0.03266
3057.29542,0.03271
3055.23525,0.03262
3053.17508,0.03253
3051.11491,0.03251
3049.05474,0.03230
3046.99456,0.03183
3044.93439,0.03147
3042.87422,0.03139
3040.81405,0.03139
3038.75388,0.03139
3036.69370,0.03125
3034.63353,0.03104
3032.57336,0.03089
3030.51319,0.03076
3028.45302,0.03056
3026.39284,0.03035
3024.33267,0.03023
3022.27250,0.03017
3020.21233,0.03018
3018.15215,0.03016
3016.09198,0.02994
3014.03181,0.02961
3011.97164,0.02944
3009.91147,0.02944
3007.85129,0.02939
3005.79112,0.02925
3003.73095,0.02912
3001.67078,0.02907
2999.61061,0.02919
2997.55043,0.02929
2995.49026,0.02908
2993.43009,0.02877
2991.36992,0.02865
2989.30975,0.02863
2987.24957,0.02861
2985.18940,0.02858
2983.12923,0.02864
2981.06906,0.02870
2979.00888,0.02866
2976.94871,0.02861
2974.88854,0.02865
2972.82837,0.02874
2970.76820,0.02881
2968.70802,0.02875
2966.64785,0.02853
2964.58768,0.02845
2962.52751,0.02858
2960.46734,0.02872
2958.40716,0.02874
2956.34699,0.02860
2954.28682,0.02845
2952.22665,0.02842
2950.16647,0.02845
2948.10630,0.02859
2946.04613,0.02876
2943.98596,0.02875
2941.92579,0.02855
2939.86561,0.02837
2937.80544,0.02846
2935.74527,0.02872
2933.68510,0.02883
2931.62493,0.02872
2929.56475,0.02862
2927.50458,0.02863
2925.44441,0.02856
2923.38424,0.02842
2921.32407,0.02831
2919.26389,0.02820
2917.20372,0.02811
2915.14355,0.02802
2913.08338,0.02783
2911.02320,0.02762
2908.96303,0.02756
2906.90286,0.02747
2904.84269,0.02725
2902.78252,0.02706
2900.72234,0.02699
2898.66217,0.02700
2896.60200,0.02710
2894.54183,0.02710
2892.48166,0.02686
2890.42148,0.02661
2888.36131,0.02652
2886.30114,0.02643
2884.24097,0.02632
2882.18080,0.02622
2880.12062,0.02617
2878.06045,0.02627
2876.00028,0.02636
2873.94011,0.02632
2871.87993,0.02631
2869.81976,0.02633
2867.75959,0.02621
2865.69942,0.02604
2863.63925,0.02588
2861.57907,0.02576
2859.51890,0.02568
2857.45873,0.02549
2855.39856,0.02519
2853.33839,0.02507
2851.27821,0.02508
2849.21804,0.02492
2847.15787,0.02462
2845.09770,0.02428
2843.03752,0.02391
2840.97735,0.02362
2838.91718,0.02353
2836.85701,0.02348
2834.79684,0.02338
2832.73666,0.02341
2830.67649,0.02350
2828.61632,0.02329
2826.55615,0.02293
2824.49598,0.02273
2822.43580,0.02265
2820.37563,0.02254
2818.31546,0.02242
2816.25529,0.02229
2814.19512,0.02212
2812.13494,0.02190
2810.07477,0.02164
2808.01460,0.02139
2805.95443,0.02129
2803.89425,0.02129
2801.83408,0.02125
2799.77391,0.02115
2797.71374,0.02098
2795.65357,0.02084
2793.59339,0.02079
2791.53322,0.02068
2789.47305,0.02041
2787.41288,0.02017
2785.35271,0.02007
2783.29253,0.01997
2781.23236,0.01977
2779.17219,0.01960
2777.11202,0.01952
2775.05184,0.01945
2772.99167,0.01936
2770.93150,0.01925
2768.87133,0.01915
2766.81116,0.01895
2764.75098,0.01869
2762.69081,0.01854
2760.63064,0.01844
2758.57047,0.01833
2756.51030,0.01832
2754.45012,0.01836
2752.38995,0.01821
2750.32978,0.01798
2748.26961,0.01786
2746.20944,0.01776
2744.14926,0.01759
2742.08909,0.01738
2740.02892,0.01727
2737.96875,0.01733
2735.90857,0.01731
2733.84840,0.01712
2731.78823,0.01704
2729.72806,0.01703
2727.66789,0.01694
2725.60771,0.01682
2723.54754,0.01668
2721.48737,0.01655
2719.42720,0.01654
2717.36703,0.01647
2715.30685,0.01624
2713.24668,0.01610
2711.18651,0.01604
2709.12634,0.01588
2707.06617,0.01568
2705.00599,0.01563
2702.94582,0.01572
2700.88565,0.01571
2698.82548,0.01549
2696.76530,0.01534
2694.70513,0.01542
2692.64496,0.01547
2690.58479,0.01529
2688.52462,0.01503
2686.46444,0.01482
2684.40427,0.01476
2682.34410,0.01468
2680.28393,0.01449
2678.22376,0.01442
2676.16358,0.01454
2674.10341,0.01456
2672.04324,0.01434
2669.98307,0.01409
2667.92289,0.01405
2665.86272,0.01419
2663.80255,0.01437
2661.74238,0.01437
2659.68221,0.01410
2657.62203,0.01386
2655.56186,0.01370
2653.50169,0.01358
2651.44152,0.01360
2649.38135,0.01379
2647.32117,0.01391
2645.26100,0.01377
2643.20083,0.01355
2641.14066,0.01357
2639.08049,0.01370
2637.02031,0.01358
2634.96014,0.01325
2632.89997,0.01305
2630.83980,0.01306
2628.77962,0.01310
2626.71945,0.01310
2624.65928,0.01304
2622.59911,0.01280
2620.53894,0.01256
2618.47876,0.01250
2616.41859,0.01253
2614.35842,0.01248
2612.29825,0.01231
2610.23808,0.01222
2608.17790,0.01234
2606.11773,0.01244
2604.05756,0.01229
2601.99739,0.01197
2599.93722,0.01165
2597.87704,0.01156
2595.81687,0.01180
2593.75670,0.01205
2591.69653,0.01210
2589.63635,0.01200
2587.57618,0.01192
2585.51601,0.01206
2583.45584,0.01214
2581.39567,0.01200
2579.33549,0.01190
2577.27532,0.01180
2575.21515,0.01169
2573.15498,0.01176
2571.09481,0.01192
2569.03463,0.01191
2566.97446,0.01191
2564.91429,0.01203
2562.85412,0.01191
2560.79394,0.01171
2558.73377,0.01177
2556.67360,0.01184
2554.61343,0.01195
2552.55326,0.01229
2550.49308,0.01248
2548.43291,0.01244
2546.37274,0.01233
2544.31257,0.01200
2542.25240,0.01152
2540.19222,0.01136
2538.13205,0.01175
2536.07188,0.01211
2534.01171,0.01197
2531.95154,0.01174
2529.89136,0.01172
2527.83119,0.01175
2525.77102,0.01175
2523.71085,0.01174
2521.65067,0.01172
2519.59050,0.01180
2517.53033,0.01210
2515.47016,0.01247
2513.40999,0.01267
2511.34981,0.01270
2509.28964,0.01269
2507.22947,0.01260
2505.16930,0.01240
2503.10913,0.01228
2501.04895,0.01230
2498.98878,0.01239
2496.92861,0.01248
2494.86844,0.01253
2492.80827,0.01260
2490.74809,0.01280
2488.68792,0.01311
2486.62775,0.01340
2484.56758,0.01359
2482.50740,0.01372
2480.44723,0.01364
2478.38706,0.01337
2476.32689,0.01319
2474.26672,0.01326
2472.20654,0.01344
2470.14637,0.01366
2468.08620,0.01383
2466.02603,0.01391
2463.96586,0.01404
2461.90568,0.01420
2459.84551,0.01424
2457.78534,0.01411
2455.72517,0.01410
2453.66499,0.01432
2451.60482,0.01444
2449.54465,0.01424
2447.48448,0.01390
2445.42431,0.01394
2443.36413,0.01440
2441.30396,0.01468
2439.24379,0.01447
2437.18362,0.01416
2435.12345,0.01401
2433.06327,0.01386
2431.00310,0.01386
2428.94293,0.01416
2426.88276,0.01434
2424.82259,0.01415
2422.76241,0.01392
2420.70224,0.01384
2418.64207,0.01387
2416.58190,0.01404
2414.52172,0.01411
2412.46155,0.01396
2410.40138,0.01384
2408.34121,0.01387
2406.28104,0.01391
2404.22086,0.01391
2402.16069,0.01387
2400.10052,0.01370
2398.04035,0.01356
2395.98018,0.01378
2393.92000,0.01414
2391.85983,0.01422
2389.79966,0.01389
2387.73949,0.01346
2385.67931,0.01321
2383.61914,0.01301
2381.55897,0.01249
2379.49880,0.01172
2377.43863,0.01142
2375.37845,0.01168
2373.31828,0.01214
2371.25811,0.01260
2369.19794,0.01279
2367.13777,0.01274
2365.07759,0.01283
2363.01742,0.01296
2360.95725,0.01418
2358.89708,0.01591
2356.83691,0.01651
2354.77673,0.01520
2352.71656,0.01368
2350.65639,0.01368
2348.59622,0.01404
2346.53604,0.01338
2344.47587,0.01402
2342.41570,0.01468
2340.35553,0.01443
2338.29536,0.01396
2336.23518,0.01351
2334.17501,0.01301
2332.11484,0.01258
2330.05467,0.01265
2327.99450,0.01285
2325.93432,0.01318
2323.87415,0.01292
2321.81398,0.01219
2319.75381,0.01149
2317.69364,0.01157
2315.63346,0.01151
2313.57329,0.01098
2311.51312,0.01051
2309.45295,0.01036
2307.39277,0.01041
2305.33260,0.01058
2303.27243,0.01089
2301.21226,0.01115
2299.15209,0.01127
2297.09191,0.01113
2295.03174,0.01099
2292.97157,0.01124
2290.91140,0.01156
2288.85123,0.01149
2286.79105,0.01132
2284.73088,0.01140
2282.67071,0.01148
2280.61054,0.01133
2278.55036,0.01109
2276.49019,0.01098
2274.43002,0.01088
2272.36985,0.01052
2270.30968,0.01019
2268.24950,0.01014
2266.18933,0.01008
2264.12916,0.01007
2262.06899,0.01027
2260.00882,0.01040
2257.94864,0.01032
2255.88847,0.01015
2253.82830,0.00998
2251.76813,0.00970
2249.70796,0.00921
2247.64778,0.00885
2245.58761,0.00888
2243.52744,0.00867
2241.46727,0.00822
2239.40709,0.00814
2237.34692,0.00820
2235.28675,0.00821
2233.22658,0.00780
2231.16641,0.00698
2229.10623,0.00693
2227.04606,0.00773
2224.98589,0.00833
2222.92572,0.00845
2220.86555,0.00846
2218.80537,0.00850
2216.74520,0.00836
2214.68503,0.00799
2212.62486,0.00782
2210.56469,0.00802
2208.50451,0.00809
2206.44434,0.00785
2204.38417,0.00737
2202.32400,0.00693
2200.26382,0.00697
2198.20365,0.00701
2196.14348,0.00665
2194.08331,0.00635
2192.02314,0.00621
2189.96296,0.00590
2187.90279,0.00539
2185.84262,0.00514
2183.78245,0.00506
2181.72228,0.00443
2179.66210,0.00373
2177.60193,0.00383
2175.54176,0.00435
2173.48159,0.00524
2171.42141,0.00625
2169.36124,0.00604
2167.30107,0.00499
2165.24090,0.00467
2163.18073,0.00446
2161.12055,0.00272
2159.06038,0.00068
2157.00021,0.00071
2154.94004,0.00195
2152.87987,0.00322
2150.81969,0.00462
2148.75952,0.00520
2146.69935,0.00446
2144.63918,0.00323
2142.57901,0.00253
2140.51883,0.00300
2138.45866,0.00328
2136.39849,0.00267
2134.33832,0.00270
2132.27814,0.00333
2130.21797,0.00355
2128.15780,0.00381
2126.09763,0.00440
2124.03746,0.00476
2121.97728,0.00465
2119.91711,0.00467
2117.85694,0.00520
2115.79677,0.00544
2113.73660,0.00501
2111.67642,0.00463
2109.61625,0.00430
2107.55608,0.00392
2105.49591,0.00419
2103.43573,0.00478
2101.37556,0.00475
2099.31539,0.00430
2097.25522,0.00396
2095.19505,0.00406
2093.13487,0.00424
2091.07470,0.00425
2089.01453,0.00410
2086.95436,0.00411
2084.89419,0.00419
2082.83401,0.00388
2080.77384,0.00358
2078.71367,0.00362
2076.65350,0.00383
2074.59333,0.00432
2072.53315,0.00482
2070.47298,0.00496
2068.41281,0.00496
2066.35264,0.00466
2064.29246,0.00417
2062.23229,0.00416
2060.17212,0.00449
2058.11195,0.00459
2056.05178,0.00459
2053.99160,0.00479
2051.93143,0.00504
2049.87126,0.00488
2047.81109,0.00420
2045.75092,0.00351
2043.69074,0.00293
2041.63057,0.00260
2039.57040,0.00240
2037.51023,0.00212
2035.45006,0.00235
2033.38988,0.00316
2031.32971,0.00365
2029.26954,0.00314
2027.20937,0.00243
2025.14919,0.00250
2023.08902,0.00294
2021.02885,0.00294
2018.96868,0.00230
2016.90851,0.00130
2014.84833,0.00051
2012.78816,0.00051
2010.72799,0.00100
2008.66782,0.00108
2006.60765,0.00114
2004.54747,0.00191
2002.48730,0.00241
2000.42713,0.00250
1998.36696,0.00288
1996.30678,0.00291
1994.24661,0.00238
1992.18644,0.00211
1990.12627,0.00253
1988.06610,0.00324
1986.00592,0.00367
1983.94575,0.00392
1981.88558,0.00398
1979.82541,0.00347
1977.76524,0.00297
1975.70506,0.00314
1973.64489,0.00317
1971.58472,0.00229
1969.52455,0.00132
1967.46438,0.00119
1965.40420,0.00176
1963.34403,0.00216
1961.28386,0.00151
1959.22369,0.00049
1957.16351,0.00057
1955.10334,0.00185
1953.04317,0.00301
1950.98300,0.00313
1948.92283,0.00291
1946.86265,0.00291
1944.80248,0.00261
1942.74231,0.00215
1940.68214,0.00210
1938.62197,0.00232
1936.56179,0.00233
1934.50162,0.00207
1932.44145,0.00210
1930.38128,0.00253
1928.32111,0.00284
1926.26093,0.00289
1924.20076,0.00283
1922.14059,0.00302
1920.08042,0.00362
1918.02024,0.00387
1915.96007,0.00348
1913.89990,0.00335
1911.83973,0.00388
1909.77956,0.00435
1907.71938,0.00443
1905.65921,0.00446
1903.59904,0.00445
1901.53887,0.00424
1899.47870,0.00406
1897.41852,0.00406
1895.35835,0.00405
1893.29818,0.00386
1891.23801,0.00360
1889.17783,0.00357
1887.11766,0.00381
1885.05749,0.00415
1882.99732,0.00451
1880.93715,0.00487
1878.87697,0.00509
1876.81680,0.00505
1874.75663,0.00485
1872.69646,0.00476
1870.63629,0.00482
1868.57611,0.00494
1866.51594,0.00503
1864.45577,0.00505
1862.39560,0.00512
1860.33543,0.00527
1858.27525,0.00552
1856.21508,0.00580
1854.15491,0.00595
1852.09474,0.00599
1850.03456,0.00598
1847.97439,0.00570
1845.91422,0.00536
1843.85405,0.00537
1841.79388,0.00568
1839.73370,0.00596
1837.67353,0.00603
1835.61336,0.00588
1833.55319,0.00576
1831.49302,0.00585
1829.43284,0.00610
1827.37267,0.00627
1825.31250,0.00633
1823.25233,0.00636
1821.19216,0.00632
1819.13198,0.00614
1817.07181,0.00608
1815.01164,0.00633
1812.95147,0.00653
1810.89129,0.00645
1808.83112,0.00637
1806.77095,0.00641
1804.71078,0.00625
1802.65061,0.00600
1800.59043,0.00612
1798.53026,0.00652
1796.47009,0.00680
1794.40992,0.00685
1792.34975,0.00667
1790.28957,0.00642
1788.22940,0.00639
1786.16923,0.00648
1784.10906,0.00658
1782.04888,0.00677
1779.98871,0.00695
1777.92854,0.00702
1775.86837,0.00710
1773.80820,0.00729
1771.74802,0.00728
1769.68785,0.00696
1767.62768,0.00684
1765.56751,0.00714
1763.50734,0.00751
1761.44716,0.00769
1759.38699,0.00771
1757.32682,0.00774
1755.26665,0.00783
1753.20648,0.00776
1751.14630,0.00751
1749.08613,0.00753
1747.02596,0.00792
1744.96579,0.00823
1742.90561,0.00846
1740.84544,0.00864
1738.78527,0.00869
1736.72510,0.00859
1734.66493,0.00822
1732.60475,0.00790
1730.54458,0.00811
1728.48441,0.00858
1726.42424,0.00889
1724.36407,0.00895
1722.30389,0.00901
1720.24372,0.00919
1718.18355,0.00915
1716.12338,0.00866
1714.06320,0.00845
1712.00303,0.00860
1709.94286,0.00879
1707.88269,0.00884
1705.82252,0.00878
1703.76234,0.00884
1701.70217,0.00924
1699.64200,0.00975
1697.58183,0.01015
1695.52166,0.01076
1693.46148,0.01144
1691.40131,0.01185
1689.34114,0.01227
1687.28097,0.01296
1685.22080,0.01381
1683.16062,0.01447
1681.10045,0.01493
1679.04028,0.01551
1676.98011,0.01632
1674.91993,0.01726
1672.85976,0.01813
1670.79959,0.01884
1668.73942,0.01941
1666.67925,0.01991
1664.61907,0.02043
1662.55890,0.02079
1660.49873,0.02086
1658.43856,0.02103
1656.37839,0.02153
1654.31821,0.02215
1652.25804,0.02244
1650.19787,0.02253
1648.13770,0.02256
1646.07753,0.02240
1644.01735,0.02208
1641.95718,0.02188
1639.89701,0.02189
1637.83684,0.02195
1635.77666,0.02176
1633.71649,0.02136
1631.65632,0.02109
1629.59615,0.02098
1627.53598,0.02096
1625.47580,0.02090
1623.41563,0.02065
1621.35546,0.02035
1619.29529,0.02034
1617.23512,0.02042
1615.17494,0.02015
1613.11477,0.01970
1611.05460,0.01932
1608.99443,0.01906
1606.93425,0.01889
1604.87408,0.01874
1602.81391,0.01857
1600.75374,0.01843
1598.69357,0.01831
1596.63339,0.01810
1594.57322,0.01780
1592.51305,0.01749
1590.45288,0.01722
1588.39271,0.01692
1586.33253,0.01645
1584.27236,0.01582
1582.21219,0.01530
1580.15202,0.01508
1578.09185,0.01493
1576.03167,0.01454
1573.97150,0.01398
1571.91133,0.01357
1569.85116,0.01323
1567.79098,0.01277
1565.73081,0.01234
1563.67064,0.01213
1561.61047,0.01228
1559.55030,0.01237
1557.49012,0.01172
1555.42995,0.01091
1553.36978,0.01038
1551.30961,0.01002
1549.24944,0.00972
1547.18926,0.00945
1545.12909,0.00936
1543.06892,0.00968
1541.00875,0.01015
1538.94858,0.00986
1536.88840,0.00916
1534.82823,0.00871
1532.76806,0.00840
1530.70789,0.00801
1528.64771,0.00764
1526.58754,0.00740
1524.52737,0.00730
1522.46720,0.00701
1520.40703,0.00630
1518.34685,0.00563
1516.28668,0.00526
1514.22651,0.00501
1512.16634,0.00460
1510.10617,0.00395
1508.04599,0.00360
1505.98582,0.00406
1503.92565,0.00463
1501.86548,0.00472
1499.80530,0.00461
1497.74513,0.00452
1495.68496,0.00450
1493.62479,0.00447
1491.56462,0.00415
1489.50444,0.00362
1487.44427,0.00354
1485.38410,0.00391
1483.32393,0.00420
1481.26376,0.00426
1479.20358,0.00417
1477.14341,0.00401
1475.08324,0.00395
1473.02307,0.00414
1470.96290,0.00451
1468.90272,0.00485
1466.84255,0.00522
1464.78238,0.00556
1462.72221,0.00565
1460.66203,0.00553
1458.60186,0.00531
1456.54169,0.00512
1454.48152,0.00521
1452.42135,0.00532
1450.36117,0.00543
1448.30100,0.00567
1446.24083,0.00600
1444.18066,0.00620
1442.12049,0.00620
1440.06031,0.00604
1438.00014,0.00581
1435.93997,0.00571
1433.87980,0.00600
1431.81963,0.00646
1429.75945,0.00688
1427.69928,0.00716
1425.63911,0.00740
1423.57894,0.00765
1421.51876,0.00781
1419.45859,0.00784
1417.39842,0.00809
1415.33825,0.00866
1413.27808,0.00911
1411.21790,0.00929
1409.15773,0.00937
1407.09756,0.00948
1405.03739,0.00962
1402.97722,0.00974
1400.91704,0.00964
1398.85687,0.00929
1396.79670,0.00898
1394.73653,0.00890
1392.67635,0.00895
1390.61618,0.00898
1388.55601,0.00896
1386.49584,0.00912
1384.43567,0.00939
1382.37549,0.00950
1380.31532,0.00937
1378.25515,0.00922
1376.19498,0.00915
1374.13481,0.00914
1372.07463,0.00921
1370.01446,0.00937
1367.95429,0.00952
1365.89412,0.00947
1363.83395,0.00903
1361.77377,0.00859
1359.71360,0.00866
1357.65343,0.00901
1355.59326,0.00920
1353.53308,0.00911
1351.47291,0.00889
1349.41274,0.00866
1347.35257,0.00840
1345.29240,0.00798
1343.23222,0.00728
1341.17205,0.00634
1339.11188,0.00570
1337.05171,0.00581
1334.99154,0.00621
1332.93136,0.00629
1330.87119,0.00612
1328.81102,0.00604
1326.75085,0.00602
1324.69067,0.00592
1322.63050,0.00563
1320.57033,0.00526
1318.51016,0.00500
1316.44999,0.00494
1314.38981,0.00493
1312.32964,0.00487
1310.26947,0.00490
1308.20930,0.00498
1306.14913,0.00499
1304.08895,0.00496
1302.02878,0.00493
1299.96861,0.00484
1297.90844,0.00466
1295.84827,0.00455
1293.78809,0.00454
1291.72792,0.00443
1289.66775,0.00423
1287.60758,0.00416
1285.54740,0.00420
1283.48723,0.00414
1281.42706,0.00397
1279.36689,0.00387
1277.30672,0.00391
1275.24654,0.00395
1273.18637,0.00393
1271.12620,0.00391
1269.06603,0.00386
1267.00586,0.00380
1264.94568,0.00387
1262.88551,0.00400
1260.82534,0.00403
1258.76517,0.00401
1256.70500,0.00398
1254.64482,0.00392
1252.58465,0.00378
1250.52448,0.00368
1248.46431,0.00379
1246.40413,0.00393
1244.34396,0.00386
1242.28379,0.00362
1240.22362,0.00335
1238.16345,0.00312
1236.10327,0.00295
1234.04310,0.00280
1231.98293,0.00266
1229.92276,0.00259
1227.86259,0.00252
1225.80241,0.00228
1223.74224,0.00197
1221.68207,0.00177
1219.62190,0.00162
1217.56172,0.00156
1215.50155,0.00155
1213.44138,0.00149
1211.38121,0.00131
1209.32104,0.00114
1207.26086,0.00122
1205.20069,0.00161
1203.14052,0.00203
1201.08035,0.00234
1199.02018,0.00264
1196.96000,0.00322
1194.89983,0.00405
1192.83966,0.00493
1190.77949,0.00588
1188.71932,0.00694
1186.65914,0.00811
1184.59897,0.00934
1182.53880,0.01066
1180.47863,0.01208
1178.41845,0.01350
1176.35828,0.01485
1174.29811,0.01612
1172.23794,0.01731
1170.17777,0.01848
1168.11759,0.01969
1166.05742,0.02084
1163.99725,0.02188
1161.93708,0.02290
1159.87691,0.02378
1157.81673,0.02455
1155.75656,0.02549
1153.69639,0.02657
1151.63622,0.02749
1149.57605,0.02833
1147.51587,0.02922
1145.45570,0.03006
1143.39553,0.03083
1141.33536,0.03157
1139.27518,0.03221
1137.21501,0.03277
1135.15484,0.03330
1133.09467,0.03382
1131.03450,0.03444
1128.97432,0.03523
1126.91415,0.03606
1124.85398,0.03681
1122.79381,0.03744
1120.73364,0.03809
1118.67346,0.03902
1116.61329,0.04025
1114.55312,0.04150
1112.49295,0.04265
1110.43277,0.04389
1108.37260,0.04523
1106.31243,0.04642
1104.25226,0.04744
1102.19209,0.04853
1100.13191,0.04983
1098.07174,0.05112
1096.01157,0.05223
1093.95140,0.05338
1091.89123,0.05472
1089.83105,0.05596
1087.77088,0.05702
1085.71071,0.05808
1083.65054,0.05917
1081.59037,0.06031
1079.53019,0.06149
1077.47002,0.06252
1075.40985,0.06355
1073.34968,0.06454
1071.28950,0.06496
1069.22933,0.06502
1067.16916,0.06522
1065.10899,0.06529
1063.04882,0.06513
1060.98864,0.06489
1058.92847,0.06438
1056.86830,0.06344
1054.80813,0.06222
1052.74796,0.06105
1050.68778,0.05989
1048.62761,0.05849
1046.56744,0.05684
1044.50727,0.05517
1042.44710,0.05352
1040.38692,0.05183
1038.32675,0.04995
1036.26658,0.04790
1034.20641,0.04594
1032.14623,0.04405
1030.08606,0.04221
1028.02589,0.04044
1025.96572,0.03883
1023.90555,0.03753
1021.84537,0.03621
1019.78520,0.03481
1017.72503,0.03374
1015.66486,0.03305
1013.60469,0.03257
1011.54451,0.03227
1009.48434,0.03204
1007.42417,0.03194
1005.36400,0.03221
1003.30382,0.03295
1001.24365,0.03396
999.18348,0.03500
997.12331,0.03606
995.06314,0.03704
993.00296,0.03786
990.94279,0.03864
988.88262,0.03946
986.82245,0.04026
984.76228,0.04084
982.70210,0.04119
980.64193,0.04152
978.58176,0.04179
976.52159,0.04191
974.46142,0.04188
972.40124,0.04171
970.34107,0.04139
968.28090,0.04093
966.22073,0.04038
964.16055,0.03986
962.10038,0.03943
960.04021,0.03891
957.98004,0.03828
955.91987,0.03758
953.85969,0.03685
951.79952,0.03632
949.73935,0.03594
947.67918,0.03536
945.61901,0.03463
943.55883,0.03393
941.49866,0.03321
939.43849,0.03240
937.37832,0.03164
935.31814,0.03092
933.25797,0.03012
931.19780,0.02916
929.13763,0.02795
927.07746,0.02672
925.01728,0.02560
922.95711,0.02451
920.89694,0.02350
918.83677,0.02254
916.77660,0.02163
914.71642,0.02099
912.65625,0.02039
910.59608,0.01943
908.53591,0.01847
906.47574,0.01804
904.41556,0.01787
902.35539,0.01756
900.29522,0.01719
898.23505,0.01697
896.17487,0.01697
894.11470,0.01720
892.05453,0.01760
889.99436,0.01804
887.93419,0.01853
885.87401,0.01914
883.81384,0.01988
881.75367,0.02075
879.69350,0.02201
877.63333,0.02373
875.57315,0.02529
873.51298,0.02653
871.45281,0.02807
869.39264,0.02982
867.33247,0.03130
865.27229,0.03274
863.21212,0.03430
861.15195,0.03567
859.09178,0.03665
857.03160,0.03748
854.97143,0.03817
852.91126,0.03826
850.85109,0.03782
848.79092,0.03736
846.73074,0.03649
844.67057,0.03514
842.61040,0.03410
840.55023,0.03337
838.49006,0.03234
836.42988,0.03105
834.36971,0.03007
832.30954,0.02926
830.24937,0.02813
828.18919,0.02691
826.12902,0.02588
824.06885,0.02468
822.00868,0.02352
819.94851,0.02280
817.88833,0.02223
815.82816,0.02149
813.76799,0.02058
811.70782,0.01960
809.64765,0.01874
807.58747,0.01805
805.52730,0.01747
803.46713,0.01698
801.40696,0.01637
799.34679,0.01544
797.28661,0.01487
795.22644,0.01498
793.16627,0.01462
791.10610,0.01382
789.04592,0.01353
786.98575,0.01362
784.92558,0.01365
782.86541,0.01353
780.80524,0.01318
778.74506,0.01261
776.68489,0.01202
774.62472,0.01158
772.56455,0.01133
770.50438,0.01117
768.44420,0.01084
766.38403,0.01037
764.32386,0.01034
762.26369,0.01061
760.20352,0.01034
758.14334,0.00976
756.08317,0.00936
754.02300,0.00912
751.96283,0.00924
749.90265,0.00923
747.84248,0.00842
745.78231,0.00748
743.72214,0.00743
741.66197,0.00786
739.60179,0.00819
737.54162,0.00834
735.48145,0.00811
733.42128,0.00766
731.36111,0.00759
729.30093,0.00789
727.24076,0.00810
725.18059,0.00778
723.12042,0.00721
721.06024,0.00680
719.00007,0.00708
716.93990,0.00721
714.87973,0.00691
712.81956,0.00678
710.75938,0.00683
708.69921,0.00686
706.63904,0.00683
704.57887,0.00659
702.51870,0.00619
700.45852,0.00594
698.39835,0.00607
696.33818,0.00669
694.27801,0.00750
692.21784,0.00779
690.15766,0.00723
688.09749,0.00649
686.03732,0.00673
683.97715,0.00789
681.91697,0.00886
679.85680,0.00895
677.79663,0.00841
675.73646,0.00800
673.67629,0.00808
671.61611,0.00808
669.55594,0.00637
667.49577,0.00522
665.43560,0.00812
663.37543,0.00765
661.31525,0.00668
659.25508,0.00624
657.19491,0.00587
655.13474,0.00571
653.07457,0.00564
651.01439,0.00543
648.95422,0.00544
646.89405,0.00562
644.83388,0.00525
642.77370,0.00502
640.71353,0.00544
638.65336,0.00527
636.59319,0.00402
634.53302,0.00338
632.47284,0.00401
630.41267,0.00452
628.35250,0.00435
626.29233,0.00397
624.23216,0.00374
622.17198,0.00423
620.11181,0.00467
618.05164,0.00463
615.99147,0.00447
613.93129,0.00470
611.87112,0.00442
609.81095,0.00318
607.75078,0.00266
605.69061,0.00264
603.63043,0.00146
601.57026,0.00025
599.51009,0.00000
