3996.73391,0.00066
3994.67373,0.00070
3992.61356,0.00088
3990.55339,0.00114
3988.49322,0.00111
3986.43305,0.00078
3984.37287,0.00063
3982.31270,0.00085
3980.25253,0.00116
3978.19236,0.00120
3976.13219,0.00084
3974.07201,0.00032
3972.01184,0.00001
3969.95167,0.00000
3967.89150,0.00014
3965.83133,0.00042
3963.77115,0.00084
3961.71098,0.00113
3959.65081,0.00125
3957.59064,0.00143
3955.53046,0.00162
3953.47029,0.00160
3951.41012,0.00146
3949.34995,0.00130
3947.28978,0.00115
3945.22960,0.00107
3943.16943,0.00107
3941.10926,0.00126
3939.04909,0.00157
3936.98892,0.00174
3934.92874,0.00168
3932.86857,0.00146
3930.80840,0.00138
3928.74823,0.00148
3926.68805,0.00140
3924.62788,0.00118
3922.56771,0.00128
3920.50754,0.00161
3918.44737,0.00156
3916.38719,0.00113
3914.32702,0.00100
3912.26685,0.00119
3910.20668,0.00144
3908.14651,0.00212
3906.08633,0.00309
3904.02616,0.00316
3901.96599,0.00222
3899.90582,0.00163
3897.84565,0.00192
3895.78547,0.00256
3893.72530,0.00275
3891.66513,0.00208
3889.60496,0.00150
3887.54478,0.00166
3885.48461,0.00164
3883.42444,0.00134
3881.36427,0.00143
3879.30410,0.00178
3877.24392,0.00230
3875.18375,0.00276
3873.12358,0.00270
3871.06341,0.00208
3869.00324,0.00163
3866.94306,0.00223
3864.88289,0.00303
3862.82272,0.00275
3860.76255,0.00212
3858.70237,0.00254
3856.64220,0.00364
3854.58203,0.00334
3852.52186,0.00108
3850.46169,0.00000
3848.40151,0.00105
3846.34134,0.00250
3844.28117,0.00303
3842.22100,0.00293
3840.16083,0.00291
3838.10065,0.00287
3836.04048,0.00276
3833.98031,0.00271
3831.92014,0.00267
3829.85997,0.00286
3827.79979,0.00319
3825.73962,0.00317
3823.67945,0.00254
3821.61928,0.00156
3819.55910,0.00125
3817.49893,0.00171
3815.43876,0.00188
3813.37859,0.00197
3811.31842,0.00242
3809.25824,0.00294
3807.19807,0.00322
3805.13790,0.00314
3803.07773,0.00268
3801.01756,0.00215
3798.95738,0.00251
3796.89721,0.00316
3794.83704,0.00310
3792.77687,0.00291
3790.71670,0.00294
3788.65652,0.00297
3786.59635,0.00301
3784.53618,0.00309
3782.47601,0.00323
3780.41583,0.00327
3778.35566,0.00293
3776.29549,0.00276
3774.23532,0.00310
3772.17515,0.00345
3770.11497,0.00340
3768.05480,0.00328
3765.99463,0.00358
3763.93446,0.00406
3761.87429,0.00407
3759.81411,0.00320
3757.75394,0.00229
3755.69377,0.00257
3753.63360,0.00340
3751.57342,0.00341
3749.51325,0.00295
3747.45308,0.00330
3745.39291,0.00360
3743.33274,0.00304
3741.27256,0.00290
3739.21239,0.00318
3737.15222,0.00239
3735.09205,0.00065
3733.03188,0.00010
3730.97170,0.00110
3728.91153,0.00212
3726.85136,0.00221
3724.79119,0.00159
3722.73102,0.00125
3720.67084,0.00149
3718.61067,0.00192
3716.55050,0.00222
3714.49033,0.00236
3712.43015,0.00214
3710.36998,0.00176
3708.30981,0.00186
3706.24964,0.00239
3704.18947,0.00275
3702.12929,0.00237
3700.06912,0.00167
3698.00895,0.00159
3695.94878,0.00207
3693.88861,0.00261
3691.82843,0.00277
3689.76826,0.00253
3687.70809,0.00272
3685.64792,0.00359
3683.58775,0.00427
3681.52757,0.00413
3679.46740,0.00338
3677.40723,0.00269
3675.34706,0.00266
3673.28688,0.00347
3671.22671,0.00401
3669.16654,0.00358
3667.10637,0.00341
3665.04620,0.00396
3662.98602,0.00447
3660.92585,0.00475
3658.86568,0.00480
3656.80551,0.00458
3654.74534,0.00493
3652.68516,0.00619
3650.62499,0.00679
3648.56482,0.00573
3646.50465,0.00476
3644.44447,0.00487
3642.38430,0.00537
3640.32413,0.00572
3638.26396,0.00573
3636.20379,0.00576
3634.14361,0.00656
3632.08344,0.00791
3630.02327,0.00856
3627.96310,0.00853
3625.90293,0.00914
3623.84275,0.00988
3621.78258,0.00973
3619.72241,0.00873
3617.66224,0.00787
3615.60207,0.00795
3613.54189,0.00872
3611.48172,0.00942
3609.42155,0.00947
3607.36138,0.00944
3605.30120,0.01001
3603.24103,0.01083
3601.18086,0.01139
3599.12069,0.01139
3597.06052,0.01088
3595.00034,0.01055
3592.94017,0.01113
3590.88000,0.01205
3588.81983,0.01215
3586.75966,0.01156
3584.69948,0.01141
3582.63931,0.01179
3580.57914,0.01216
3578.51897,0.01236
3576.45879,0.01258
3574.39862,0.01305
3572.33845,0.01350
3570.27828,0.01328
3568.21811,0.01244
3566.15793,0.01217
3564.09776,0.01298
3562.03759,0.01396
3559.97742,0.01476
3557.91725,0.01558
3555.85707,0.01622
3553.79690,0.01648
3551.73673,0.01645
3549.67656,0.01614
3547.61639,0.01566
3545.55621,0.01542
3543.49604,0.01572
3541.43587,0.01645
3539.37570,0.01702
3537.31552,0.01689
3535.25535,0.01639
3533.19518,0.01636
3531.13501,0.01687
3529.07484,0.01750
3527.01466,0.01799
3524.95449,0.01829
3522.89432,0.01862
3520.83415,0.01900
3518.77398,0.01903
3516.71380,0.01863
3514.65363,0.01841
3512.59346,0.01873
3510.53329,0.01940
3508.47312,0.02015
3506.41294,0.02072
3504.35277,0.02097
3502.29260,0.02103
3500.23243,0.02103
3498.17225,0.02087
3496.11208,0.02070
3494.05191,0.02106
3491.99174,0.02165
3489.93157,0.02180
3487.87139,0.02178
3485.81122,0.02204
3483.75105,0.02234
3481.69088,0.02239
3479.63071,0.02236
3477.57053,0.02230
3475.51036,0.02215
3473.45019,0.02205
3471.39002,0.02216
3469.32984,0.02257
3467.26967,0.02298
3465.20950,0.02328
3463.14933,0.02376
3461.08916,0.02415
3459.02898,0.02422
3456.96881,0.02446
3454.90864,0.02497
3452.84847,0.02523
3450.78830,0.02490
3448.72812,0.02428
3446.66795,0.02394
3444.60778,0.02415
3442.54761,0.02475
3440.48744,0.02541
3438.42726,0.02576
3436.36709,0.02591
3434.30692,0.02608
3432.24675,0.02599
3430.18657,0.02587
3428.12640,0.02598
3426.06623,0.02603
3424.00606,0.02620
3421.94589,0.02660
3419.88571,0.02683
3417.82554,0.02687
3415.76537,0.02685
3413.70520,0.02686
3411.64503,0.02722
3409.58485,0.02759
3407.52468,0.02734
3405.46451,0.02702
3403.40434,0.02730
3401.34416,0.02771
3399.28399,0.02797
3397.22382,0.02817
3395.16365,0.02834
3393.10348,0.02842
3391.04330,0.02857
3388.98313,0.02865
3386.92296,0.02849
3384.86279,0.02836
3382.80262,0.02843
3380.74244,0.02850
3378.68227,0.02853
3376.62210,0.02852
3374.56193,0.02827
3372.50176,0.02816
3370.44158,0.02877
3368.38141,0.02949
3366.32124,0.02986
3364.26107,0.03004
3362.20089,0.02982
3360.14072,0.02962
3358.08055,0.02993
3356.02038,0.03010
3353.96021,0.02982
3351.90003,0.02971
3349.83986,0.02978
3347.77969,0.02951
3345.71952,0.02931
3343.65935,0.02971
3341.59917,0.03022
3339.53900,0.03028
3337.47883,0.03020
3335.41866,0.03018
3333.35849,0.03003
3331.29831,0.03018
3329.23814,0.03065
3327.17797,0.03070
3325.11780,0.03044
3323.05762,0.03041
3320.99745,0.03071
3318.93728,0.03094
3316.87711,0.03065
3314.81694,0.03017
3312.75676,0.03013
3310.69659,0.03033
3308.63642,0.03038
3306.57625,0.03032
3304.51608,0.03025
3302.45590,0.03038
3300.39573,0.03063
3298.33556,0.03063
3296.27539,0.03065
3294.21521,0.03096
3292.15504,0.03106
3290.09487,0.03085
3288.03470,0.03078
3285.97453,0.03081
3283.91435,0.03072
3281.85418,0.03078
3279.79401,0.03093
3277.73384,0.03075
3275.67367,0.03064
3273.61349,0.03110
3271.55332,0.03148
3269.49315,0.03129
3267.43298,0.03105
3265.37281,0.03097
3263.31263,0.03076
3261.25246,0.03064
3259.19229,0.03082
3257.13212,0.03108
3255.07194,0.03123
3253.01177,0.03111
3250.95160,0.03094
3248.89143,0.03099
3246.83126,0.03109
3244.77108,0.03099
3242.71091,0.03079
3240.65074,0.03089
3238.59057,0.03126
3236.53040,0.03136
3234.47022,0.03123
3232.41005,0.03121
3230.34988,0.03122
3228.28971,0.03109
3226.22954,0.03090
3224.16936,0.03087
3222.10919,0.03104
3220.04902,0.03119
3217.98885,0.03111
3215.92867,0.03092
3213.86850,0.03108
3211.80833,0.03157
3209.74816,0.03184
3207.68799,0.03174
3205.62781,0.03173
3203.56764,0.03193
3201.50747,0.03192
3199.44730,0.03171
3197.38713,0.03156
3195.32695,0.03117
3193.26678,0.03063
3191.20661,0.03048
3189.14644,0.03066
3187.08626,0.03100
3185.02609,0.03145
3182.96592,0.03160
3180.90575,0.03125
3178.84558,0.03081
3176.78540,0.03071
3174.72523,0.03095
3172.66506,0.03124
3170.60489,0.03133
3168.54472,0.03118
3166.48454,0.03098
3164.42437,0.03095
3162.36420,0.03124
3160.30403,0.03143
3158.24386,0.03106
3156.18368,0.03063
3154.12351,0.03055
3152.06334,0.03050
3150.00317,0.03029
3147.94299,0.03022
3145.88282,0.03020
3143.82265,0.02991
3141.76248,0.02976
3139.70231,0.02992
3137.64213,0.02975
3135.58196,0.02922
3133.52179,0.02910
3131.46162,0.02941
3129.40145,0.02963
3127.34127,0.02972
3125.28110,0.02958
3123.22093,0.02923
3121.16076,0.02914
3119.10058,0.02933
3117.04041,0.02944
3114.98024,0.02953
3112.92007,0.02959
3110.85990,0.02948
3108.79972,0.02945
3106.73955,0.02969
3104.67938,0.02985
3102.61921,0.02973
3100.55904,0.02935
3098.49886,0.02896
3096.43869,0.02885
3094.37852,0.02883
3092.31835,0.02870
3090.25818,0.02859
3088.19800,0.02838
3086.13783,0.02801
3084.07766,0.02793
3082.01749,0.02812
3079.95731,0.02816
3077.89714,0.02801
3075.83697,0.02786
3073.77680,0.02802
3071.71663,0.02836
3069.65645,0.02838
3067.59628,0.02806
3065.53611,0.02760
3063.47594,0.02713
3061.41577,0.02688
3059.35559,0.02679
3057.29542,0.02664
3055.23525,0.02651
3053.17508,0.02641
3051.11491,0.02630
3049.05473,0.02624
3046.99456,0.02616
3044.93439,0.02592
3042.87422,0.02566
3040.81404,0.02556
3038.75387,0.02553
3036.69370,0.02555
3034.63353,0.02547
3032.57336,0.02530
3030.51318,0.02531
3028.45301,0.02546
3026.39284,0.02546
3024.33267,0.02533
3022.27250,0.02512
3020.21232,0.02474
3018.15215,0.02439
3016.09198,0.02430
3014.03181,0.02438
3011.97163,0.02448
3009.91146,0.02455
3007.85129,0.02435
3005.79112,0.02388
3003.73095,0.02347
3001.67077,0.02334
2999.61060,0.02328
2997.55043,0.02309
2995.49026,0.02306
2993.43009,0.02332
2991.36991,0.02337
2989.30974,0.02322
2987.24957,0.02325
2985.18940,0.02323
2983.12923,0.02292
2981.06905,0.02262
2979.00888,0.02259
2976.94871,0.02271
2974.88854,0.02262
2972.82836,0.02235
2970.76819,0.02215
2968.70802,0.02211
2966.64785,0.02220
2964.58768,0.02216
2962.52750,0.02176
2960.46733,0.02143
2958.40716,0.02164
2956.34699,0.02189
2954.28682,0.02173
2952.22664,0.02151
2950.16647,0.02128
2948.10630,0.02082
2946.04613,0.02030
2943.98596,0.02005
2941.92578,0.02011
2939.86561,0.02048
2937.80544,0.02089
2935.74527,0.02069
2933.68509,0.02003
2931.62492,0.01971
2929.56475,0.01979
2927.50458,0.01979
2925.44441,0.01960
2923.38423,0.01944
2921.32406,0.01935
2919.26389,0.01927
2917.20372,0.01916
2915.14355,0.01901
2913.08337,0.01896
2911.02320,0.01907
2908.96303,0.01898
2906.90286,0.01864
2904.84268,0.01835
2902.78251,0.01811
2900.72234,0.01775
2898.66217,0.01750
2896.60200,0.01771
2894.54182,0.01807
2892.48165,0.01817
2890.42148,0.01809
2888.36131,0.01783
2886.30114,0.01735
2884.24096,0.01719
2882.18079,0.01752
2880.12062,0.01760
2878.06045,0.01721
2876.00028,0.01686
2873.94010,0.01676
2871.87993,0.01662
2869.81976,0.01645
2867.75959,0.01639
2865.69941,0.01630
2863.63924,0.01630
2861.57907,0.01651
2859.51890,0.01645
2857.45873,0.01580
2855.39855,0.01519
2853.33838,0.01514
2851.27821,0.01519
2849.21804,0.01499
2847.15787,0.01481
2845.09769,0.01479
2843.03752,0.01479
2840.97735,0.01491
2838.91718,0.01514
2836.85700,0.01517
2834.79683,0.01478
2832.73666,0.01422
2830.67649,0.01404
2828.61632,0.01431
2826.55614,0.01436
2824.49597,0.01383
2822.43580,0.01344
2820.37563,0.01353
2818.31546,0.01375
2816.25528,0.01403
2814.19511,0.01429
2812.13494,0.01419
2810.07477,0.01375
2808.01460,0.01333
2805.95442,0.01327
2803.89425,0.01340
2801.83408,0.01328
2799.77391,0.01306
2797.71373,0.01301
2795.65356,0.01294
2793.59339,0.01268
2791.53322,0.01229
2789.47305,0.01188
2787.41287,0.01166
2785.35270,0.01184
2783.29253,0.01220
2781.23236,0.01234
2779.17219,0.01235
2777.11201,0.01245
2775.05184,0.01250
2772.99167,0.01222
2770.93150,0.01190
2768.87133,0.01194
2766.81115,0.01209
2764.75098,0.01190
2762.69081,0.01152
2760.63064,0.01127
2758.57046,0.01104
2756.51029,0.01099
2754.45012,0.01125
2752.38995,0.01138
2750.32978,0.01108
2748.26960,0.01054
2746.20943,0.01015
2744.14926,0.01034
2742.08909,0.01088
2740.02892,0.01102
2737.96874,0.01070
2735.90857,0.01034
2733.84840,0.01024
2731.78823,0.01037
2729.72805,0.01028
2727.66788,0.00999
2725.60771,0.00989
2723.54754,0.01000
2721.48737,0.01018
2719.42719,0.01021
2717.36702,0.01003
2715.30685,0.00984
2713.24668,0.00961
2711.18651,0.00934
2709.12633,0.00912
2707.06616,0.00895
2705.00599,0.00897
2702.94582,0.00917
2700.88565,0.00938
2698.82547,0.00941
2696.76530,0.00923
2694.70513,0.00910
2692.64496,0.00899
2690.58478,0.00876
2688.52461,0.00871
2686.46444,0.00886
2684.40427,0.00880
2682.34410,0.00851
2680.28392,0.00843
2678.22375,0.00871
2676.16358,0.00883
2674.10341,0.00852
2672.04324,0.00815
2669.98306,0.00801
2667.92289,0.00796
2665.86272,0.00788
2663.80255,0.00798
2661.74238,0.00836
2659.68220,0.00879
2657.62203,0.00891
2655.56186,0.00871
2653.50169,0.00845
2651.44151,0.00809
2649.38134,0.00755
2647.32117,0.00734
2645.26100,0.00765
2643.20083,0.00803
2641.14065,0.00800
2639.08048,0.00768
2637.02031,0.00751
2634.96014,0.00740
2632.89997,0.00738
2630.83979,0.00755
2628.77962,0.00743
2626.71945,0.00716
2624.65928,0.00724
2622.59910,0.00744
2620.53893,0.00735
2618.47876,0.00699
2616.41859,0.00681
2614.35842,0.00680
2612.29824,0.00646
2610.23807,0.00614
2608.17790,0.00636
2606.11773,0.00677
2604.05756,0.00689
2601.99738,0.00666
2599.93721,0.00629
2597.87704,0.00615
2595.81687,0.00634
2593.75670,0.00680
2591.69652,0.00730
2589.63635,0.00743
2587.57618,0.00718
2585.51601,0.00687
2583.45583,0.00673
2581.39566,0.00672
2579.33549,0.00654
2577.27532,0.00631
2575.21515,0.00653
2573.15497,0.00697
2571.09480,0.00719
2569.03463,0.00723
2566.97446,0.00706
2564.91429,0.00683
2562.85411,0.00683
2560.79394,0.00688
2558.73377,0.00668
2556.67360,0.00648
2554.61342,0.00646
2552.55325,0.00663
2550.49308,0.00695
2548.43291,0.00702
2546.37274,0.00667
2544.31256,0.00608
2542.25239,0.00561
2540.19222,0.00567
2538.13205,0.00588
2536.07188,0.00600
2534.01170,0.00609
2531.95153,0.00588
2529.89136,0.00569
2527.83119,0.00592
2525.77102,0.00626
2523.71084,0.00643
2521.65067,0.00631
2519.59050,0.00630
2517.53033,0.00696
2515.47015,0.00764
2513.40998,0.00744
2511.34981,0.00682
2509.28964,0.00655
2507.22947,0.00648
2505.16929,0.00615
2503.10912,0.00578
2501.04895,0.00561
2498.98878,0.00549
2496.92861,0.00560
2494.86843,0.00575
2492.80826,0.00588
2490.74809,0.00630
2488.68792,0.00648
2486.62775,0.00638
2484.56757,0.00639
2482.50740,0.00620
2480.44723,0.00596
2478.38706,0.00603
2476.32688,0.00624
2474.26671,0.00613
2472.20654,0.00570
2470.14637,0.00570
2468.08620,0.00640
2466.02602,0.00690
2463.96585,0.00671
2461.90568,0.00653
2459.84551,0.00667
2457.78534,0.00700
2455.72516,0.00727
2453.66499,0.00703
2451.60482,0.00657
2449.54465,0.00646
2447.48447,0.00673
2445.42430,0.00725
2443.36413,0.00771
2441.30396,0.00766
2439.24379,0.00720
2437.18361,0.00693
2435.12344,0.00692
2433.06327,0.00679
2431.00310,0.00684
2428.94293,0.00707
2426.88275,0.00689
2424.82258,0.00674
2422.76241,0.00719
2420.70224,0.00774
2418.64207,0.00785
2416.58189,0.00760
2414.52172,0.00707
2412.46155,0.00675
2410.40138,0.00704
2408.34120,0.00725
2406.28103,0.00707
2404.22086,0.00707
2402.16069,0.00739
2400.10052,0.00755
2398.04034,0.00707
2395.98017,0.00647
2393.92000,0.00621
2391.85983,0.00613
2389.79966,0.00603
2387.73948,0.00619
2385.67931,0.00675
2383.61914,0.00737
2381.55897,0.00761
2379.49880,0.00742
2377.43862,0.00682
2375.37845,0.00596
2373.31828,0.00538
2371.25811,0.00576
2369.19793,0.00737
2367.13776,0.00967
2365.07759,0.01176
2363.01742,0.01272
2360.95725,0.01050
2358.89707,0.00678
2356.83690,0.00417
2354.77673,0.00408
2352.71656,0.00582
2350.65639,0.00680
2348.59621,0.00684
2346.53604,0.00668
2344.47587,0.00444
2342.41570,0.00334
2340.35552,0.00412
2338.29535,0.00487
2336.23518,0.00545
2334.17501,0.00587
2332.11484,0.00617
2330.05466,0.00655
2327.99449,0.00759
2325.93432,0.00826
2323.87415,0.00811
2321.81398,0.00743
2319.75380,0.00732
2317.69363,0.00737
2315.63346,0.00738
2313.57329,0.00719
2311.51312,0.00679
2309.45294,0.00651
2307.39277,0.00643
2305.33260,0.00647
2303.27243,0.00669
2301.21225,0.00718
2299.15208,0.00788
2297.09191,0.00854
2295.03174,0.00858
2292.97157,0.00804
2290.91139,0.00757
2288.85122,0.00735
2286.79105,0.00724
2284.73088,0.00732
2282.67071,0.00752
2280.61053,0.00734
2278.55036,0.00651
2276.49019,0.00565
2274.43002,0.00539
2272.36984,0.00557
2270.30967,0.00598
2268.24950,0.00635
2266.18933,0.00613
2264.12916,0.00548
2262.06898,0.00523
2260.00881,0.00580
2257.94864,0.00707
2255.88847,0.00794
2253.82830,0.00765
2251.76812,0.00702
2249.70795,0.00673
2247.64778,0.00699
2245.58761,0.00719
2243.52744,0.00692
2241.46726,0.00676
2239.40709,0.00687
2237.34692,0.00700
2235.28675,0.00707
2233.22657,0.00707
2231.16640,0.00639
2229.10623,0.00526
2227.04606,0.00506
2224.98589,0.00539
2222.92571,0.00561
2220.86554,0.00622
2218.80537,0.00628
2216.74520,0.00565
2214.68503,0.00557
2212.62485,0.00582
2210.56468,0.00609
2208.50451,0.00668
2206.44434,0.00727
2204.38417,0.00747
2202.32399,0.00741
2200.26382,0.00655
2198.20365,0.00468
2196.14348,0.00304
2194.08330,0.00263
2192.02313,0.00393
2189.96296,0.00561
2187.90279,0.00524
2185.84262,0.00440
2183.78244,0.00497
2181.72227,0.00548
2179.66210,0.00619
2177.60193,0.00833
2175.54176,0.01016
2173.48158,0.01000
2171.42141,0.00814
2169.36124,0.00565
2167.30107,0.00459
2165.24089,0.00469
2163.18072,0.00504
2161.12055,0.00672
2159.06038,0.00770
2157.00021,0.00594
2154.94003,0.00430
2152.87986,0.00461
2150.81969,0.00511
2148.75952,0.00452
2146.69935,0.00387
2144.63917,0.00314
2142.57900,0.00195
2140.51883,0.00183
2138.45866,0.00264
2136.39849,0.00251
2134.33831,0.00149
2132.27814,0.00175
2130.21797,0.00381
2128.15780,0.00502
2126.09762,0.00445
2124.03745,0.00388
2121.97728,0.00423
2119.91711,0.00494
2117.85694,0.00538
2115.79676,0.00538
2113.73659,0.00503
2111.67642,0.00500
2109.61625,0.00516
2107.55608,0.00474
2105.49590,0.00411
2103.43573,0.00404
2101.37556,0.00433
2099.31539,0.00404
2097.25521,0.00358
2095.19504,0.00375
2093.13487,0.00398
2091.07470,0.00413
2089.01453,0.00472
2086.95435,0.00564
2084.89418,0.00627
2082.83401,0.00630
2080.77384,0.00572
2078.71367,0.00453
2076.65349,0.00363
2074.59332,0.00345
2072.53315,0.00382
2070.47298,0.00493
2068.41281,0.00568
2066.35263,0.00503
2064.29246,0.00385
2062.23229,0.00320
2060.17212,0.00341
2058.11194,0.00349
2056.05177,0.00250
2053.99160,0.00213
2051.93143,0.00297
2049.87126,0.00311
2047.81108,0.00284
2045.75091,0.00378
2043.69074,0.00474
2041.63057,0.00514
2039.57040,0.00590
2037.51022,0.00602
2035.45005,0.00488
2033.38988,0.00310
2031.32971,0.00210
2029.26954,0.00286
2027.20936,0.00354
2025.14919,0.00347
2023.08902,0.00389
2021.02885,0.00394
2018.96867,0.00302
2016.90850,0.00217
2014.84833,0.00158
2012.78816,0.00097
2010.72799,0.00062
2008.66781,0.00105
2006.60764,0.00224
2004.54747,0.00260
2002.48730,0.00156
2000.42713,0.00091
1998.36695,0.00109
1996.30678,0.00143
1994.24661,0.00180
1992.18644,0.00143
1990.12626,0.00020
1988.06609,0.00000
1986.00592,0.00157
1983.94575,0.00359
1981.88558,0.00487
1979.82540,0.00467
1977.76523,0.00372
1975.70506,0.00426
1973.64489,0.00545
1971.58472,0.00494
1969.52454,0.00324
1967.46437,0.00202
1965.40420,0.00123
1963.34403,0.00039
1961.28386,0.00062
1959.22368,0.00156
1957.16351,0.00137
1955.10334,0.00091
1953.04317,0.00188
1950.98299,0.00325
1948.92282,0.00309
1946.86265,0.00210
1944.80248,0.00231
1942.74231,0.00372
1940.68213,0.00405
1938.62196,0.00254
1936.56179,0.00121
1934.50162,0.00129
1932.44145,0.00187
1930.38127,0.00172
1928.32110,0.00123
1926.26093,0.00156
1924.20076,0.00252
1922.14059,0.00287
1920.08041,0.00229
1918.02024,0.00167
1915.96007,0.00164
1913.89990,0.00209
1911.83972,0.00251
1909.77955,0.00245
1907.71938,0.00224
1905.65921,0.00261
1903.59904,0.00327
1901.53886,0.00358
1899.47869,0.00365
1897.41852,0.00357
1895.35835,0.00340
1893.29818,0.00337
1891.23800,0.00326
1889.17783,0.00296
1887.11766,0.00281
1885.05749,0.00298
1882.99731,0.00326
1880.93714,0.00326
1878.87697,0.00293
1876.81680,0.00263
1874.75663,0.00255
1872.69645,0.00241
1870.63628,0.00194
1868.57611,0.00154
1866.51594,0.00178
1864.45577,0.00220
1862.39559,0.00234
1860.33542,0.00228
1858.27525,0.00215
1856.21508,0.00206
1854.15491,0.00199
1852.09473,0.00183
1850.03456,0.00162
1847.97439,0.00157
1845.91422,0.00160
1843.85404,0.00162
1841.79387,0.00181
1839.73370,0.00204
1837.67353,0.00215
1835.61336,0.00227
1833.55318,0.00227
1831.49301,0.00214
1829.43284,0.00224
1827.37267,0.00264
1825.31250,0.00297
1823.25232,0.00296
1821.19215,0.00277
1819.13198,0.00260
1817.07181,0.00237
1815.01163,0.00210
1812.95146,0.00191
1810.89129,0.00194
1808.83112,0.00218
1806.77095,0.00237
1804.71077,0.00233
1802.65060,0.00209
1800.59043,0.00204
1798.53026,0.00225
1796.47009,0.00242
1794.40991,0.00256
1792.34974,0.00282
1790.28957,0.00302
1788.22940,0.00305
1786.16923,0.00296
1784.10905,0.00272
1782.04888,0.00237
1779.98871,0.00230
1777.92854,0.00264
1775.86836,0.00285
1773.80819,0.00262
1771.74802,0.00252
1769.68785,0.00291
1767.62768,0.00315
1765.56750,0.00303
1763.50733,0.00297
1761.44716,0.00313
1759.38699,0.00338
1757.32682,0.00357
1755.26664,0.00351
1753.20647,0.00329
1751.14630,0.00304
1749.08613,0.00289
1747.02596,0.00303
1744.96578,0.00333
1742.90561,0.00359
1740.84544,0.00387
1738.78527,0.00425
1736.72509,0.00453
1734.66492,0.00432
1732.60475,0.00380
1730.54458,0.00379
1728.48441,0.00435
1726.42423,0.00484
1724.36406,0.00503
1722.30389,0.00512
1720.24372,0.00509
1718.18355,0.00480
1716.12337,0.00463
1714.06320,0.00484
1712.00303,0.00523
1709.94286,0.00559
1707.88268,0.00567
1705.82251,0.00540
1703.76234,0.00518
1701.70217,0.00549
1699.64200,0.00624
1697.58182,0.00688
1695.52165,0.00746
1693.46148,0.00826
1691.40131,0.00898
1689.34114,0.00944
1687.28096,0.00968
1685.22079,0.00974
1683.16062,0.00993
1681.10045,0.01062
1679.04028,0.01136
1676.98010,0.01174
1674.91993,0.01187
1672.85976,0.01206
1670.79959,0.01243
1668.73941,0.01291
1666.67924,0.01330
1664.61907,0.01359
1662.55890,0.01394
1660.49873,0.01441
1658.43855,0.01488
1656.37838,0.01524
1654.31821,0.01532
1652.25804,0.01495
1650.19787,0.01439
1648.13769,0.01388
1646.07752,0.01385
1644.01735,0.01434
1641.95718,0.01466
1639.89701,0.01458
1637.83683,0.01429
1635.77666,0.01402
1633.71649,0.01399
1631.65632,0.01396
1629.59614,0.01370
1627.53597,0.01321
1625.47580,0.01254
1623.41563,0.01174
1621.35546,0.01121
1619.29528,0.01107
1617.23511,0.01092
1615.17494,0.01066
1613.11477,0.01041
1611.05460,0.01013
1608.99442,0.00984
1606.93425,0.00963
1604.87408,0.00949
1602.81391,0.00938
1600.75373,0.00923
1598.69356,0.00901
1596.63339,0.00872
1594.57322,0.00836
1592.51305,0.00810
1590.45287,0.00813
1588.39270,0.00835
1586.33253,0.00831
1584.27236,0.00793
1582.21219,0.00747
1580.15201,0.00708
1578.09184,0.00670
1576.03167,0.00653
1573.97150,0.00662
1571.91133,0.00658
1569.85115,0.00642
1567.79098,0.00640
1565.73081,0.00644
1563.67064,0.00639
1561.61046,0.00598
1559.55029,0.00491
1557.49012,0.00412
1555.42995,0.00457
1553.36978,0.00529
1551.30960,0.00561
1549.24943,0.00557
1547.18926,0.00529
1545.12909,0.00483
1543.06892,0.00433
1541.00874,0.00404
1538.94857,0.00423
1536.88840,0.00457
1534.82823,0.00460
1532.76805,0.00453
1530.70788,0.00473
1528.64771,0.00486
1526.58754,0.00453
1524.52737,0.00394
1522.46719,0.00347
1520.40702,0.00334
1518.34685,0.00329
1516.28668,0.00318
1514.22651,0.00322
1512.16633,0.00325
1510.10616,0.00281
1508.04599,0.00185
1505.98582,0.00139
1503.92565,0.00204
1501.86547,0.00267
1499.80530,0.00267
1497.74513,0.00237
1495.68496,0.00241
1493.62478,0.00272
1491.56461,0.00267
1489.50444,0.00218
1487.44427,0.00196
1485.38410,0.00226
1483.32392,0.00267
1481.26375,0.00282
1479.20358,0.00265
1477.14341,0.00223
1475.08324,0.00175
1473.02306,0.00161
1470.96289,0.00190
1468.90272,0.00225
1466.84255,0.00241
1464.78238,0.00245
1462.72220,0.00253
1460.66203,0.00247
1458.60186,0.00194
1456.54169,0.00131
1454.48151,0.00144
1452.42134,0.00201
1450.36117,0.00239
1448.30100,0.00253
1446.24083,0.00268
1444.18065,0.00280
1442.12048,0.00276
1440.06031,0.00255
1438.00014,0.00225
1435.93997,0.00194
1433.87979,0.00178
1431.81962,0.00178
1429.75945,0.00190
1427.69928,0.00212
1425.63910,0.00233
1423.57893,0.00248
1421.51876,0.00248
1419.45859,0.00230
1417.39842,0.00219
1415.33824,0.00232
1413.27807,0.00248
1411.21790,0.00246
1409.15773,0.00233
1407.09756,0.00231
1405.03738,0.00238
1402.97721,0.00240
1400.91704,0.00219
1398.85687,0.00166
1396.79670,0.00106
1394.73652,0.00083
1392.67635,0.00109
1390.61618,0.00136
1388.55601,0.00122
1386.49583,0.00099
1384.43566,0.00110
1382.37549,0.00135
1380.31532,0.00145
1378.25515,0.00138
1376.19497,0.00132
1374.13480,0.00133
1372.07463,0.00133
1370.01446,0.00124
1367.95429,0.00110
1365.89411,0.00091
1363.83394,0.00067
1361.77377,0.00056
1359.71360,0.00067
1357.65343,0.00072
1355.59325,0.00063
1353.53308,0.00054
1351.47291,0.00044
1349.41274,0.00032
1347.35256,0.00033
1345.29239,0.00042
1343.23222,0.00042
1341.17205,0.00038
1339.11188,0.00052
1337.05170,0.00081
1334.99153,0.00095
1332.93136,0.00094
1330.87119,0.00097
1328.81102,0.00100
1326.75084,0.00097
1324.69067,0.00095
1322.63050,0.00091
1320.57033,0.00088
1318.51015,0.00097
1316.44998,0.00106
1314.38981,0.00107
1312.32964,0.00107
1310.26947,0.00109
1308.20929,0.00117
1306.14912,0.00127
1304.08895,0.00128
1302.02878,0.00133
1299.96861,0.00146
1297.90843,0.00156
1295.84826,0.00159
1293.78809,0.00162
1291.72792,0.00180
1289.66775,0.00213
1287.60757,0.00233
1285.54740,0.00229
1283.48723,0.00231
1281.42706,0.00241
1279.36688,0.00244
1277.30671,0.00241
1275.24654,0.00239
1273.18637,0.00227
1271.12620,0.00206
1269.06602,0.00204
1267.00585,0.00235
1264.94568,0.00266
1262.88551,0.00274
1260.82534,0.00273
1258.76516,0.00272
1256.70499,0.00265
1254.64482,0.00260
1252.58465,0.00259
1250.52447,0.00259
1248.46430,0.00257
1246.40413,0.00249
1244.34396,0.00234
1242.28379,0.00226
1240.22361,0.00218
1238.16344,0.00213
1236.10327,0.00228
1234.04310,0.00241
1231.98293,0.00217
1229.92275,0.00187
1227.86258,0.00170
1225.80241,0.00157
1223.74224,0.00158
1221.68207,0.00172
1219.62189,0.00167
1217.56172,0.00140
1215.50155,0.00125
1213.44138,0.00121
1211.38120,0.00108
1209.32103,0.00109
1207.26086,0.00120
1205.20069,0.00104
1203.14052,0.00076
1201.08034,0.00068
1199.02017,0.00060
1196.96000,0.00038
1194.89983,0.00020
1192.83966,0.00019
1190.77948,0.00014
1188.71931,0.00000
1186.65914,-0.00001
1184.59897,0.00021
1182.53880,0.00041
1180.47862,0.00033
1178.41845,0.00024
1176.35828,0.00035
1174.29811,0.00047
1172.23793,0.00072
1170.17776,0.00090
1168.11759,0.00067
1166.05742,0.00042
1163.99725,0.00043
1161.93707,0.00065
1159.87690,0.00089
1157.81673,0.00082
1155.75656,0.00059
1153.69639,0.00058
1151.63621,0.00089
1149.57604,0.00126
1147.51587,0.00145
1145.45570,0.00150
1143.39552,0.00159
1141.33535,0.00195
1139.27518,0.00246
1137.21501,0.00308
1135.15484,0.00384
1133.09466,0.00460
1131.03449,0.00529
1128.97432,0.00611
1126.91415,0.00724
1124.85398,0.00847
1122.79380,0.00958
1120.73363,0.01047
1118.67346,0.01130
1116.61329,0.01249
1114.55312,0.01388
1112.49294,0.01499
1110.43277,0.01594
1108.37260,0.01695
1106.31243,0.01778
1104.25225,0.01868
1102.19208,0.02013
1100.13191,0.02148
1098.07174,0.02210
1096.01157,0.02270
1093.95139,0.02373
1091.89122,0.02460
1089.83105,0.02507
1087.77088,0.02582
1085.71071,0.02709
1083.65053,0.02819
1081.59036,0.02878
1079.53019,0.02905
1077.47002,0.02935
1075.40985,0.03009
1073.34967,0.03105
1071.28950,0.03153
1069.22933,0.03157
1067.16916,0.03177
1065.10898,0.03217
1063.04881,0.03245
1060.98864,0.03253
1058.92847,0.03252
1056.86830,0.03245
1054.80812,0.03234
1052.74795,0.03206
1050.68778,0.03139
1048.62761,0.03037
1046.56744,0.02934
1044.50726,0.02834
1042.44709,0.02693
1040.38692,0.02507
1038.32675,0.02332
1036.26657,0.02186
1034.20640,0.02081
1032.14623,0.01999
1030.08606,0.01879
1028.02589,0.01730
1025.96571,0.01602
1023.90554,0.01501
1021.84537,0.01423
1019.78520,0.01370
1017.72503,0.01325
1015.66485,0.01275
1013.60468,0.01226
1011.54451,0.01201
1009.48434,0.01220
1007.42417,0.01280
1005.36399,0.01366
1003.30382,0.01438
1001.24365,0.01488
999.18348,0.01554
997.12330,0.01630
995.06313,0.01721
993.00296,0.01837
990.94279,0.01926
988.88262,0.01971
986.82244,0.02048
984.76227,0.02173
982.70210,0.02247
980.64193,0.02234
978.58176,0.02205
976.52158,0.02190
974.46141,0.02161
972.40124,0.02095
970.34107,0.02043
968.28089,0.02023
966.22072,0.01984
964.16055,0.01912
962.10038,0.01811
960.04021,0.01690
957.98003,0.01555
955.91986,0.01412
953.85969,0.01289
951.79952,0.01199
949.73935,0.01159
947.67917,0.01124
945.61900,0.01025
943.55883,0.00879
941.49866,0.00756
939.43849,0.00683
937.37831,0.00645
935.31814,0.00609
933.25797,0.00552
931.19780,0.00503
929.13762,0.00496
927.07745,0.00500
925.01728,0.00489
922.95711,0.00469
920.89694,0.00437
918.83676,0.00388
916.77659,0.00326
914.71642,0.00273
912.65625,0.00252
910.59608,0.00230
908.53590,0.00199
906.47573,0.00222
904.41556,0.00291
902.35539,0.00328
900.29522,0.00340
898.23504,0.00375
896.17487,0.00378
894.11470,0.00344
892.05453,0.00358
889.99435,0.00410
887.93418,0.00458
885.87401,0.00520
883.81384,0.00577
881.75367,0.00605
879.69349,0.00665
877.63332,0.00789
875.57315,0.00887
873.51298,0.00906
871.45281,0.00930
869.39263,0.01000
867.33246,0.01063
865.27229,0.01064
863.21212,0.01014
861.15194,0.00983
859.09177,0.00974
857.03160,0.00996
854.97143,0.01073
852.91126,0.01114
850.85108,0.01090
848.79091,0.01092
846.73074,0.01097
844.67057,0.01033
842.61040,0.00933
840.55022,0.00849
838.49005,0.00780
836.42988,0.00716
834.36971,0.00704
832.30954,0.00760
830.24936,0.00782
828.18919,0.00758
826.12902,0.00764
824.06885,0.00765
822.00867,0.00695
819.94850,0.00586
817.88833,0.00503
815.82816,0.00467
813.76799,0.00453
811.70781,0.00465
809.64764,0.00478
807.58747,0.00443
805.52730,0.00431
803.46713,0.00447
801.40695,0.00419
799.34678,0.00407
797.28661,0.00447
795.22644,0.00480
793.16627,0.00502
791.10609,0.00529
789.04592,0.00548
786.98575,0.00510
784.92558,0.00438
782.86540,0.00412
780.80523,0.00384
778.74506,0.00342
776.68489,0.00338
774.62472,0.00374
772.56454,0.00410
770.50437,0.00373
768.44420,0.00350
766.38403,0.00388
764.32386,0.00359
762.26368,0.00276
760.20351,0.00264
758.14334,0.00292
756.08317,0.00292
754.02299,0.00298
751.96282,0.00282
749.90265,0.00207
747.84248,0.00198
745.78231,0.00308
743.72213,0.00390
741.66196,0.00360
739.60179,0.00319
737.54162,0.00416
735.48145,0.00538
733.42127,0.00488
731.36110,0.00402
729.30093,0.00409
727.24076,0.00449
725.18059,0.00505
723.12041,0.00524
721.06024,0.00492
719.00007,0.00405
716.93990,0.00340
714.87972,0.00358
712.81955,0.00424
710.75938,0.00467
708.69921,0.00494
706.63904,0.00514
704.57886,0.00453
702.51869,0.00343
700.45852,0.00341
698.39835,0.00455
696.33818,0.00516
694.27800,0.00472
692.21783,0.00441
690.15766,0.00468
688.09749,0.00529
686.03731,0.00609
683.97714,0.00638
681.91697,0.00630
679.85680,0.00683
677.79663,0.00735
675.73645,0.00661
673.67628,0.00488
671.61611,0.00315
669.55594,0.00350
667.49577,0.00451
665.43559,0.00296
663.37542,0.00454
661.31525,0.00545
659.25508,0.00491
657.19491,0.00352
655.13473,0.00249
653.07456,0.00321
651.01439,0.00464
648.95422,0.00476
646.89404,0.00324
644.83387,0.00224
642.77370,0.00342
640.71353,0.00581
638.65336,0.00711
636.59318,0.00599
634.53301,0.00318
632.47284,0.00191
630.41267,0.00435
628.35250,0.00747
626.29232,0.00688
624.23215,0.00505
622.17198,0.00556
620.11181,0.00714
618.05164,0.00835
615.99146,0.00798
613.93129,0.00573
611.87112,0.00235
609.81095,0.00000
607.75077,-0.00030
605.69060,0.00166
603.63043,0.00227
601.57026,0.00188
599.51009,0.00000
