3996.73391,0.00002
3994.67373,0.00009
3992.61356,0.00052
3990.55339,0.00119
3988.49322,0.00148
3986.43305,0.00122
3984.37287,0.00101
3982.31270,0.00096
3980.25253,0.00094
3978.19236,0.00100
3976.13219,0.00101
3974.07201,0.00079
3972.01184,0.00055
3969.95167,0.00054
3967.89150,0.00068
3965.83133,0.00071
3963.77115,0.00066
3961.71098,0.00076
3959.65081,0.00097
3957.59064,0.00114
3955.53046,0.00135
3953.47029,0.00160
3951.41012,0.00137
3949.34995,0.00053
3947.28978,0.00000
3945.22960,0.00013
3943.16943,0.00023
3941.10926,0.00025
3939.04909,0.00058
3936.98892,0.00109
3934.92874,0.00145
3932.86857,0.00144
3930.80840,0.00117
3928.74823,0.00108
3926.68805,0.00116
3924.62788,0.00118
3922.56771,0.00124
3920.50754,0.00139
3918.44737,0.00129
3916.38719,0.00096
3914.32702,0.00101
3912.26685,0.00143
3910.20668,0.00171
3908.14651,0.00196
3906.08633,0.00233
3904.02616,0.00209
3901.96599,0.00112
3899.90582,0.00062
3897.84565,0.00102
3895.78547,0.00162
3893.72530,0.00166
3891.66513,0.00096
3889.60496,0.00048
3887.54478,0.00073
3885.48461,0.00092
3883.42444,0.00097
3881.36427,0.00140
3879.30410,0.00179
3877.24392,0.00186
3875.18375,0.00185
3873.12358,0.00193
3871.06341,0.00181
3869.00324,0.00122
3866.94306,0.00090
3864.88289,0.00120
3862.82272,0.00143
3860.76255,0.00135
3858.70237,0.00154
3856.64220,0.00229
3854.58203,0.00262
3852.52186,0.00170
3850.46169,0.00092
3848.40151,0.00107
3846.34134,0.00143
3844.28117,0.00146
3842.22100,0.00143
3840.16083,0.00166
3838.10065,0.00173
3836.04048,0.00155
3833.98031,0.00130
3831.92014,0.00092
3829.85997,0.00096
3827.79979,0.00161
3825.73962,0.00214
3823.67945,0.00190
3821.61928,0.00082
3819.55910,0.00000
3817.49893,0.00039
3815.43876,0.00114
3813.37859,0.00175
3811.31842,0.00224
3809.25824,0.00248
3807.19807,0.00243
3805.13790,0.00217
3803.07773,0.00179
3801.01756,0.00130
3798.95738,0.00140
3796.89721,0.00202
3794.83704,0.00240
3792.77687,0.00255
3790.71670,0.00254
3788.65652,0.00242
3786.59635,0.00251
3784.53618,0.00277
3782.47601,0.00284
3780.41583,0.00257
3778.35566,0.00212
3776.29549,0.00205
3774.23532,0.00248
3772.17515,0.00291
3770.11497,0.00283
3768.05480,0.00249
3765.99463,0.00254
3763.93446,0.00293
3761.87429,0.00309
3759.81411,0.00288
3757.75394,0.00267
3755.69377,0.00268
3753.63360,0.00249
3751.57342,0.00150
3749.51325,0.00073
3747.45308,0.00165
3745.39291,0.00299
3743.33274,0.00344
3741.27256,0.00354
3739.21239,0.00352
3737.15222,0.00278
3735.09205,0.00162
3733.03188,0.00130
3730.97170,0.00152
3728.91153,0.00157
3726.85136,0.00149
3724.79119,0.00133
3722.73102,0.00123
3720.67084,0.00131
3718.61067,0.00150
3716.55050,0.00149
3714.49033,0.00120
3712.43015,0.00083
3710.36998,0.00073
3708.30981,0.00118
3706.24964,0.00198
3704.18947,0.00252
3702.12929,0.00226
3700.06912,0.00169
3698.00895,0.00158
3695.94878,0.00193
3693.88861,0.00251
3691.82843,0.00267
3689.76826,0.00214
3687.70809,0.00201
3685.64792,0.00271
3683.58775,0.00339
3681.52757,0.00354
3679.46740,0.00335
3677.40723,0.00291
3675.34706,0.00207
3673.28688,0.00154
3671.22671,0.00139
3669.16654,0.00117
3667.10637,0.00139
3665.04620,0.00207
3662.98602,0.00292
3660.92585,0.00407
3658.86568,0.00487
3656.80551,0.00443
3654.74534,0.00379
3652.68516,0.00408
3650.62499,0.00401
3648.56482,0.00294
3646.50465,0.00268
3644.44447,0.00346
3642.38430,0.00433
3640.32413,0.00499
3638.26396,0.00546
3636.20379,0.00583
3634.14361,0.00627
3632.08344,0.00671
3630.02327,0.00646
3627.96310,0.00570
3625.90293,0.00590
3623.84275,0.00686
3621.78258,0.00738
3619.72241,0.00692
3617.66224,0.00623
3615.60207,0.00629
3613.54189,0.00677
3611.48172,0.00709
3609.42155,0.00709
3607.36138,0.00706
3605.30120,0.00750
3603.24103,0.00829
3601.18086,0.00899
3599.12069,0.00929
3597.06052,0.00905
3595.00034,0.00880
3592.94017,0.00922
3590.88000,0.00989
3588.81983,0.01003
3586.75966,0.00963
3584.69948,0.00928
3582.63931,0.00914
3580.57914,0.00928
3578.51897,0.00978
3576.45879,0.01027
3574.39862,0.01054
3572.33845,0.01073
3570.27828,0.01065
3568.21811,0.01007
3566.15793,0.00954
3564.09776,0.00975
3562.03759,0.01056
3559.97742,0.01154
3557.91725,0.01235
3555.85707,0.01286
3553.79690,0.01315
3551.73673,0.01327
3549.67656,0.01318
3547.61639,0.01303
3545.55621,0.01294
3543.49604,0.01305
3541.43587,0.01351
3539.37570,0.01390
3537.31552,0.01387
3535.25535,0.01393
3533.19518,0.01442
3531.13501,0.01499
3529.07484,0.01540
3527.01466,0.01561
3524.95449,0.01553
3522.89432,0.01530
3520.83415,0.01516
3518.77398,0.01504
3516.71380,0.01491
3514.65363,0.01501
3512.59346,0.01543
3510.53329,0.01604
3508.47312,0.01671
3506.41294,0.01715
3504.35277,0.01711
3502.29260,0.01683
3500.23243,0.01684
3498.17225,0.01705
3496.11208,0.01729
3494.05191,0.01792
3491.99174,0.01875
3489.93157,0.01894
3487.87139,0.01850
3485.81122,0.01819
3483.75105,0.01847
3481.69088,0.01895
3479.63071,0.01907
3477.57053,0.01876
3475.51036,0.01846
3473.45019,0.01851
3471.39002,0.01881
3469.32984,0.01929
3467.26967,0.01981
3465.20950,0.01997
3463.14933,0.01995
3461.08916,0.01999
3459.02898,0.01992
3456.96881,0.02002
3454.90864,0.02052
3452.84847,0.02122
3450.78830,0.02139
3448.72812,0.02060
3446.66795,0.01990
3444.60778,0.02033
3442.54761,0.02129
3440.48744,0.02176
3438.42726,0.02171
3436.36709,0.02168
3434.30692,0.02176
3432.24675,0.02182
3430.18657,0.02191
3428.12640,0.02211
3426.06623,0.02234
3424.00606,0.02226
3421.94589,0.02190
3419.88571,0.02173
3417.82554,0.02174
3415.76537,0.02165
3413.70520,0.02163
3411.64503,0.02198
3409.58485,0.02232
3407.52468,0.02216
3405.46451,0.02204
3403.40434,0.02237
3401.34416,0.02277
3399.28399,0.02321
3397.22382,0.02379
3395.16365,0.02409
3393.10348,0.02385
3391.04330,0.02365
3388.98313,0.02380
3386.92296,0.02383
3384.86279,0.02374
3382.80262,0.02394
3380.74244,0.02421
3378.68227,0.02422
3376.62210,0.02401
3374.56193,0.02359
3372.50176,0.02331
3370.44158,0.02365
3368.38141,0.02419
3366.32124,0.02448
3364.26107,0.02454
3362.20089,0.02433
3360.14072,0.02418
3358.08055,0.02441
3356.02038,0.02468
3353.96021,0.02469
3351.90003,0.02450
3349.83986,0.02408
3347.77969,0.02364
3345.71952,0.02390
3343.65935,0.02477
3341.59917,0.02520
3339.53900,0.02497
3337.47883,0.02477
3335.41866,0.02472
3333.35849,0.02454
3331.29831,0.02457
3329.23814,0.02484
3327.17797,0.02483
3325.11780,0.02463
3323.05762,0.02475
3320.99745,0.02519
3318.93728,0.02532
3316.87711,0.02490
3314.81694,0.02458
3312.75676,0.02468
3310.69659,0.02474
3308.63642,0.02469
3306.57625,0.02485
3304.51608,0.02511
3302.45590,0.02527
3300.39573,0.02518
3298.33556,0.02482
3296.27539,0.02463
3294.21521,0.02455
3292.15504,0.02433
3290.09487,0.02445
3288.03470,0.02499
3285.97453,0.02526
3283.91435,0.02516
3281.85418,0.02508
3279.79401,0.02512
3277.73384,0.02512
3275.67367,0.02509
3273.61349,0.02535
3271.55332,0.02586
3269.49315,0.02601
3267.43298,0.02584
3265.37281,0.02578
3263.31263,0.02579
3261.25246,0.02573
3259.19229,0.02551
3257.13212,0.02535
3255.07194,0.02534
3253.01177,0.02544
3250.95160,0.02565
3248.89143,0.02557
3246.83126,0.02509
3244.77108,0.02461
3242.71091,0.02439
3240.65074,0.02444
3238.59057,0.02456
3236.53040,0.02474
3234.47022,0.02502
3232.41005,0.02502
3230.34988,0.02485
3228.28971,0.02488
3226.22954,0.02502
3224.16936,0.02527
3222.10919,0.02547
3220.04902,0.02532
3217.98885,0.02511
3215.92867,0.02517
3213.86850,0.02550
3211.80833,0.02578
3209.74816,0.02574
3207.68799,0.02554
3205.62781,0.02547
3203.56764,0.02545
3201.50747,0.02529
3199.44730,0.02509
3197.38713,0.02502
3195.32695,0.02485
3193.26678,0.02462
3191.20661,0.02468
3189.14644,0.02503
3187.08626,0.02543
3185.02609,0.02562
3182.96592,0.02548
3180.90575,0.02504
3178.84558,0.02473
3176.78540,0.02473
3174.72523,0.02468
3172.66506,0.02451
3170.60489,0.02439
3168.54472,0.02438
3166.48454,0.02439
3164.42437,0.02435
3162.36420,0.02441
3160.30403,0.02438
3158.24386,0.02402
3156.18368,0.02387
3154.12351,0.02415
3152.06334,0.02423
3150.00317,0.02389
3147.94299,0.02366
3145.88282,0.02369
3143.82265,0.02375
3141.76248,0.02386
3139.70231,0.02392
3137.64213,0.02361
3135.58196,0.02304
3133.52179,0.02284
3131.46162,0.02309
3129.40145,0.02338
3127.34127,0.02356
3125.28110,0.02347
3123.22093,0.02315
3121.16076,0.02304
3119.10058,0.02315
3117.04041,0.02304
3114.98024,0.02273
3112.92007,0.02251
3110.85990,0.02251
3108.79972,0.02259
3106.73955,0.02252
3104.67938,0.02259
3102.61921,0.02297
3100.55904,0.02309
3098.49886,0.02266
3096.43869,0.02218
3094.37852,0.02208
3092.31835,0.02231
3090.25818,0.02241
3088.19800,0.02219
3086.13783,0.02192
3084.07766,0.02186
3082.01749,0.02185
3079.95731,0.02169
3077.89714,0.02148
3075.83697,0.02128
3073.77680,0.02127
3071.71663,0.02151
3069.65645,0.02164
3067.59628,0.02143
3065.53611,0.02121
3063.47594,0.02118
3061.41577,0.02119
3059.35559,0.02117
3057.29542,0.02117
3055.23525,0.02104
3053.17508,0.02064
3051.11491,0.02020
3049.05473,0.01981
3046.99456,0.01949
3044.93439,0.01932
3042.87422,0.01936
3040.81404,0.01955
3038.75387,0.01967
3036.69370,0.01964
3034.63353,0.01951
3032.57336,0.01944
3030.51318,0.01963
3028.45301,0.01977
3026.39284,0.01954
3024.33267,0.01930
3022.27250,0.01930
3020.21232,0.01922
3018.15215,0.01896
3016.09198,0.01879
3014.03181,0.01872
3011.97163,0.01871
3009.91146,0.01879
3007.85129,0.01859
3005.79112,0.01806
3003.73095,0.01777
3001.67077,0.01779
2999.61060,0.01774
2997.55043,0.01779
2995.49026,0.01824
2993.43009,0.01850
2991.36991,0.01814
2989.30974,0.01779
2987.24957,0.01771
2985.18940,0.01764
2983.12923,0.01749
2981.06905,0.01758
2979.00888,0.01794
2976.94871,0.01817
2974.88854,0.01819
2972.82836,0.01812
2970.76819,0.01795
2968.70802,0.01781
2966.64785,0.01791
2964.58768,0.01795
2962.52750,0.01766
2960.46733,0.01752
2958.40716,0.01772
2956.34699,0.01756
2954.28682,0.01693
2952.22664,0.01661
2950.16647,0.01661
2948.10630,0.01625
2946.04613,0.01586
2943.98596,0.01598
2941.92578,0.01625
2939.86561,0.01650
2937.80544,0.01671
2935.74527,0.01653
2933.68509,0.01618
2931.62492,0.01617
2929.56475,0.01637
2927.50458,0.01619
2925.44441,0.01576
2923.38423,0.01569
2921.32406,0.01582
2919.26389,0.01571
2917.20372,0.01531
2915.14355,0.01503
2913.08337,0.01505
2911.02320,0.01502
2908.96303,0.01486
2906.90286,0.01486
2904.84268,0.01502
2902.78251,0.01520
2900.72234,0.01518
2898.66217,0.01479
2896.60200,0.01451
2894.54182,0.01469
2892.48165,0.01493
2890.42148,0.01511
2888.36131,0.01511
2886.30114,0.01466
2884.24096,0.01428
2882.18079,0.01443
2880.12062,0.01473
2878.06045,0.01489
2876.00028,0.01477
2873.94010,0.01442
2871.87993,0.01413
2869.81976,0.01407
2867.75959,0.01403
2865.69941,0.01386
2863.63924,0.01380
2861.57907,0.01398
2859.51890,0.01392
2857.45873,0.01341
2855.39855,0.01308
2853.33838,0.01318
2851.27821,0.01316
2849.21804,0.01286
2847.15787,0.01279
2845.09769,0.01294
2843.03752,0.01297
2840.97735,0.01299
2838.91718,0.01307
2836.85700,0.01285
2834.79683,0.01229
2832.73666,0.01181
2830.67649,0.01157
2828.61632,0.01153
2826.55614,0.01171
2824.49597,0.01184
2822.43580,0.01175
2820.37563,0.01151
2818.31546,0.01154
2816.25528,0.01185
2814.19511,0.01196
2812.13494,0.01174
2810.07477,0.01141
2808.01460,0.01121
2805.95442,0.01126
2803.89425,0.01145
2801.83408,0.01153
2799.77391,0.01137
2797.71373,0.01113
2795.65356,0.01110
2793.59339,0.01114
2791.53322,0.01093
2789.47305,0.01063
2787.41287,0.01053
2785.35270,0.01057
2783.29253,0.01065
2781.23236,0.01075
2779.17219,0.01080
2777.11201,0.01076
2775.05184,0.01076
2772.99167,0.01073
2770.93150,0.01047
2768.87133,0.01011
2766.81115,0.00991
2764.75098,0.00983
2762.69081,0.00966
2760.63064,0.00953
2758.57046,0.00956
2756.51029,0.00963
2754.45012,0.00966
2752.38995,0.00956
2750.32978,0.00922
2748.26960,0.00887
2746.20943,0.00871
2744.14926,0.00881
2742.08909,0.00904
2740.02892,0.00918
2737.96874,0.00918
2735.90857,0.00922
2733.84840,0.00936
2731.78823,0.00949
2729.72805,0.00935
2727.66788,0.00893
2725.60771,0.00871
2723.54754,0.00896
2721.48737,0.00930
2719.42719,0.00939
2717.36702,0.00925
2715.30685,0.00886
2713.24668,0.00839
2711.18651,0.00813
2709.12633,0.00802
2707.06616,0.00789
2705.00599,0.00777
2702.94582,0.00778
2700.88565,0.00804
2698.82547,0.00828
2696.76530,0.00827
2694.70513,0.00817
2692.64496,0.00804
2690.58478,0.00786
2688.52461,0.00784
2686.46444,0.00779
2684.40427,0.00755
2682.34410,0.00730
2680.28392,0.00728
2678.22375,0.00751
2676.16358,0.00762
2674.10341,0.00748
2672.04324,0.00737
2669.98306,0.00731
2667.92289,0.00723
2665.86272,0.00711
2663.80255,0.00709
2661.74238,0.00739
2659.68220,0.00786
2657.62203,0.00804
2655.56186,0.00776
2653.50169,0.00736
2651.44151,0.00715
2649.38134,0.00712
2647.32117,0.00724
2645.26100,0.00749
2643.20083,0.00786
2641.14065,0.00804
2639.08048,0.00786
2637.02031,0.00767
2634.96014,0.00759
2632.89997,0.00757
2630.83979,0.00743
2628.77962,0.00711
2626.71945,0.00676
2624.65928,0.00662
2622.59910,0.00679
2620.53893,0.00691
2618.47876,0.00671
2616.41859,0.00657
2614.35842,0.00674
2612.29824,0.00694
2610.23807,0.00692
2608.17790,0.00681
2606.11773,0.00687
2604.05756,0.00679
2601.99738,0.00638
2599.93721,0.00634
2597.87704,0.00666
2595.81687,0.00672
2593.75670,0.00676
2591.69652,0.00708
2589.63635,0.00728
2587.57618,0.00715
2585.51601,0.00681
2583.45583,0.00653
2581.39566,0.00633
2579.33549,0.00621
2577.27532,0.00633
2575.21515,0.00661
2573.15497,0.00671
2571.09480,0.00669
2569.03463,0.00678
2566.97446,0.00693
2564.91429,0.00703
2562.85411,0.00727
2560.79394,0.00765
2558.73377,0.00771
2556.67360,0.00767
2554.61342,0.00779
2552.55325,0.00758
2550.49308,0.00702
2548.43291,0.00687
2546.37274,0.00726
2544.31256,0.00747
2542.25239,0.00734
2540.19222,0.00722
2538.13205,0.00708
2536.07188,0.00715
2534.01170,0.00736
2531.95153,0.00702
2529.89136,0.00652
2527.83119,0.00650
2525.77102,0.00676
2523.71084,0.00712
2521.65067,0.00727
2519.59050,0.00708
2517.53033,0.00716
2515.47015,0.00758
2513.40998,0.00763
2511.34981,0.00698
2509.28964,0.00627
2507.22947,0.00609
2505.16929,0.00597
2503.10912,0.00592
2501.04895,0.00619
2498.98878,0.00646
2496.92861,0.00674
2494.86843,0.00689
2492.80826,0.00676
2490.74809,0.00667
2488.68792,0.00667
2486.62775,0.00671
2484.56757,0.00685
2482.50740,0.00694
2480.44723,0.00691
2478.38706,0.00698
2476.32688,0.00702
2474.26671,0.00667
2472.20654,0.00607
2470.14637,0.00589
2468.08620,0.00647
2466.02602,0.00694
2463.96585,0.00680
2461.90568,0.00686
2459.84551,0.00718
2457.78534,0.00749
2455.72516,0.00788
2453.66499,0.00801
2451.60482,0.00774
2449.54465,0.00732
2447.48447,0.00708
2445.42430,0.00720
2443.36413,0.00753
2441.30396,0.00787
2439.24379,0.00807
2437.18361,0.00807
2435.12344,0.00789
2433.06327,0.00762
2431.00310,0.00751
2428.94293,0.00745
2426.88275,0.00727
2424.82258,0.00735
2422.76241,0.00796
2420.70224,0.00877
2418.64207,0.00915
2416.58189,0.00886
2414.52172,0.00815
2412.46155,0.00759
2410.40138,0.00756
2408.34120,0.00765
2406.28103,0.00755
2404.22086,0.00744
2402.16069,0.00760
2400.10052,0.00792
2398.04034,0.00775
2395.98017,0.00723
2393.92000,0.00694
2391.85983,0.00701
2389.79966,0.00732
2387.73948,0.00772
2385.67931,0.00803
2383.61914,0.00821
2381.55897,0.00833
2379.49880,0.00864
2377.43862,0.00892
2375.37845,0.00882
2373.31828,0.00857
2371.25811,0.00847
2369.19793,0.00821
2367.13776,0.00791
2365.07759,0.00891
2363.01742,0.01060
2360.95725,0.00940
2358.89707,0.00694
2356.83690,0.00580
2354.77673,0.00645
2352.71656,0.00783
2350.65639,0.00815
2348.59621,0.00804
2346.53604,0.00867
2344.47587,0.00795
2342.41570,0.00778
2340.35552,0.00845
2338.29535,0.00871
2336.23518,0.00838
2334.17501,0.00806
2332.11484,0.00870
2330.05466,0.00969
2327.99449,0.01037
2325.93432,0.01008
2323.87415,0.00915
2321.81398,0.00801
2319.75380,0.00755
2317.69363,0.00750
2315.63346,0.00770
2313.57329,0.00756
2311.51312,0.00685
2309.45294,0.00637
2307.39277,0.00668
2305.33260,0.00740
2303.27243,0.00805
2301.21225,0.00853
2299.15208,0.00882
2297.09191,0.00908
2295.03174,0.00914
2292.97157,0.00902
2290.91139,0.00910
2288.85122,0.00924
2286.79105,0.00905
2284.73088,0.00866
2282.67071,0.00841
2280.61053,0.00822
2278.55036,0.00770
2276.49019,0.00706
2274.43002,0.00691
2272.36984,0.00743
2270.30967,0.00825
2268.24950,0.00853
2266.18933,0.00774
2264.12916,0.00652
2262.06898,0.00563
2260.00881,0.00533
2257.94864,0.00618
2255.88847,0.00742
2253.82830,0.00754
2251.76812,0.00684
2249.70795,0.00681
2247.64778,0.00782
2245.58761,0.00840
2243.52744,0.00788
2241.46726,0.00727
2239.40709,0.00729
2237.34692,0.00721
2235.28675,0.00691
2233.22657,0.00693
2231.16640,0.00644
2229.10623,0.00574
2227.04606,0.00640
2224.98589,0.00771
2222.92571,0.00807
2220.86554,0.00724
2218.80537,0.00606
2216.74520,0.00615
2214.68503,0.00719
2212.62485,0.00707
2210.56468,0.00665
2208.50451,0.00710
2206.44434,0.00713
2204.38417,0.00663
2202.32399,0.00643
2200.26382,0.00568
2198.20365,0.00430
2196.14348,0.00389
2194.08330,0.00455
2192.02313,0.00528
2189.96296,0.00518
2187.90279,0.00441
2185.84262,0.00416
2183.78244,0.00345
2181.72227,0.00281
2179.66210,0.00371
2177.60193,0.00497
2175.54176,0.00624
2173.48158,0.00758
2171.42141,0.00812
2169.36124,0.00705
2167.30107,0.00586
2165.24089,0.00648
2163.18072,0.00767
2161.12055,0.00699
2159.06038,0.00451
2157.00021,0.00337
2154.94003,0.00406
2152.87986,0.00448
2150.81969,0.00410
2148.75952,0.00366
2146.69935,0.00311
2144.63917,0.00200
2142.57900,0.00114
2140.51883,0.00159
2138.45866,0.00305
2136.39849,0.00397
2134.33831,0.00370
2132.27814,0.00363
2130.21797,0.00416
2128.15780,0.00455
2126.09762,0.00480
2124.03745,0.00471
2121.97728,0.00452
2119.91711,0.00462
2117.85694,0.00475
2115.79676,0.00482
2113.73659,0.00502
2111.67642,0.00528
2109.61625,0.00527
2107.55608,0.00480
2105.49590,0.00377
2103.43573,0.00297
2101.37556,0.00364
2099.31539,0.00524
2097.25521,0.00627
2095.19504,0.00576
2093.13487,0.00427
2091.07470,0.00323
2089.01453,0.00321
2086.95435,0.00419
2084.89418,0.00516
2082.83401,0.00505
2080.77384,0.00410
2078.71367,0.00319
2076.65349,0.00357
2074.59332,0.00478
2072.53315,0.00551
2070.47298,0.00615
2068.41281,0.00633
2066.35263,0.00499
2064.29246,0.00314
2062.23229,0.00229
2060.17212,0.00319
2058.11194,0.00536
2056.05177,0.00644
2053.99160,0.00600
2051.93143,0.00528
2049.87126,0.00463
2047.81108,0.00470
2045.75091,0.00502
2043.69074,0.00464
2041.63057,0.00482
2039.57040,0.00591
2037.51022,0.00653
2035.45005,0.00627
2033.38988,0.00449
2031.32971,0.00231
2029.26954,0.00314
2027.20936,0.00586
2025.14919,0.00669
2023.08902,0.00607
2021.02885,0.00610
2018.96867,0.00548
2016.90850,0.00283
2014.84833,0.00072
2012.78816,0.00096
2010.72799,0.00172
2008.66781,0.00224
2006.60764,0.00343
2004.54747,0.00406
2002.48730,0.00415
2000.42713,0.00512
1998.36695,0.00555
1996.30678,0.00467
1994.24661,0.00445
1992.18644,0.00507
1990.12626,0.00440
1988.06609,0.00302
1986.00592,0.00245
1983.94575,0.00251
1981.88558,0.00299
1979.82540,0.00325
1977.76523,0.00281
1975.70506,0.00336
1973.64489,0.00519
1971.58472,0.00525
1969.52454,0.00317
1967.46437,0.00144
1965.40420,0.00053
1963.34403,0.00000
1961.28386,0.00060
1959.22368,0.00160
1957.16351,0.00148
1955.10334,0.00114
1953.04317,0.00187
1950.98299,0.00257
1948.92282,0.00211
1946.86265,0.00154
1944.80248,0.00207
1942.74231,0.00363
1940.68213,0.00476
1938.62196,0.00463
1936.56179,0.00414
1934.50162,0.00362
1932.44145,0.00288
1930.38127,0.00238
1928.32110,0.00257
1926.26093,0.00298
1924.20076,0.00321
1922.14059,0.00383
1920.08041,0.00463
1918.02024,0.00450
1915.96007,0.00387
1913.89990,0.00381
1911.83972,0.00398
1909.77955,0.00370
1907.71938,0.00331
1905.65921,0.00366
1903.59904,0.00464
1901.53886,0.00549
1899.47869,0.00586
1897.41852,0.00568
1895.35835,0.00536
1893.29818,0.00549
1891.23800,0.00547
1889.17783,0.00471
1887.11766,0.00401
1885.05749,0.00421
1882.99731,0.00489
1880.93714,0.00527
1878.87697,0.00509
1876.81680,0.00449
1874.75663,0.00402
1872.69645,0.00406
1870.63628,0.00427
1868.57611,0.00458
1866.51594,0.00505
1864.45577,0.00514
1862.39559,0.00486
1860.33542,0.00452
1858.27525,0.00405
1856.21508,0.00360
1854.15491,0.00364
1852.09473,0.00397
1850.03456,0.00413
1847.97439,0.00391
1845.91422,0.00327
1843.85404,0.00283
1841.79387,0.00328
1839.73370,0.00393
1837.67353,0.00421
1835.61336,0.00445
1833.55318,0.00490
1831.49301,0.00536
1829.43284,0.00552
1827.37267,0.00537
1825.31250,0.00514
1823.25232,0.00476
1821.19215,0.00424
1819.13198,0.00390
1817.07181,0.00398
1815.01163,0.00444
1812.95146,0.00502
1810.89129,0.00542
1808.83112,0.00558
1806.77095,0.00566
1804.71077,0.00555
1802.65060,0.00508
1800.59043,0.00475
1798.53026,0.00497
1796.47009,0.00523
1794.40991,0.00506
1792.34974,0.00485
1790.28957,0.00494
1788.22940,0.00501
1786.16923,0.00498
1784.10905,0.00496
1782.04888,0.00497
1779.98871,0.00508
1777.92854,0.00521
1775.86836,0.00505
1773.80819,0.00460
1771.74802,0.00438
1769.68785,0.00473
1767.62768,0.00506
1765.56750,0.00489
1763.50733,0.00455
1761.44716,0.00456
1759.38699,0.00489
1757.32682,0.00509
1755.26664,0.00504
1753.20647,0.00495
1751.14630,0.00488
1749.08613,0.00488
1747.02596,0.00490
1744.96578,0.00481
1742.90561,0.00468
1740.84544,0.00473
1738.78527,0.00493
1736.72509,0.00506
1734.66492,0.00509
1732.60475,0.00519
1730.54458,0.00542
1728.48441,0.00567
1726.42423,0.00575
1724.36406,0.00571
1722.30389,0.00580
1720.24372,0.00592
1718.18355,0.00578
1716.12337,0.00562
1714.06320,0.00570
1712.00303,0.00595
1709.94286,0.00622
1707.88268,0.00645
1705.82251,0.00659
1703.76234,0.00655
1701.70217,0.00629
1699.64200,0.00617
1697.58182,0.00670
1695.52165,0.00762
1693.46148,0.00839
1691.40131,0.00882
1689.34114,0.00906
1687.28096,0.00920
1685.22079,0.00918
1683.16062,0.00930
1681.10045,0.00976
1679.04028,0.01040
1676.98010,0.01103
1674.91993,0.01138
1672.85976,0.01145
1670.79959,0.01154
1668.73941,0.01192
1666.67924,0.01240
1664.61907,0.01270
1662.55890,0.01291
1660.49873,0.01331
1658.43855,0.01377
1656.37838,0.01397
1654.31821,0.01392
1652.25804,0.01382
1650.19787,0.01361
1648.13769,0.01327
1646.07752,0.01309
1644.01735,0.01322
1641.95718,0.01333
1639.89701,0.01325
1637.83683,0.01296
1635.77666,0.01257
1633.71649,0.01247
1631.65632,0.01266
1629.59614,0.01271
1627.53597,0.01229
1625.47580,0.01143
1623.41563,0.01054
1621.35546,0.01007
1619.29528,0.00994
1617.23511,0.00988
1615.17494,0.00982
1613.11477,0.00963
1611.05460,0.00935
1608.99442,0.00916
1606.93425,0.00904
1604.87408,0.00881
1602.81391,0.00845
1600.75373,0.00828
1598.69356,0.00841
1596.63339,0.00846
1594.57322,0.00812
1592.51305,0.00768
1590.45287,0.00751
1588.39270,0.00762
1586.33253,0.00769
1584.27236,0.00749
1582.21219,0.00714
1580.15201,0.00692
1578.09184,0.00682
1576.03167,0.00677
1573.97150,0.00693
1571.91133,0.00700
1569.85115,0.00668
1567.79098,0.00633
1565.73081,0.00623
1563.67064,0.00628
1561.61046,0.00623
1559.55029,0.00556
1557.49012,0.00472
1555.42995,0.00484
1553.36978,0.00527
1551.30960,0.00547
1549.24943,0.00553
1547.18926,0.00550
1545.12909,0.00523
1543.06892,0.00481
1541.00874,0.00450
1538.94857,0.00442
1536.88840,0.00449
1534.82823,0.00436
1532.76805,0.00411
1530.70788,0.00426
1528.64771,0.00458
1526.58754,0.00443
1524.52737,0.00369
1522.46719,0.00293
1520.40702,0.00260
1518.34685,0.00260
1516.28668,0.00274
1514.22651,0.00307
1512.16633,0.00329
1510.10616,0.00287
1508.04599,0.00181
1505.98582,0.00147
1503.92565,0.00233
1501.86547,0.00303
1499.80530,0.00308
1497.74513,0.00284
1495.68496,0.00281
1493.62478,0.00299
1491.56461,0.00299
1489.50444,0.00263
1487.44427,0.00227
1485.38410,0.00234
1483.32392,0.00267
1481.26375,0.00287
1479.20358,0.00295
1477.14341,0.00295
1475.08324,0.00275
1473.02306,0.00248
1470.96289,0.00249
1468.90272,0.00279
1466.84255,0.00299
1464.78238,0.00292
1462.72220,0.00281
1460.66203,0.00274
1458.60186,0.00238
1456.54169,0.00178
1454.48151,0.00165
1452.42134,0.00195
1450.36117,0.00235
1448.30100,0.00276
1446.24083,0.00318
1444.18065,0.00352
1442.12048,0.00361
1440.06031,0.00338
1438.00014,0.00279
1435.93997,0.00222
1433.87979,0.00225
1431.81962,0.00263
1429.75945,0.00292
1427.69928,0.00308
1425.63910,0.00315
1423.57893,0.00311
1421.51876,0.00293
1419.45859,0.00274
1417.39842,0.00283
1415.33824,0.00314
1413.27807,0.00335
1411.21790,0.00339
1409.15773,0.00341
1407.09756,0.00353
1405.03738,0.00374
1402.97721,0.00388
1400.91704,0.00374
1398.85687,0.00339
1396.79670,0.00312
1394.73652,0.00307
1392.67635,0.00314
1390.61618,0.00318
1388.55601,0.00309
1386.49583,0.00296
1384.43566,0.00299
1382.37549,0.00317
1380.31532,0.00334
1378.25515,0.00337
1376.19497,0.00326
1374.13480,0.00320
1372.07463,0.00331
1370.01446,0.00342
1367.95429,0.00335
1365.89411,0.00315
1363.83394,0.00299
1361.77377,0.00298
1359.71360,0.00301
1357.65343,0.00298
1355.59325,0.00297
1353.53308,0.00300
1351.47291,0.00294
1349.41274,0.00271
1347.35256,0.00250
1345.29239,0.00246
1343.23222,0.00240
1341.17205,0.00207
1339.11188,0.00173
1337.05170,0.00170
1334.99153,0.00185
1332.93136,0.00193
1330.87119,0.00186
1328.81102,0.00165
1326.75084,0.00145
1324.69067,0.00148
1322.63050,0.00163
1320.57033,0.00165
1318.51015,0.00158
1316.44998,0.00141
1314.38981,0.00117
1312.32964,0.00114
1310.26947,0.00127
1308.20929,0.00127
1306.14912,0.00124
1304.08895,0.00132
1302.02878,0.00146
1299.96861,0.00159
1297.90843,0.00158
1295.84826,0.00141
1293.78809,0.00129
1291.72792,0.00133
1289.66775,0.00150
1287.60757,0.00164
1285.54740,0.00166
1283.48723,0.00165
1281.42706,0.00156
1279.36688,0.00140
1277.30671,0.00129
1275.24654,0.00120
1273.18637,0.00102
1271.12620,0.00070
1269.06602,0.00054
1267.00585,0.00092
1264.94568,0.00148
1262.88551,0.00160
1260.82534,0.00150
1258.76516,0.00145
1256.70499,0.00128
1254.64482,0.00113
1252.58465,0.00118
1250.52447,0.00132
1248.46430,0.00152
1246.40413,0.00161
1244.34396,0.00141
1242.28379,0.00101
1240.22361,0.00080
1238.16344,0.00098
1236.10327,0.00114
1234.04310,0.00090
1231.98293,0.00043
1229.92275,0.00013
1227.86258,0.00004
1225.80241,0.00004
1223.74224,0.00018
1221.68207,0.00038
1219.62189,0.00034
1217.56172,0.00010
1215.50155,0.00000
1213.44138,0.00006
1211.38120,0.00001
1209.32103,-0.00002
1207.26086,0.00005
1205.20069,0.00006
1203.14052,0.00008
1201.08034,0.00013
1199.02017,0.00001
1196.96000,-0.00018
1194.89983,-0.00013
1192.83966,0.00010
1190.77948,0.00030
1188.71931,0.00057
1186.65914,0.00096
1184.59897,0.00144
1182.53880,0.00199
1180.47862,0.00237
1178.41845,0.00264
1176.35828,0.00309
1174.29811,0.00365
1172.23793,0.00427
1170.17776,0.00493
1168.11759,0.00541
1166.05742,0.00579
1163.99725,0.00619
1161.93707,0.00666
1159.87690,0.00729
1157.81673,0.00790
1155.75656,0.00824
1153.69639,0.00850
1151.63621,0.00900
1149.57604,0.00956
1147.51587,0.00987
1145.45570,0.00994
1143.39552,0.00994
1141.33535,0.01000
1139.27518,0.01005
1137.21501,0.01019
1135.15484,0.01046
1133.09466,0.01056
1131.03449,0.01068
1128.97432,0.01126
1126.91415,0.01209
1124.85398,0.01268
1122.79380,0.01301
1120.73363,0.01345
1118.67346,0.01440
1116.61329,0.01570
1114.55312,0.01668
1112.49294,0.01715
1110.43277,0.01763
1108.37260,0.01846
1106.31243,0.01945
1104.25225,0.02042
1102.19208,0.02151
1100.13191,0.02266
1098.07174,0.02341
1096.01157,0.02408
1093.95139,0.02500
1091.89122,0.02565
1089.83105,0.02595
1087.77088,0.02646
1085.71071,0.02733
1083.65053,0.02831
1081.59036,0.02936
1079.53019,0.03030
1077.47002,0.03080
1075.40985,0.03110
1073.34967,0.03152
1071.28950,0.03178
1069.22933,0.03193
1067.16916,0.03217
1065.10898,0.03228
1063.04881,0.03232
1060.98864,0.03250
1058.92847,0.03244
1056.86830,0.03179
1054.80812,0.03104
1052.74795,0.03065
1050.68778,0.02992
1048.62761,0.02861
1046.56744,0.02752
1044.50726,0.02672
1042.44709,0.02566
1040.38692,0.02420
1038.32675,0.02248
1036.26657,0.02090
1034.20640,0.01985
1032.14623,0.01905
1030.08606,0.01806
1028.02589,0.01694
1025.96571,0.01593
1023.90554,0.01513
1021.84537,0.01454
1019.78520,0.01399
1017.72503,0.01338
1015.66485,0.01282
1013.60468,0.01237
1011.54451,0.01205
1009.48434,0.01212
1007.42417,0.01272
1005.36399,0.01350
1003.30382,0.01398
1001.24365,0.01434
999.18348,0.01498
997.12330,0.01574
995.06313,0.01657
993.00296,0.01750
990.94279,0.01805
988.88262,0.01812
986.82244,0.01844
984.76227,0.01935
982.70210,0.02024
980.64193,0.02067
978.58176,0.02058
976.52158,0.02012
974.46141,0.01963
972.40124,0.01903
970.34107,0.01827
968.28089,0.01783
966.22072,0.01778
964.16055,0.01779
962.10038,0.01742
960.04021,0.01648
957.98003,0.01543
955.91986,0.01485
953.85969,0.01451
951.79952,0.01416
949.73935,0.01420
947.67917,0.01440
945.61900,0.01392
943.55883,0.01290
941.49866,0.01211
939.43849,0.01179
937.37831,0.01175
935.31814,0.01166
933.25797,0.01127
931.19780,0.01081
929.13762,0.01038
927.07745,0.00993
925.01728,0.00961
922.95711,0.00923
920.89694,0.00855
918.83676,0.00772
916.77659,0.00695
914.71642,0.00624
912.65625,0.00563
910.59608,0.00516
908.53590,0.00460
906.47573,0.00409
904.41556,0.00397
902.35539,0.00412
900.29522,0.00439
898.23504,0.00473
896.17487,0.00492
894.11470,0.00501
892.05453,0.00521
889.99435,0.00533
887.93418,0.00561
885.87401,0.00646
883.81384,0.00735
881.75367,0.00750
879.69349,0.00760
877.63332,0.00880
875.57315,0.01047
873.51298,0.01141
871.45281,0.01163
869.39263,0.01201
867.33246,0.01322
865.27229,0.01453
863.21212,0.01499
861.15194,0.01498
859.09177,0.01491
857.03160,0.01510
854.97143,0.01573
852.91126,0.01600
850.85108,0.01567
848.79091,0.01552
846.73074,0.01531
844.67057,0.01441
842.61040,0.01322
840.55022,0.01252
838.49005,0.01222
836.42988,0.01186
834.36971,0.01174
832.30954,0.01214
830.24936,0.01207
828.18919,0.01104
826.12902,0.01021
824.06885,0.01010
822.00867,0.00980
819.94850,0.00895
817.88833,0.00846
815.82816,0.00842
813.76799,0.00803
811.70781,0.00765
809.64764,0.00765
807.58747,0.00751
805.52730,0.00714
803.46713,0.00633
801.40695,0.00556
799.34678,0.00578
797.28661,0.00623
795.22644,0.00623
793.16627,0.00639
791.10609,0.00709
789.04592,0.00756
786.98575,0.00709
784.92558,0.00664
782.86540,0.00673
780.80523,0.00658
778.74506,0.00610
776.68489,0.00544
774.62472,0.00480
772.56454,0.00479
770.50437,0.00509
768.44420,0.00496
766.38403,0.00460
764.32386,0.00418
762.26368,0.00372
760.20351,0.00388
758.14334,0.00458
756.08317,0.00502
754.02299,0.00483
751.96282,0.00410
749.90265,0.00366
747.84248,0.00409
745.78231,0.00459
743.72213,0.00430
741.66196,0.00393
739.60179,0.00429
737.54162,0.00531
735.48145,0.00612
733.42127,0.00569
731.36110,0.00485
729.30093,0.00452
727.24076,0.00435
725.18059,0.00466
723.12041,0.00516
721.06024,0.00539
719.00007,0.00513
716.93990,0.00510
714.87972,0.00527
712.81955,0.00516
710.75938,0.00472
708.69921,0.00451
706.63904,0.00483
704.57886,0.00482
702.51869,0.00417
700.45852,0.00416
698.39835,0.00523
696.33818,0.00565
694.27800,0.00458
692.21783,0.00382
690.15766,0.00439
688.09749,0.00507
686.03731,0.00496
683.97714,0.00494
681.91697,0.00570
679.85680,0.00599
677.79663,0.00518
675.73645,0.00437
673.67628,0.00356
671.61611,0.00194
669.55594,0.00212
667.49577,0.00450
665.43559,0.00479
663.37542,0.00664
661.31525,0.00649
659.25508,0.00468
657.19491,0.00307
655.13473,0.00259
653.07456,0.00281
651.01439,0.00295
648.95422,0.00294
646.89404,0.00209
644.83387,0.00086
642.77370,0.00131
640.71353,0.00431
638.65336,0.00722
636.59318,0.00679
634.53301,0.00400
632.47284,0.00321
630.41267,0.00543
628.35250,0.00686
626.29232,0.00470
624.23215,0.00231
622.17198,0.00194
620.11181,0.00226
618.05164,0.00252
615.99146,0.00210
613.93129,0.00092
611.87112,0.00000
609.81095,-0.00052
607.75077,0.00004
605.69060,-0.00100
603.63043,-0.00239
601.57026,-0.00132
599.51009,0.00000
