3996.73391,0.00073
3994.67373,0.00055
3992.61356,0.00070
3990.55339,0.00075
3988.49322,0.00041
3986.43305,0.00003
3984.37287,0.00000
3982.31270,0.00028
3980.25253,0.00067
3978.19236,0.00088
3976.13219,0.00076
3974.07201,0.00080
3972.01184,0.00111
3969.95167,0.00127
3967.89150,0.00123
3965.83133,0.00095
3963.77115,0.00042
3961.71098,0.00015
3959.65081,0.00041
3957.59064,0.00094
3955.53046,0.00141
3953.47029,0.00145
3951.41012,0.00100
3949.34995,0.00049
3947.28978,0.00049
3945.22960,0.00102
3943.16943,0.00144
3941.10926,0.00119
3939.04909,0.00067
3936.98892,0.00058
3934.92874,0.00086
3932.86857,0.00109
3930.80840,0.00114
3928.74823,0.00105
3926.68805,0.00102
3924.62788,0.00112
3922.56771,0.00105
3920.50754,0.00067
3918.44737,0.00042
3916.38719,0.00058
3914.32702,0.00077
3912.26685,0.00077
3910.20668,0.00061
3908.14651,0.00045
3906.08633,0.00039
3904.02616,0.00064
3901.96599,0.00115
3899.90582,0.00116
3897.84565,0.00062
3895.78547,0.00047
3893.72530,0.00103
3891.66513,0.00171
3889.60496,0.00186
3887.54478,0.00162
3885.48461,0.00144
3883.42444,0.00144
3881.36427,0.00157
3879.30410,0.00154
3877.24392,0.00116
3875.18375,0.00094
3873.12358,0.00116
3871.06341,0.00134
3869.00324,0.00121
3866.94306,0.00103
3864.88289,0.00100
3862.82272,0.00116
3860.76255,0.00115
3858.70237,0.00092
3856.64220,0.00077
3854.58203,0.00089
3852.52186,0.00132
3850.46169,0.00171
3848.40151,0.00171
3846.34134,0.00172
3844.28117,0.00216
3842.22100,0.00261
3840.16083,0.00259
3838.10065,0.00207
3836.04048,0.00121
3833.98031,0.00066
3831.92014,0.00047
3829.85997,0.00024
3827.79979,0.00000
3825.73962,0.00002
3823.67945,0.00035
3821.61928,0.00109
3819.55910,0.00203
3817.49893,0.00247
3815.43876,0.00231
3813.37859,0.00181
3811.31842,0.00123
3809.25824,0.00078
3807.19807,0.00050
3805.13790,0.00048
3803.07773,0.00077
3801.01756,0.00124
3798.95738,0.00176
3796.89721,0.00220
3794.83704,0.00227
3792.77687,0.00182
3790.71670,0.00111
3788.65652,0.00064
3786.59635,0.00070
3784.53618,0.00108
3782.47601,0.00147
3780.41583,0.00183
3778.35566,0.00212
3776.29549,0.00230
3774.23532,0.00226
3772.17515,0.00180
3770.11497,0.00130
3768.05480,0.00111
3765.99463,0.00076
3763.93446,0.00028
3761.87429,0.00028
3759.81411,0.00059
3757.75394,0.00073
3755.69377,0.00106
3753.63360,0.00211
3751.57342,0.00331
3749.51325,0.00342
3747.45308,0.00270
3745.39291,0.00223
3743.33274,0.00171
3741.27256,0.00076
3739.21239,0.00021
3737.15222,0.00035
3735.09205,0.00049
3733.03188,0.00068
3730.97170,0.00153
3728.91153,0.00252
3726.85136,0.00299
3724.79119,0.00286
3722.73102,0.00239
3720.67084,0.00203
3718.61067,0.00200
3716.55050,0.00238
3714.49033,0.00279
3712.43015,0.00313
3710.36998,0.00377
3708.30981,0.00401
3706.24964,0.00331
3704.18947,0.00234
3702.12929,0.00199
3700.06912,0.00232
3698.00895,0.00272
3695.94878,0.00278
3693.88861,0.00226
3691.82843,0.00146
3689.76826,0.00126
3687.70809,0.00205
3685.64792,0.00263
3683.58775,0.00223
3681.52757,0.00140
3679.46740,0.00097
3677.40723,0.00100
3675.34706,0.00146
3673.28688,0.00219
3671.22671,0.00277
3669.16654,0.00313
3667.10637,0.00328
3665.04620,0.00317
3662.98602,0.00290
3660.92585,0.00261
3658.86568,0.00244
3656.80551,0.00246
3654.74534,0.00245
3652.68516,0.00225
3650.62499,0.00233
3648.56482,0.00303
3646.50465,0.00356
3644.44447,0.00352
3642.38430,0.00358
3640.32413,0.00405
3638.26396,0.00476
3636.20379,0.00515
3634.14361,0.00476
3632.08344,0.00400
3630.02327,0.00339
3627.96310,0.00327
3625.90293,0.00361
3623.84275,0.00406
3621.78258,0.00425
3619.72241,0.00415
3617.66224,0.00417
3615.60207,0.00474
3613.54189,0.00582
3611.48172,0.00652
3609.42155,0.00631
3607.36138,0.00566
3605.30120,0.00555
3603.24103,0.00610
3601.18086,0.00673
3599.12069,0.00717
3597.06052,0.00710
3595.00034,0.00685
3592.94017,0.00711
3590.88000,0.00756
3588.81983,0.00761
3586.75966,0.00755
3584.69948,0.00760
3582.63931,0.00775
3580.57914,0.00782
3578.51897,0.00758
3576.45879,0.00735
3574.39862,0.00744
3572.33845,0.00766
3570.27828,0.00787
3568.21811,0.00816
3566.15793,0.00853
3564.09776,0.00900
3562.03759,0.00951
3559.97742,0.00964
3557.91725,0.00914
3555.85707,0.00846
3553.79690,0.00815
3551.73673,0.00833
3549.67656,0.00892
3547.61639,0.00951
3545.55621,0.00984
3543.49604,0.01001
3541.43587,0.01021
3539.37570,0.01041
3537.31552,0.01045
3535.25535,0.01033
3533.19518,0.01034
3531.13501,0.01060
3529.07484,0.01100
3527.01466,0.01141
3524.95449,0.01165
3522.89432,0.01151
3520.83415,0.01101
3518.77398,0.01059
3516.71380,0.01058
3514.65363,0.01075
3512.59346,0.01082
3510.53329,0.01114
3508.47312,0.01196
3506.41294,0.01272
3504.35277,0.01285
3502.29260,0.01264
3500.23243,0.01270
3498.17225,0.01300
3496.11208,0.01322
3494.05191,0.01329
3491.99174,0.01342
3489.93157,0.01366
3487.87139,0.01377
3485.81122,0.01359
3483.75105,0.01324
3481.69088,0.01304
3479.63071,0.01323
3477.57053,0.01363
3475.51036,0.01380
3473.45019,0.01382
3471.39002,0.01412
3469.32984,0.01465
3467.26967,0.01515
3465.20950,0.01539
3463.14933,0.01534
3461.08916,0.01519
3459.02898,0.01511
3456.96881,0.01520
3454.90864,0.01545
3452.84847,0.01584
3450.78830,0.01607
3448.72812,0.01583
3446.66795,0.01563
3444.60778,0.01598
3442.54761,0.01637
3440.48744,0.01622
3438.42726,0.01579
3436.36709,0.01584
3434.30692,0.01650
3432.24675,0.01701
3430.18657,0.01697
3428.12640,0.01682
3426.06623,0.01684
3424.00606,0.01704
3421.94589,0.01721
3419.88571,0.01714
3417.82554,0.01698
3415.76537,0.01702
3413.70520,0.01710
3411.64503,0.01701
3409.58485,0.01696
3407.52468,0.01714
3405.46451,0.01731
3403.40434,0.01742
3401.34416,0.01756
3399.28399,0.01738
3397.22382,0.01701
3395.16365,0.01699
3393.10348,0.01745
3391.04330,0.01790
3388.98313,0.01804
3386.92296,0.01806
3384.86279,0.01830
3382.80262,0.01865
3380.74244,0.01863
3378.68227,0.01828
3376.62210,0.01802
3374.56193,0.01792
3372.50176,0.01809
3370.44158,0.01847
3368.38141,0.01875
3366.32124,0.01878
3364.26107,0.01855
3362.20089,0.01828
3360.14072,0.01837
3358.08055,0.01860
3356.02038,0.01868
3353.96021,0.01908
3351.90003,0.01954
3349.83986,0.01938
3347.77969,0.01931
3345.71952,0.01980
3343.65935,0.02018
3341.59917,0.01996
3339.53900,0.01940
3337.47883,0.01903
3335.41866,0.01889
3333.35849,0.01899
3331.29831,0.01965
3329.23814,0.02056
3327.17797,0.02085
3325.11780,0.02028
3323.05762,0.01954
3320.99745,0.01935
3318.93728,0.01939
3316.87711,0.01922
3314.81694,0.01924
3312.75676,0.01951
3310.69659,0.01969
3308.63642,0.01971
3306.57625,0.01966
3304.51608,0.01969
3302.45590,0.01990
3300.39573,0.02028
3298.33556,0.02066
3296.27539,0.02076
3294.21521,0.02084
3292.15504,0.02098
3290.09487,0.02062
3288.03470,0.01974
3285.97453,0.01912
3283.91435,0.01913
3281.85418,0.01934
3279.79401,0.01954
3277.73384,0.01973
3275.67367,0.01997
3273.61349,0.02013
3271.55332,0.02018
3269.49315,0.02043
3267.43298,0.02064
3265.37281,0.02047
3263.31263,0.02028
3261.25246,0.02020
3259.19229,0.02027
3257.13212,0.02047
3255.07194,0.02045
3253.01177,0.02022
3250.95160,0.02020
3248.89143,0.02028
3246.83126,0.02021
3244.77108,0.02014
3242.71091,0.02015
3240.65074,0.02020
3238.59057,0.02030
3236.53040,0.02045
3234.47022,0.02046
3232.41005,0.02029
3230.34988,0.02010
3228.28971,0.01994
3226.22954,0.01982
3224.16936,0.01975
3222.10919,0.01977
3220.04902,0.01989
3217.98885,0.02002
3215.92867,0.02001
3213.86850,0.01998
3211.80833,0.01995
3209.74816,0.01971
3207.68799,0.01964
3205.62781,0.01978
3203.56764,0.01959
3201.50747,0.01907
3199.44730,0.01869
3197.38713,0.01887
3195.32695,0.01942
3193.26678,0.01961
3191.20661,0.01927
3189.14644,0.01878
3187.08626,0.01850
3185.02609,0.01872
3182.96592,0.01910
3180.90575,0.01901
3178.84558,0.01867
3176.78540,0.01860
3174.72523,0.01859
3172.66506,0.01856
3170.60489,0.01894
3168.54472,0.01956
3166.48454,0.01968
3164.42437,0.01928
3162.36420,0.01902
3160.30403,0.01897
3158.24386,0.01892
3156.18368,0.01885
3154.12351,0.01872
3152.06334,0.01858
3150.00317,0.01854
3147.94299,0.01859
3145.88282,0.01846
3143.82265,0.01803
3141.76248,0.01759
3139.70231,0.01753
3137.64213,0.01777
3135.58196,0.01779
3133.52179,0.01737
3131.46162,0.01713
3129.40145,0.01738
3127.34127,0.01775
3125.28110,0.01796
3123.22093,0.01791
3121.16076,0.01775
3119.10058,0.01755
3117.04041,0.01727
3114.98024,0.01707
3112.92007,0.01704
3110.85990,0.01709
3108.79972,0.01727
3106.73955,0.01749
3104.67938,0.01746
3102.61921,0.01730
3100.55904,0.01716
3098.49886,0.01678
3096.43869,0.01647
3094.37852,0.01661
3092.31835,0.01674
3090.25818,0.01664
3088.19800,0.01643
3086.13783,0.01623
3084.07766,0.01634
3082.01749,0.01653
3079.95731,0.01639
3077.89714,0.01630
3075.83697,0.01641
3073.77680,0.01634
3071.71663,0.01618
3069.65645,0.01614
3067.59628,0.01608
3065.53611,0.01617
3063.47594,0.01654
3061.41577,0.01668
3059.35559,0.01648
3057.29542,0.01632
3055.23525,0.01602
3053.17508,0.01553
3051.11491,0.01529
3049.05473,0.01557
3046.99456,0.01610
3044.93439,0.01630
3042.87422,0.01590
3040.81404,0.01526
3038.75387,0.01492
3036.69370,0.01503
3034.63353,0.01524
3032.57336,0.01512
3030.51318,0.01482
3028.45301,0.01476
3026.39284,0.01479
3024.33267,0.01466
3022.27250,0.01450
3020.21232,0.01451
3018.15215,0.01467
3016.09198,0.01487
3014.03181,0.01496
3011.97163,0.01486
3009.91146,0.01455
3007.85129,0.01431
3005.79112,0.01455
3003.73095,0.01483
3001.67077,0.01469
2999.61060,0.01443
2997.55043,0.01443
2995.49026,0.01452
2993.43009,0.01454
2991.36991,0.01463
2989.30974,0.01484
2987.24957,0.01476
2985.18940,0.01447
2983.12923,0.01443
2981.06905,0.01446
2979.00888,0.01447
2976.94871,0.01466
2974.88854,0.01486
2972.82836,0.01484
2970.76819,0.01490
2968.70802,0.01508
2966.64785,0.01501
2964.58768,0.01492
2962.52750,0.01513
2960.46733,0.01526
2958.40716,0.01522
2956.34699,0.01514
2954.28682,0.01488
2952.22664,0.01472
2950.16647,0.01484
2948.10630,0.01501
2946.04613,0.01513
2943.98596,0.01518
2941.92578,0.01515
2939.86561,0.01511
2937.80544,0.01500
2935.74527,0.01501
2933.68509,0.01533
2931.62492,0.01559
2929.56475,0.01543
2927.50458,0.01520
2925.44441,0.01536
2923.38423,0.01567
2921.32406,0.01587
2919.26389,0.01584
2917.20372,0.01560
2915.14355,0.01550
2913.08337,0.01528
2911.02320,0.01460
2908.96303,0.01402
2906.90286,0.01408
2904.84268,0.01438
2902.78251,0.01423
2900.72234,0.01399
2898.66217,0.01425
2896.60200,0.01461
2894.54182,0.01454
2892.48165,0.01425
2890.42148,0.01410
2888.36131,0.01414
2886.30114,0.01419
2884.24096,0.01399
2882.18079,0.01376
2880.12062,0.01382
2878.06045,0.01396
2876.00028,0.01396
2873.94010,0.01379
2871.87993,0.01348
2869.81976,0.01331
2867.75959,0.01317
2865.69941,0.01294
2863.63924,0.01298
2861.57907,0.01317
2859.51890,0.01306
2857.45873,0.01270
2855.39855,0.01236
2853.33838,0.01221
2851.27821,0.01237
2849.21804,0.01270
2847.15787,0.01273
2845.09769,0.01239
2843.03752,0.01207
2840.97735,0.01188
2838.91718,0.01165
2836.85700,0.01144
2834.79683,0.01143
2832.73666,0.01164
2830.67649,0.01179
2828.61632,0.01161
2826.55614,0.01135
2824.49597,0.01117
2822.43580,0.01093
2820.37563,0.01073
2818.31546,0.01065
2816.25528,0.01072
2814.19511,0.01085
2812.13494,0.01090
2810.07477,0.01102
2808.01460,0.01115
2805.95442,0.01110
2803.89425,0.01091
2801.83408,0.01073
2799.77391,0.01068
2797.71373,0.01055
2795.65356,0.01035
2793.59339,0.01031
2791.53322,0.01053
2789.47305,0.01074
2787.41287,0.01056
2785.35270,0.01025
2783.29253,0.01027
2781.23236,0.01047
2779.17219,0.01039
2777.11201,0.01011
2775.05184,0.00992
2772.99167,0.00999
2770.93150,0.01024
2768.87133,0.01037
2766.81115,0.01037
2764.75098,0.01022
2762.69081,0.01003
2760.63064,0.00997
2758.57046,0.01000
2756.51029,0.01000
2754.45012,0.00995
2752.38995,0.00997
2750.32978,0.00982
2748.26960,0.00940
2746.20943,0.00924
2744.14926,0.00952
2742.08909,0.00971
2740.02892,0.00967
2737.96874,0.00970
2735.90857,0.00979
2733.84840,0.00972
2731.78823,0.00949
2729.72805,0.00929
2727.66788,0.00930
2725.60771,0.00944
2723.54754,0.00956
2721.48737,0.00963
2719.42719,0.00953
2717.36702,0.00935
2715.30685,0.00918
2713.24668,0.00897
2711.18651,0.00886
2709.12633,0.00900
2707.06616,0.00918
2705.00599,0.00905
2702.94582,0.00880
2700.88565,0.00885
2698.82547,0.00887
2696.76530,0.00871
2694.70513,0.00861
2692.64496,0.00856
2690.58478,0.00862
2688.52461,0.00867
2686.46444,0.00862
2684.40427,0.00862
2682.34410,0.00871
2680.28392,0.00876
2678.22375,0.00859
2676.16358,0.00833
2674.10341,0.00827
2672.04324,0.00831
2669.98306,0.00817
2667.92289,0.00810
2665.86272,0.00834
2663.80255,0.00853
2661.74238,0.00860
2659.68220,0.00878
2657.62203,0.00891
2655.56186,0.00877
2653.50169,0.00845
2651.44151,0.00816
2649.38134,0.00803
2647.32117,0.00810
2645.26100,0.00826
2643.20083,0.00827
2641.14065,0.00794
2639.08048,0.00755
2637.02031,0.00759
2634.96014,0.00789
2632.89997,0.00806
2630.83979,0.00811
2628.77962,0.00807
2626.71945,0.00804
2624.65928,0.00812
2622.59910,0.00808
2620.53893,0.00781
2618.47876,0.00754
2616.41859,0.00745
2614.35842,0.00748
2612.29824,0.00752
2610.23807,0.00773
2608.17790,0.00803
2606.11773,0.00804
2604.05756,0.00777
2601.99738,0.00734
2599.93721,0.00688
2597.87704,0.00679
2595.81687,0.00713
2593.75670,0.00763
2591.69652,0.00819
2589.63635,0.00844
2587.57618,0.00825
2585.51601,0.00797
2583.45583,0.00792
2581.39566,0.00797
2579.33549,0.00759
2577.27532,0.00706
2575.21515,0.00713
2573.15497,0.00749
2571.09480,0.00756
2569.03463,0.00723
2566.97446,0.00665
2564.91429,0.00627
2562.85411,0.00619
2560.79394,0.00649
2558.73377,0.00715
2556.67360,0.00739
2554.61342,0.00714
2552.55325,0.00697
2550.49308,0.00665
2548.43291,0.00646
2546.37274,0.00664
2544.31256,0.00656
2542.25239,0.00622
2540.19222,0.00623
2538.13205,0.00688
2536.07188,0.00758
2534.01170,0.00770
2531.95153,0.00745
2529.89136,0.00686
2527.83119,0.00596
2525.77102,0.00566
2523.71084,0.00642
2521.65067,0.00706
2519.59050,0.00684
2517.53033,0.00659
2515.47015,0.00679
2513.40998,0.00703
2511.34981,0.00723
2509.28964,0.00761
2507.22947,0.00798
2505.16929,0.00770
2503.10912,0.00725
2501.04895,0.00756
2498.98878,0.00784
2496.92861,0.00726
2494.86843,0.00676
2492.80826,0.00695
2490.74809,0.00726
2488.68792,0.00724
2486.62775,0.00704
2484.56757,0.00702
2482.50740,0.00692
2480.44723,0.00649
2478.38706,0.00647
2476.32688,0.00711
2474.26671,0.00751
2472.20654,0.00730
2470.14637,0.00702
2468.08620,0.00717
2466.02602,0.00723
2463.96585,0.00694
2461.90568,0.00688
2459.84551,0.00693
2457.78534,0.00692
2455.72516,0.00714
2453.66499,0.00735
2451.60482,0.00732
2449.54465,0.00712
2447.48447,0.00715
2445.42430,0.00778
2443.36413,0.00797
2441.30396,0.00741
2439.24379,0.00718
2437.18361,0.00723
2435.12344,0.00751
2433.06327,0.00820
2431.00310,0.00842
2428.94293,0.00811
2426.88275,0.00792
2424.82258,0.00773
2422.76241,0.00753
2420.70224,0.00740
2418.64207,0.00725
2416.58189,0.00720
2414.52172,0.00724
2412.46155,0.00726
2410.40138,0.00698
2408.34120,0.00632
2406.28103,0.00615
2404.22086,0.00679
2402.16069,0.00744
2400.10052,0.00726
2398.04034,0.00645
2395.98017,0.00631
2393.92000,0.00696
2391.85983,0.00767
2389.79966,0.00808
2387.73948,0.00827
2385.67931,0.00829
2383.61914,0.00804
2381.55897,0.00766
2379.49880,0.00734
2377.43862,0.00712
2375.37845,0.00659
2373.31828,0.00601
2371.25811,0.00610
2369.19793,0.00724
2367.13776,0.00876
2365.07759,0.00857
2363.01742,0.00715
2360.95725,0.00962
2358.89707,0.01112
2356.83690,0.00861
2354.77673,0.00512
2352.71656,0.00507
2350.65639,0.00962
2348.59621,0.01158
2346.53604,0.00625
2344.47587,0.00428
2342.41570,0.00497
2340.35552,0.00551
2338.29535,0.00650
2336.23518,0.00724
2334.17501,0.00737
2332.11484,0.00712
2330.05466,0.00743
2327.99449,0.00820
2325.93432,0.01020
2323.87415,0.01067
2321.81398,0.00967
2319.75380,0.00811
2317.69363,0.00797
2315.63346,0.00796
2313.57329,0.00790
2311.51312,0.00802
2309.45294,0.00825
2307.39277,0.00863
2305.33260,0.00865
2303.27243,0.00831
2301.21225,0.00801
2299.15208,0.00812
2297.09191,0.00816
2295.03174,0.00781
2292.97157,0.00729
2290.91139,0.00714
2288.85122,0.00739
2286.79105,0.00745
2284.73088,0.00737
2282.67071,0.00771
2280.61053,0.00808
2278.55036,0.00785
2276.49019,0.00733
2274.43002,0.00708
2272.36984,0.00697
2270.30967,0.00677
2268.24950,0.00629
2266.18933,0.00577
2264.12916,0.00596
2262.06898,0.00687
2260.00881,0.00751
2257.94864,0.00759
2255.88847,0.00736
2253.82830,0.00697
2251.76812,0.00645
2249.70795,0.00632
2247.64778,0.00731
2245.58761,0.00839
2243.52744,0.00827
2241.46726,0.00729
2239.40709,0.00653
2237.34692,0.00623
2235.28675,0.00621
2233.22657,0.00703
2231.16640,0.00798
2229.10623,0.00724
2227.04606,0.00557
2224.98589,0.00471
2222.92571,0.00458
2220.86554,0.00494
2218.80537,0.00572
2216.74520,0.00655
2214.68503,0.00635
2212.62485,0.00525
2210.56468,0.00499
2208.50451,0.00523
2206.44434,0.00538
2204.38417,0.00592
2202.32399,0.00603
2200.26382,0.00602
2198.20365,0.00725
2196.14348,0.00822
2194.08330,0.00767
2192.02313,0.00725
2189.96296,0.00679
2187.90279,0.00505
2185.84262,0.00347
2183.78244,0.00312
2181.72227,0.00362
2179.66210,0.00502
2177.60193,0.00643
2175.54176,0.00598
2173.48158,0.00434
2171.42141,0.00407
2169.36124,0.00511
2167.30107,0.00610
2165.24089,0.00706
2163.18072,0.00728
2161.12055,0.00536
2159.06038,0.00297
2157.00021,0.00210
2154.94003,0.00196
2152.87986,0.00244
2150.81969,0.00301
2148.75952,0.00275
2146.69935,0.00289
2144.63917,0.00366
2142.57900,0.00302
2140.51883,0.00185
2138.45866,0.00269
2136.39849,0.00365
2134.33831,0.00286
2132.27814,0.00278
2130.21797,0.00447
2128.15780,0.00586
2126.09762,0.00573
2124.03745,0.00506
2121.97728,0.00486
2119.91711,0.00479
2117.85694,0.00483
2115.79676,0.00544
2113.73659,0.00550
2111.67642,0.00450
2109.61625,0.00426
2107.55608,0.00566
2105.49590,0.00675
2103.43573,0.00623
2101.37556,0.00562
2099.31539,0.00568
2097.25521,0.00562
2095.19504,0.00509
2093.13487,0.00464
2091.07470,0.00501
2089.01453,0.00604
2086.95435,0.00699
2084.89418,0.00713
2082.83401,0.00645
2080.77384,0.00557
2078.71367,0.00483
2076.65349,0.00453
2074.59332,0.00497
2072.53315,0.00599
2070.47298,0.00671
2068.41281,0.00680
2066.35263,0.00652
2064.29246,0.00559
2062.23229,0.00461
2060.17212,0.00485
2058.11194,0.00553
2056.05177,0.00543
2053.99160,0.00595
2051.93143,0.00756
2049.87126,0.00822
2047.81108,0.00776
2045.75091,0.00692
2043.69074,0.00550
2041.63057,0.00480
2039.57040,0.00520
2037.51022,0.00608
2035.45005,0.00739
2033.38988,0.00711
2031.32971,0.00464
2029.26954,0.00261
2027.20936,0.00219
2025.14919,0.00240
2023.08902,0.00168
2021.02885,0.00000
2018.96867,0.00000
2016.90850,0.00240
2014.84833,0.00473
2012.78816,0.00670
2010.72799,0.00781
2008.66781,0.00705
2006.60764,0.00673
2004.54747,0.00720
2002.48730,0.00632
2000.42713,0.00500
1998.36695,0.00471
1996.30678,0.00470
1994.24661,0.00420
1992.18644,0.00385
1990.12626,0.00469
1988.06609,0.00592
1986.00592,0.00637
1983.94575,0.00534
1981.88558,0.00314
1979.82540,0.00345
1977.76523,0.00675
1975.70506,0.00758
1973.64489,0.00529
1971.58472,0.00427
1969.52454,0.00515
1967.46437,0.00595
1965.40420,0.00624
1963.34403,0.00616
1961.28386,0.00572
1959.22368,0.00571
1957.16351,0.00616
1955.10334,0.00626
1953.04317,0.00613
1950.98299,0.00605
1948.92282,0.00593
1946.86265,0.00580
1944.80248,0.00545
1942.74231,0.00497
1940.68213,0.00481
1938.62196,0.00484
1936.56179,0.00520
1934.50162,0.00594
1932.44145,0.00600
1930.38127,0.00489
1928.32110,0.00357
1926.26093,0.00271
1924.20076,0.00265
1922.14059,0.00364
1920.08041,0.00483
1918.02024,0.00515
1915.96007,0.00486
1913.89990,0.00493
1911.83972,0.00524
1909.77955,0.00518
1907.71938,0.00488
1905.65921,0.00455
1903.59904,0.00434
1901.53886,0.00441
1899.47869,0.00446
1897.41852,0.00439
1895.35835,0.00448
1893.29818,0.00483
1891.23800,0.00513
1889.17783,0.00511
1887.11766,0.00504
1885.05749,0.00500
1882.99731,0.00476
1880.93714,0.00465
1878.87697,0.00496
1876.81680,0.00538
1874.75663,0.00554
1872.69645,0.00544
1870.63628,0.00514
1868.57611,0.00489
1866.51594,0.00485
1864.45577,0.00453
1862.39559,0.00385
1860.33542,0.00375
1858.27525,0.00457
1856.21508,0.00548
1854.15491,0.00587
1852.09473,0.00566
1850.03456,0.00509
1847.97439,0.00492
1845.91422,0.00546
1843.85404,0.00595
1841.79387,0.00577
1839.73370,0.00536
1837.67353,0.00517
1835.61336,0.00526
1833.55318,0.00531
1831.49301,0.00517
1829.43284,0.00509
1827.37267,0.00520
1825.31250,0.00508
1823.25232,0.00455
1821.19215,0.00401
1819.13198,0.00376
1817.07181,0.00377
1815.01163,0.00401
1812.95146,0.00455
1810.89129,0.00497
1808.83112,0.00489
1806.77095,0.00455
1804.71077,0.00431
1802.65060,0.00428
1800.59043,0.00444
1798.53026,0.00468
1796.47009,0.00486
1794.40991,0.00491
1792.34974,0.00477
1790.28957,0.00456
1788.22940,0.00452
1786.16923,0.00479
1784.10905,0.00523
1782.04888,0.00544
1779.98871,0.00533
1777.92854,0.00528
1775.86836,0.00556
1773.80819,0.00592
1771.74802,0.00595
1769.68785,0.00563
1767.62768,0.00529
1765.56750,0.00520
1763.50733,0.00543
1761.44716,0.00579
1759.38699,0.00590
1757.32682,0.00573
1755.26664,0.00552
1753.20647,0.00558
1751.14630,0.00596
1749.08613,0.00642
1747.02596,0.00669
1744.96578,0.00675
1742.90561,0.00670
1740.84544,0.00653
1738.78527,0.00637
1736.72509,0.00648
1734.66492,0.00673
1732.60475,0.00686
1730.54458,0.00691
1728.48441,0.00688
1726.42423,0.00675
1724.36406,0.00664
1722.30389,0.00660
1720.24372,0.00656
1718.18355,0.00654
1716.12337,0.00675
1714.06320,0.00702
1712.00303,0.00703
1709.94286,0.00690
1707.88268,0.00684
1705.82251,0.00685
1703.76234,0.00689
1701.70217,0.00706
1699.64200,0.00762
1697.58182,0.00851
1695.52165,0.00909
1693.46148,0.00923
1691.40131,0.00930
1689.34114,0.00951
1687.28096,0.00978
1685.22079,0.01015
1683.16062,0.01082
1681.10045,0.01182
1679.04028,0.01283
1676.98010,0.01347
1674.91993,0.01373
1672.85976,0.01405
1670.79959,0.01474
1668.73941,0.01552
1666.67924,0.01593
1664.61907,0.01614
1662.55890,0.01643
1660.49873,0.01673
1658.43855,0.01683
1656.37838,0.01663
1654.31821,0.01628
1652.25804,0.01628
1650.19787,0.01658
1648.13769,0.01679
1646.07752,0.01687
1644.01735,0.01678
1641.95718,0.01662
1639.89701,0.01651
1637.83683,0.01641
1635.77666,0.01608
1633.71649,0.01549
1631.65632,0.01502
1629.59614,0.01481
1627.53597,0.01470
1625.47580,0.01430
1623.41563,0.01349
1621.35546,0.01288
1619.29528,0.01274
1617.23511,0.01268
1615.17494,0.01254
1613.11477,0.01249
1611.05460,0.01246
1608.99442,0.01226
1606.93425,0.01200
1604.87408,0.01184
1602.81391,0.01178
1600.75373,0.01182
1598.69356,0.01188
1596.63339,0.01168
1594.57322,0.01118
1592.51305,0.01080
1590.45287,0.01071
1588.39270,0.01062
1586.33253,0.01034
1584.27236,0.01011
1582.21219,0.01019
1580.15201,0.01040
1578.09184,0.01035
1576.03167,0.00997
1573.97150,0.00973
1571.91133,0.00978
1569.85115,0.00979
1567.79098,0.00963
1565.73081,0.00946
1563.67064,0.00946
1561.61046,0.00956
1559.55029,0.00951
1557.49012,0.00941
1555.42995,0.00964
1553.36978,0.00997
1551.30960,0.01010
1549.24943,0.00998
1547.18926,0.00975
1545.12909,0.00945
1543.06892,0.00918
1541.00874,0.00923
1538.94857,0.00934
1536.88840,0.00909
1534.82823,0.00867
1532.76805,0.00833
1530.70788,0.00816
1528.64771,0.00807
1526.58754,0.00798
1524.52737,0.00789
1522.46719,0.00784
1520.40702,0.00776
1518.34685,0.00754
1516.28668,0.00723
1514.22651,0.00702
1512.16633,0.00696
1510.10616,0.00713
1508.04599,0.00763
1505.98582,0.00816
1503.92565,0.00802
1501.86547,0.00741
1499.80530,0.00689
1497.74513,0.00664
1495.68496,0.00647
1493.62478,0.00629
1491.56461,0.00612
1489.50444,0.00600
1487.44427,0.00608
1485.38410,0.00643
1483.32392,0.00676
1481.26375,0.00677
1479.20358,0.00661
1477.14341,0.00650
1475.08324,0.00666
1473.02306,0.00711
1470.96289,0.00746
1468.90272,0.00751
1466.84255,0.00754
1464.78238,0.00760
1462.72220,0.00758
1460.66203,0.00752
1458.60186,0.00744
1456.54169,0.00735
1454.48151,0.00742
1452.42134,0.00758
1450.36117,0.00774
1448.30100,0.00793
1446.24083,0.00812
1444.18065,0.00810
1442.12048,0.00791
1440.06031,0.00775
1438.00014,0.00769
1435.93997,0.00767
1433.87979,0.00763
1431.81962,0.00762
1429.75945,0.00769
1427.69928,0.00777
1425.63910,0.00780
1423.57893,0.00777
1421.51876,0.00765
1419.45859,0.00746
1417.39842,0.00735
1415.33824,0.00743
1413.27807,0.00755
1411.21790,0.00764
1409.15773,0.00773
1407.09756,0.00775
1405.03738,0.00764
1402.97721,0.00743
1400.91704,0.00725
1398.85687,0.00708
1396.79670,0.00686
1394.73652,0.00673
1392.67635,0.00660
1390.61618,0.00643
1388.55601,0.00640
1386.49583,0.00657
1384.43566,0.00675
1382.37549,0.00680
1380.31532,0.00672
1378.25515,0.00663
1376.19497,0.00667
1374.13480,0.00675
1372.07463,0.00663
1370.01446,0.00643
1367.95429,0.00632
1365.89411,0.00620
1363.83394,0.00609
1361.77377,0.00614
1359.71360,0.00626
1357.65343,0.00623
1355.59325,0.00607
1353.53308,0.00594
1351.47291,0.00595
1349.41274,0.00595
1347.35256,0.00587
1345.29239,0.00582
1343.23222,0.00587
1341.17205,0.00587
1339.11188,0.00571
1337.05170,0.00547
1334.99153,0.00541
1332.93136,0.00552
1330.87119,0.00556
1328.81102,0.00551
1326.75084,0.00559
1324.69067,0.00573
1322.63050,0.00577
1320.57033,0.00583
1318.51015,0.00597
1316.44998,0.00605
1314.38981,0.00606
1312.32964,0.00611
1310.26947,0.00606
1308.20929,0.00596
1306.14912,0.00604
1304.08895,0.00625
1302.02878,0.00640
1299.96861,0.00654
1297.90843,0.00672
1295.84826,0.00680
1293.78809,0.00677
1291.72792,0.00673
1289.66775,0.00677
1287.60757,0.00684
1285.54740,0.00673
1283.48723,0.00639
1281.42706,0.00611
1279.36688,0.00615
1277.30671,0.00637
1275.24654,0.00643
1273.18637,0.00629
1271.12620,0.00606
1269.06602,0.00588
1267.00585,0.00590
1264.94568,0.00615
1262.88551,0.00638
1260.82534,0.00647
1258.76516,0.00664
1256.70499,0.00688
1254.64482,0.00683
1252.58465,0.00656
1250.52447,0.00638
1248.46430,0.00638
1246.40413,0.00648
1244.34396,0.00651
1242.28379,0.00647
1240.22361,0.00636
1238.16344,0.00606
1236.10327,0.00578
1234.04310,0.00567
1231.98293,0.00555
1229.92275,0.00547
1227.86258,0.00546
1225.80241,0.00539
1223.74224,0.00516
1221.68207,0.00487
1219.62189,0.00472
1217.56172,0.00464
1215.50155,0.00458
1213.44138,0.00455
1211.38120,0.00441
1209.32103,0.00413
1207.26086,0.00397
1205.20069,0.00409
1203.14052,0.00419
1201.08034,0.00390
1199.02017,0.00340
1196.96000,0.00320
1194.89983,0.00333
1192.83966,0.00355
1190.77948,0.00372
1188.71931,0.00369
1186.65914,0.00347
1184.59897,0.00338
1182.53880,0.00349
1180.47862,0.00363
1178.41845,0.00370
1176.35828,0.00379
1174.29811,0.00407
1172.23793,0.00442
1170.17776,0.00468
1168.11759,0.00492
1166.05742,0.00525
1163.99725,0.00543
1161.93707,0.00555
1159.87690,0.00598
1157.81673,0.00631
1155.75656,0.00628
1153.69639,0.00648
1151.63621,0.00693
1149.57604,0.00730
1147.51587,0.00771
1145.45570,0.00811
1143.39552,0.00843
1141.33535,0.00878
1139.27518,0.00897
1137.21501,0.00899
1135.15484,0.00938
1133.09466,0.01013
1131.03449,0.01077
1128.97432,0.01143
1126.91415,0.01218
1124.85398,0.01279
1122.79380,0.01330
1120.73363,0.01380
1118.67346,0.01431
1116.61329,0.01487
1114.55312,0.01551
1112.49294,0.01607
1110.43277,0.01647
1108.37260,0.01694
1106.31243,0.01745
1104.25225,0.01765
1102.19208,0.01794
1100.13191,0.01850
1098.07174,0.01895
1096.01157,0.01931
1093.95139,0.01964
1091.89122,0.01971
1089.83105,0.01964
1087.77088,0.01965
1085.71071,0.01992
1083.65053,0.02038
1081.59036,0.02085
1079.53019,0.02133
1077.47002,0.02166
1075.40985,0.02181
1073.34967,0.02181
1071.28950,0.02187
1069.22933,0.02218
1067.16916,0.02235
1065.10898,0.02196
1063.04881,0.02144
1060.98864,0.02133
1058.92847,0.02134
1056.86830,0.02124
1054.80812,0.02125
1052.74795,0.02124
1050.68778,0.02086
1048.62761,0.02014
1046.56744,0.01938
1044.50726,0.01889
1042.44709,0.01863
1040.38692,0.01835
1038.32675,0.01792
1036.26657,0.01741
1034.20640,0.01683
1032.14623,0.01623
1030.08606,0.01560
1028.02589,0.01494
1025.96571,0.01429
1023.90554,0.01372
1021.84537,0.01331
1019.78520,0.01315
1017.72503,0.01317
1015.66485,0.01282
1013.60468,0.01210
1011.54451,0.01180
1009.48434,0.01178
1007.42417,0.01176
1005.36399,0.01208
1003.30382,0.01273
1001.24365,0.01314
999.18348,0.01306
997.12330,0.01301
995.06313,0.01324
993.00296,0.01344
990.94279,0.01372
988.88262,0.01416
986.82244,0.01434
984.76227,0.01434
982.70210,0.01452
980.64193,0.01477
978.58176,0.01482
976.52158,0.01484
974.46141,0.01485
972.40124,0.01453
970.34107,0.01410
968.28089,0.01376
966.22072,0.01345
964.16055,0.01313
962.10038,0.01270
960.04021,0.01214
957.98003,0.01160
955.91986,0.01119
953.85969,0.01077
951.79952,0.01029
949.73935,0.00978
947.67917,0.00913
945.61900,0.00844
943.55883,0.00799
941.49866,0.00782
939.43849,0.00785
937.37831,0.00786
935.31814,0.00752
933.25797,0.00716
931.19780,0.00697
929.13762,0.00659
927.07745,0.00622
925.01728,0.00605
922.95711,0.00580
920.89694,0.00549
918.83676,0.00540
916.77659,0.00518
914.71642,0.00489
912.65625,0.00517
910.59608,0.00532
908.53590,0.00470
906.47573,0.00438
904.41556,0.00479
902.35539,0.00530
900.29522,0.00591
898.23504,0.00629
896.17487,0.00584
894.11470,0.00535
892.05453,0.00543
889.99435,0.00536
887.93418,0.00497
885.87401,0.00515
883.81384,0.00598
881.75367,0.00649
879.69349,0.00647
877.63332,0.00665
875.57315,0.00724
873.51298,0.00771
871.45281,0.00765
869.39263,0.00742
867.33246,0.00759
865.27229,0.00798
863.21212,0.00850
861.15194,0.00903
859.09177,0.00895
857.03160,0.00834
854.97143,0.00781
852.91126,0.00763
850.85108,0.00780
848.79091,0.00787
846.73074,0.00782
844.67057,0.00790
842.61040,0.00783
840.55022,0.00736
838.49005,0.00660
836.42988,0.00637
834.36971,0.00687
832.30954,0.00713
830.24936,0.00695
828.18919,0.00670
826.12902,0.00668
824.06885,0.00670
822.00867,0.00615
819.94850,0.00570
817.88833,0.00587
815.82816,0.00588
813.76799,0.00562
811.70781,0.00533
809.64764,0.00496
807.58747,0.00474
805.52730,0.00523
803.46713,0.00616
801.40695,0.00641
799.34678,0.00590
797.28661,0.00543
795.22644,0.00546
793.16627,0.00558
791.10609,0.00507
789.04592,0.00451
786.98575,0.00484
784.92558,0.00541
782.86540,0.00492
780.80523,0.00375
778.74506,0.00326
776.68489,0.00359
774.62472,0.00414
772.56454,0.00477
770.50437,0.00530
768.44420,0.00546
766.38403,0.00539
764.32386,0.00500
762.26368,0.00416
760.20351,0.00368
758.14334,0.00386
756.08317,0.00388
754.02299,0.00385
751.96282,0.00442
749.90265,0.00492
747.84248,0.00482
745.78231,0.00475
743.72213,0.00478
741.66196,0.00439
739.60179,0.00415
737.54162,0.00440
735.48145,0.00401
733.42127,0.00265
731.36110,0.00179
729.30093,0.00257
727.24076,0.00415
725.18059,0.00484
723.12041,0.00445
721.06024,0.00331
719.00007,0.00365
716.93990,0.00434
714.87972,0.00437
712.81955,0.00410
710.75938,0.00404
708.69921,0.00424
706.63904,0.00395
704.57886,0.00343
702.51869,0.00378
700.45852,0.00437
698.39835,0.00410
696.33818,0.00363
694.27800,0.00373
692.21783,0.00384
690.15766,0.00376
688.09749,0.00384
686.03731,0.00427
683.97714,0.00477
681.91697,0.00466
679.85680,0.00439
677.79663,0.00493
675.73645,0.00592
673.67628,0.00776
671.61611,0.01109
669.55594,0.00901
667.49577,0.00525
665.43559,0.01114
663.37542,0.00755
661.31525,0.00467
659.25508,0.00535
657.19491,0.00596
655.13473,0.00487
653.07456,0.00401
651.01439,0.00526
648.95422,0.00679
646.89404,0.00671
644.83387,0.00564
642.77370,0.00482
640.71353,0.00381
638.65336,0.00341
636.59318,0.00456
634.53301,0.00610
632.47284,0.00632
630.41267,0.00536
628.35250,0.00470
626.29232,0.00498
624.23215,0.00465
622.17198,0.00418
620.11181,0.00345
618.05164,0.00082
615.99146,0.00000
613.93129,0.00209
611.87112,0.00252
609.81095,0.00067
607.75077,0.00053
605.69060,0.00080
603.63043,-0.00124
601.57026,-0.00190
599.51009,0.00000
