3996.73391,0.00047
3994.67373,0.00061
3992.61356,0.00073
3990.55339,0.00084
3988.49322,0.00098
3986.43305,0.00118
3984.37287,0.00117
3982.31270,0.00079
3980.25253,0.00042
3978.19236,0.00039
3976.13219,0.00060
3974.07201,0.00087
3972.01184,0.00120
3969.95167,0.00144
3967.89150,0.00127
3965.83133,0.00076
3963.77115,0.00026
3961.71098,0.00000
3959.65081,0.00007
3957.59064,0.00030
3955.53046,0.00046
3953.47029,0.00062
3951.41012,0.00090
3949.34995,0.00103
3947.28978,0.00091
3945.22960,0.00076
3943.16943,0.00064
3941.10926,0.00053
3939.04909,0.00053
3936.98892,0.00076
3934.92874,0.00110
3932.86857,0.00121
3930.80840,0.00102
3928.74823,0.00099
3926.68805,0.00121
3924.62788,0.00118
3922.56771,0.00087
3920.50754,0.00084
3918.44737,0.00094
3916.38719,0.00058
3914.32702,0.00008
3912.26685,0.00014
3910.20668,0.00075
3908.14651,0.00138
3906.08633,0.00162
3904.02616,0.00134
3901.96599,0.00094
3899.90582,0.00073
3897.84565,0.00081
3895.78547,0.00119
3893.72530,0.00135
3891.66513,0.00091
3889.60496,0.00060
3887.54478,0.00066
3885.48461,0.00039
3883.42444,0.00008
3881.36427,0.00014
3879.30410,0.00022
3877.24392,0.00053
3875.18375,0.00093
3873.12358,0.00103
3871.06341,0.00100
3869.00324,0.00113
3866.94306,0.00141
3864.88289,0.00127
3862.82272,0.00064
3860.76255,0.00043
3858.70237,0.00107
3856.64220,0.00207
3854.58203,0.00206
3852.52186,0.00061
3850.46169,0.00000
3848.40151,0.00073
3846.34134,0.00152
3844.28117,0.00187
3842.22100,0.00184
3840.16083,0.00149
3838.10065,0.00106
3836.04048,0.00093
3833.98031,0.00083
3831.92014,0.00041
3829.85997,0.00000
3827.79979,0.00001
3825.73962,0.00049
3823.67945,0.00111
3821.61928,0.00118
3819.55910,0.00082
3817.49893,0.00076
3815.43876,0.00076
3813.37859,0.00079
3811.31842,0.00092
3809.25824,0.00099
3807.19807,0.00115
3805.13790,0.00158
3803.07773,0.00164
3801.01756,0.00078
3798.95738,0.00006
3796.89721,0.00025
3794.83704,0.00070
3792.77687,0.00094
3790.71670,0.00107
3788.65652,0.00135
3786.59635,0.00161
3784.53618,0.00155
3782.47601,0.00137
3780.41583,0.00131
3778.35566,0.00122
3776.29549,0.00102
3774.23532,0.00098
3772.17515,0.00124
3770.11497,0.00147
3768.05480,0.00151
3765.99463,0.00165
3763.93446,0.00183
3761.87429,0.00171
3759.81411,0.00118
3757.75394,0.00077
3755.69377,0.00100
3753.63360,0.00126
3751.57342,0.00068
3749.51325,0.00000
3747.45308,0.00047
3745.39291,0.00107
3743.33274,0.00081
3741.27256,0.00063
3739.21239,0.00111
3737.15222,0.00174
3735.09205,0.00160
3733.03188,0.00065
3730.97170,0.00027
3728.91153,0.00080
3726.85136,0.00136
3724.79119,0.00145
3722.73102,0.00135
3720.67084,0.00110
3718.61067,0.00086
3716.55050,0.00112
3714.49033,0.00163
3712.43015,0.00145
3710.36998,0.00085
3708.30981,0.00103
3706.24964,0.00159
3704.18947,0.00169
3702.12929,0.00129
3700.06912,0.00104
3698.00895,0.00141
3695.94878,0.00214
3693.88861,0.00278
3691.82843,0.00287
3689.76826,0.00248
3687.70809,0.00208
3685.64792,0.00192
3683.58775,0.00195
3681.52757,0.00213
3679.46740,0.00254
3677.40723,0.00286
3675.34706,0.00257
3673.28688,0.00233
3671.22671,0.00250
3669.16654,0.00241
3667.10637,0.00232
3665.04620,0.00273
3662.98602,0.00319
3660.92585,0.00329
3658.86568,0.00329
3656.80551,0.00329
3654.74534,0.00342
3652.68516,0.00391
3650.62499,0.00414
3648.56482,0.00350
3646.50465,0.00272
3644.44447,0.00288
3642.38430,0.00387
3640.32413,0.00475
3638.26396,0.00486
3636.20379,0.00473
3634.14361,0.00510
3632.08344,0.00587
3630.02327,0.00637
3627.96310,0.00639
3625.90293,0.00646
3623.84275,0.00679
3621.78258,0.00719
3619.72241,0.00740
3617.66224,0.00752
3615.60207,0.00788
3613.54189,0.00832
3611.48172,0.00879
3609.42155,0.00921
3607.36138,0.00915
3605.30120,0.00890
3603.24103,0.00922
3601.18086,0.01002
3599.12069,0.01066
3597.06052,0.01087
3595.00034,0.01080
3592.94017,0.01078
3590.88000,0.01089
3588.81983,0.01089
3586.75966,0.01093
3584.69948,0.01168
3582.63931,0.01271
3580.57914,0.01303
3578.51897,0.01275
3576.45879,0.01262
3574.39862,0.01276
3572.33845,0.01312
3570.27828,0.01382
3568.21811,0.01434
3566.15793,0.01411
3564.09776,0.01379
3562.03759,0.01405
3559.97742,0.01458
3557.91725,0.01491
3555.85707,0.01503
3553.79690,0.01514
3551.73673,0.01555
3549.67656,0.01622
3547.61639,0.01662
3545.55621,0.01669
3543.49604,0.01696
3541.43587,0.01753
3539.37570,0.01813
3537.31552,0.01860
3535.25535,0.01872
3533.19518,0.01850
3531.13501,0.01828
3529.07484,0.01841
3527.01466,0.01892
3524.95449,0.01959
3522.89432,0.02006
3520.83415,0.02008
3518.77398,0.01989
3516.71380,0.01987
3514.65363,0.02006
3512.59346,0.02025
3510.53329,0.02042
3508.47312,0.02075
3506.41294,0.02121
3504.35277,0.02152
3502.29260,0.02172
3500.23243,0.02206
3498.17225,0.02241
3496.11208,0.02271
3494.05191,0.02315
3491.99174,0.02357
3489.93157,0.02376
3487.87139,0.02378
3485.81122,0.02371
3483.75105,0.02360
3481.69088,0.02359
3479.63071,0.02369
3477.57053,0.02377
3475.51036,0.02414
3473.45019,0.02501
3471.39002,0.02577
3469.32984,0.02576
3467.26967,0.02527
3465.20950,0.02511
3463.14933,0.02563
3461.08916,0.02634
3459.02898,0.02669
3456.96881,0.02664
3454.90864,0.02641
3452.84847,0.02622
3450.78830,0.02627
3448.72812,0.02667
3446.66795,0.02728
3444.60778,0.02763
3442.54761,0.02767
3440.48744,0.02784
3438.42726,0.02823
3436.36709,0.02862
3434.30692,0.02885
3432.24675,0.02886
3430.18657,0.02893
3428.12640,0.02917
3426.06623,0.02925
3424.00606,0.02922
3421.94589,0.02922
3419.88571,0.02927
3417.82554,0.02948
3415.76537,0.02967
3413.70520,0.02977
3411.64503,0.02999
3409.58485,0.03032
3407.52468,0.03043
3405.46451,0.03014
3403.40434,0.02996
3401.34416,0.03034
3399.28399,0.03085
3397.22382,0.03102
3395.16365,0.03138
3393.10348,0.03184
3391.04330,0.03165
3388.98313,0.03108
3386.92296,0.03103
3384.86279,0.03148
3382.80262,0.03176
3380.74244,0.03174
3378.68227,0.03179
3376.62210,0.03196
3374.56193,0.03209
3372.50176,0.03204
3370.44158,0.03210
3368.38141,0.03262
3366.32124,0.03310
3364.26107,0.03298
3362.20089,0.03281
3360.14072,0.03306
3358.08055,0.03315
3356.02038,0.03292
3353.96021,0.03300
3351.90003,0.03329
3349.83986,0.03312
3347.77969,0.03258
3345.71952,0.03222
3343.65935,0.03236
3341.59917,0.03283
3339.53900,0.03319
3337.47883,0.03341
3335.41866,0.03364
3333.35849,0.03373
3331.29831,0.03348
3329.23814,0.03313
3327.17797,0.03296
3325.11780,0.03290
3323.05762,0.03300
3320.99745,0.03322
3318.93728,0.03336
3316.87711,0.03350
3314.81694,0.03383
3312.75676,0.03408
3310.69659,0.03402
3308.63642,0.03384
3306.57625,0.03362
3304.51608,0.03339
3302.45590,0.03331
3300.39573,0.03333
3298.33556,0.03343
3296.27539,0.03363
3294.21521,0.03394
3292.15504,0.03425
3290.09487,0.03424
3288.03470,0.03390
3285.97453,0.03357
3283.91435,0.03354
3281.85418,0.03385
3279.79401,0.03414
3277.73384,0.03410
3275.67367,0.03392
3273.61349,0.03400
3271.55332,0.03426
3269.49315,0.03446
3267.43298,0.03462
3265.37281,0.03471
3263.31263,0.03469
3261.25246,0.03464
3259.19229,0.03449
3257.13212,0.03416
3255.07194,0.03401
3253.01177,0.03430
3250.95160,0.03463
3248.89143,0.03462
3246.83126,0.03430
3244.77108,0.03393
3242.71091,0.03390
3240.65074,0.03428
3238.59057,0.03469
3236.53040,0.03476
3234.47022,0.03472
3232.41005,0.03494
3230.34988,0.03495
3228.28971,0.03451
3226.22954,0.03417
3224.16936,0.03413
3222.10919,0.03410
3220.04902,0.03386
3217.98885,0.03374
3215.92867,0.03411
3213.86850,0.03443
3211.80833,0.03438
3209.74816,0.03428
3207.68799,0.03429
3205.62781,0.03433
3203.56764,0.03417
3201.50747,0.03390
3199.44730,0.03386
3197.38713,0.03401
3195.32695,0.03411
3193.26678,0.03403
3191.20661,0.03387
3189.14644,0.03380
3187.08626,0.03363
3185.02609,0.03322
3182.96592,0.03291
3180.90575,0.03285
3178.84558,0.03303
3176.78540,0.03334
3174.72523,0.03361
3172.66506,0.03359
3170.60489,0.03335
3168.54472,0.03326
3166.48454,0.03324
3164.42437,0.03308
3162.36420,0.03279
3160.30403,0.03246
3158.24386,0.03238
3156.18368,0.03269
3154.12351,0.03297
3152.06334,0.03295
3150.00317,0.03263
3147.94299,0.03209
3145.88282,0.03169
3143.82265,0.03156
3141.76248,0.03146
3139.70231,0.03157
3137.64213,0.03176
3135.58196,0.03164
3133.52179,0.03131
3131.46162,0.03098
3129.40145,0.03088
3127.34127,0.03102
3125.28110,0.03108
3123.22093,0.03100
3121.16076,0.03094
3119.10058,0.03088
3117.04041,0.03078
3114.98024,0.03069
3112.92007,0.03060
3110.85990,0.03053
3108.79972,0.03043
3106.73955,0.03015
3104.67938,0.02976
3102.61921,0.02945
3100.55904,0.02939
3098.49886,0.02965
3096.43869,0.02996
3094.37852,0.02994
3092.31835,0.02972
3090.25818,0.02948
3088.19800,0.02920
3086.13783,0.02894
3084.07766,0.02878
3082.01749,0.02865
3079.95731,0.02856
3077.89714,0.02862
3075.83697,0.02874
3073.77680,0.02864
3071.71663,0.02839
3069.65645,0.02825
3067.59628,0.02826
3065.53611,0.02827
3063.47594,0.02812
3061.41577,0.02784
3059.35559,0.02760
3057.29542,0.02726
3055.23525,0.02675
3053.17508,0.02645
3051.11491,0.02650
3049.05473,0.02668
3046.99456,0.02697
3044.93439,0.02717
3042.87422,0.02693
3040.81404,0.02645
3038.75387,0.02624
3036.69370,0.02623
3034.63353,0.02609
3032.57336,0.02599
3030.51318,0.02588
3028.45301,0.02557
3026.39284,0.02536
3024.33267,0.02529
3022.27250,0.02505
3020.21232,0.02473
3018.15215,0.02460
3016.09198,0.02473
3014.03181,0.02483
3011.97163,0.02470
3009.91146,0.02446
3007.85129,0.02430
3005.79112,0.02423
3003.73095,0.02421
3001.67077,0.02410
2999.61060,0.02385
2997.55043,0.02366
2995.49026,0.02357
2993.43009,0.02349
2991.36991,0.02354
2989.30974,0.02374
2987.24957,0.02379
2985.18940,0.02354
2983.12923,0.02322
2981.06905,0.02307
2979.00888,0.02300
2976.94871,0.02293
2974.88854,0.02308
2972.82836,0.02326
2970.76819,0.02303
2968.70802,0.02258
2966.64785,0.02247
2964.58768,0.02275
2962.52750,0.02301
2960.46733,0.02296
2958.40716,0.02287
2956.34699,0.02297
2954.28682,0.02296
2952.22664,0.02269
2950.16647,0.02243
2948.10630,0.02249
2946.04613,0.02266
2943.98596,0.02277
2941.92578,0.02289
2939.86561,0.02290
2937.80544,0.02274
2935.74527,0.02261
2933.68509,0.02265
2931.62492,0.02286
2929.56475,0.02300
2927.50458,0.02295
2925.44441,0.02289
2923.38423,0.02303
2921.32406,0.02304
2919.26389,0.02263
2917.20372,0.02193
2915.14355,0.02126
2913.08337,0.02098
2911.02320,0.02088
2908.96303,0.02067
2906.90286,0.02058
2904.84268,0.02055
2902.78251,0.02032
2900.72234,0.02008
2898.66217,0.02002
2896.60200,0.02000
2894.54182,0.01980
2892.48165,0.01941
2890.42148,0.01913
2888.36131,0.01900
2886.30114,0.01893
2884.24096,0.01889
2882.18079,0.01872
2880.12062,0.01867
2878.06045,0.01890
2876.00028,0.01894
2873.94010,0.01865
2871.87993,0.01828
2869.81976,0.01804
2867.75959,0.01803
2865.69941,0.01813
2863.63924,0.01810
2861.57907,0.01795
2859.51890,0.01780
2857.45873,0.01774
2855.39855,0.01785
2853.33838,0.01789
2851.27821,0.01766
2849.21804,0.01732
2847.15787,0.01696
2845.09769,0.01661
2843.03752,0.01628
2840.97735,0.01593
2838.91718,0.01567
2836.85700,0.01553
2834.79683,0.01542
2832.73666,0.01523
2830.67649,0.01516
2828.61632,0.01526
2826.55614,0.01537
2824.49597,0.01554
2822.43580,0.01560
2820.37563,0.01520
2818.31546,0.01469
2816.25528,0.01447
2814.19511,0.01443
2812.13494,0.01433
2810.07477,0.01415
2808.01460,0.01397
2805.95442,0.01382
2803.89425,0.01396
2801.83408,0.01423
2799.77391,0.01411
2797.71373,0.01374
2795.65356,0.01348
2793.59339,0.01336
2791.53322,0.01344
2789.47305,0.01366
2787.41287,0.01371
2785.35270,0.01351
2783.29253,0.01320
2781.23236,0.01310
2779.17219,0.01331
2777.11201,0.01339
2775.05184,0.01318
2772.99167,0.01293
2770.93150,0.01276
2768.87133,0.01268
2766.81115,0.01267
2764.75098,0.01264
2762.69081,0.01258
2760.63064,0.01257
2758.57046,0.01254
2756.51029,0.01226
2754.45012,0.01191
2752.38995,0.01192
2750.32978,0.01216
2748.26960,0.01215
2746.20943,0.01186
2744.14926,0.01160
2742.08909,0.01149
2740.02892,0.01133
2737.96874,0.01110
2735.90857,0.01107
2733.84840,0.01123
2731.78823,0.01122
2729.72805,0.01106
2727.66788,0.01098
2725.60771,0.01090
2723.54754,0.01084
2721.48737,0.01079
2719.42719,0.01065
2717.36702,0.01048
2715.30685,0.01053
2713.24668,0.01075
2711.18651,0.01081
2709.12633,0.01070
2707.06616,0.01056
2705.00599,0.01042
2702.94582,0.01030
2700.88565,0.01019
2698.82547,0.01005
2696.76530,0.00986
2694.70513,0.00974
2692.64496,0.00976
2690.58478,0.00978
2688.52461,0.00974
2686.46444,0.00978
2684.40427,0.00985
2682.34410,0.00987
2680.28392,0.00988
2678.22375,0.00978
2676.16358,0.00951
2674.10341,0.00905
2672.04324,0.00864
2669.98306,0.00854
2667.92289,0.00864
2665.86272,0.00884
2663.80255,0.00912
2661.74238,0.00931
2659.68220,0.00925
2657.62203,0.00915
2655.56186,0.00923
2653.50169,0.00930
2651.44151,0.00909
2649.38134,0.00878
2647.32117,0.00862
2645.26100,0.00861
2643.20083,0.00864
2641.14065,0.00860
2639.08048,0.00855
2637.02031,0.00855
2634.96014,0.00863
2632.89997,0.00875
2630.83979,0.00857
2628.77962,0.00802
2626.71945,0.00762
2624.65928,0.00747
2622.59910,0.00738
2620.53893,0.00757
2618.47876,0.00797
2616.41859,0.00819
2614.35842,0.00812
2612.29824,0.00792
2610.23807,0.00773
2608.17790,0.00767
2606.11773,0.00781
2604.05756,0.00799
2601.99738,0.00806
2599.93721,0.00791
2597.87704,0.00759
2595.81687,0.00735
2593.75670,0.00714
2591.69652,0.00688
2589.63635,0.00671
2587.57618,0.00659
2585.51601,0.00668
2583.45583,0.00699
2581.39566,0.00719
2579.33549,0.00724
2577.27532,0.00709
2575.21515,0.00702
2573.15497,0.00713
2571.09480,0.00723
2569.03463,0.00726
2566.97446,0.00708
2564.91429,0.00685
2562.85411,0.00674
2560.79394,0.00662
2558.73377,0.00665
2556.67360,0.00692
2554.61342,0.00697
2552.55325,0.00682
2550.49308,0.00681
2548.43291,0.00674
2546.37274,0.00663
2544.31256,0.00677
2542.25239,0.00692
2540.19222,0.00689
2538.13205,0.00675
2536.07188,0.00673
2534.01170,0.00688
2531.95153,0.00680
2529.89136,0.00643
2527.83119,0.00624
2525.77102,0.00645
2523.71084,0.00698
2521.65067,0.00759
2519.59050,0.00751
2517.53033,0.00672
2515.47015,0.00630
2513.40998,0.00651
2511.34981,0.00686
2509.28964,0.00706
2507.22947,0.00690
2505.16929,0.00675
2503.10912,0.00691
2501.04895,0.00698
2498.98878,0.00679
2496.92861,0.00664
2494.86843,0.00693
2492.80826,0.00749
2490.74809,0.00772
2488.68792,0.00753
2486.62775,0.00729
2484.56757,0.00728
2482.50740,0.00755
2480.44723,0.00778
2478.38706,0.00778
2476.32688,0.00767
2474.26671,0.00730
2472.20654,0.00691
2470.14637,0.00697
2468.08620,0.00707
2466.02602,0.00689
2463.96585,0.00676
2461.90568,0.00707
2459.84551,0.00767
2457.78534,0.00813
2455.72516,0.00804
2453.66499,0.00753
2451.60482,0.00732
2449.54465,0.00753
2447.48447,0.00783
2445.42430,0.00794
2443.36413,0.00767
2441.30396,0.00727
2439.24379,0.00720
2437.18361,0.00735
2435.12344,0.00732
2433.06327,0.00696
2431.00310,0.00664
2428.94293,0.00677
2426.88275,0.00704
2424.82258,0.00709
2422.76241,0.00705
2420.70224,0.00701
2418.64207,0.00695
2416.58189,0.00689
2414.52172,0.00685
2412.46155,0.00694
2410.40138,0.00710
2408.34120,0.00707
2406.28103,0.00692
2404.22086,0.00691
2402.16069,0.00707
2400.10052,0.00719
2398.04034,0.00738
2395.98017,0.00765
2393.92000,0.00776
2391.85983,0.00761
2389.79966,0.00731
2387.73948,0.00701
2385.67931,0.00692
2383.61914,0.00722
2381.55897,0.00769
2379.49880,0.00814
2377.43862,0.00847
2375.37845,0.00882
2373.31828,0.00892
2371.25811,0.00840
2369.19793,0.00761
2367.13776,0.00700
2365.07759,0.00701
2363.01742,0.00822
2360.95725,0.00930
2358.89707,0.01012
2356.83690,0.01001
2354.77673,0.00895
2352.71656,0.00757
2350.65639,0.00617
2348.59621,0.00634
2346.53604,0.00898
2344.47587,0.01010
2342.41570,0.00901
2340.35552,0.00736
2338.29535,0.00680
2336.23518,0.00739
2334.17501,0.00802
2332.11484,0.00843
2330.05466,0.00868
2327.99449,0.00920
2325.93432,0.00945
2323.87415,0.00950
2321.81398,0.00937
2319.75380,0.00929
2317.69363,0.00887
2315.63346,0.00871
2313.57329,0.00882
2311.51312,0.00897
2309.45294,0.00926
2307.39277,0.00947
2305.33260,0.00934
2303.27243,0.00910
2301.21225,0.00896
2299.15208,0.00865
2297.09191,0.00823
2295.03174,0.00793
2292.97157,0.00786
2290.91139,0.00797
2288.85122,0.00798
2286.79105,0.00777
2284.73088,0.00775
2282.67071,0.00785
2280.61053,0.00747
2278.55036,0.00685
2276.49019,0.00682
2274.43002,0.00732
2272.36984,0.00790
2270.30967,0.00826
2268.24950,0.00801
2266.18933,0.00717
2264.12916,0.00635
2262.06898,0.00595
2260.00881,0.00609
2257.94864,0.00667
2255.88847,0.00703
2253.82830,0.00674
2251.76812,0.00630
2249.70795,0.00636
2247.64778,0.00708
2245.58761,0.00783
2243.52744,0.00767
2241.46726,0.00680
2239.40709,0.00636
2237.34692,0.00665
2235.28675,0.00701
2233.22657,0.00701
2231.16640,0.00682
2229.10623,0.00664
2227.04606,0.00661
2224.98589,0.00713
2222.92571,0.00768
2220.86554,0.00729
2218.80537,0.00647
2216.74520,0.00613
2214.68503,0.00656
2212.62485,0.00716
2210.56468,0.00672
2208.50451,0.00549
2206.44434,0.00481
2204.38417,0.00502
2202.32399,0.00539
2200.26382,0.00546
2198.20365,0.00563
2196.14348,0.00586
2194.08330,0.00611
2192.02313,0.00686
2189.96296,0.00749
2187.90279,0.00726
2185.84262,0.00617
2183.78244,0.00475
2181.72227,0.00450
2179.66210,0.00517
2177.60193,0.00507
2175.54176,0.00390
2173.48158,0.00339
2171.42141,0.00474
2169.36124,0.00653
2167.30107,0.00716
2165.24089,0.00620
2163.18072,0.00425
2161.12055,0.00216
2159.06038,0.00046
2157.00021,0.00042
2154.94003,0.00232
2152.87986,0.00412
2150.81969,0.00356
2148.75952,0.00121
2146.69935,0.00000
2144.63917,0.00102
2142.57900,0.00277
2140.51883,0.00391
2138.45866,0.00426
2136.39849,0.00363
2134.33831,0.00274
2132.27814,0.00253
2130.21797,0.00284
2128.15780,0.00359
2126.09762,0.00436
2124.03745,0.00431
2121.97728,0.00418
2119.91711,0.00482
2117.85694,0.00489
2115.79676,0.00413
2113.73659,0.00407
2111.67642,0.00478
2109.61625,0.00531
2107.55608,0.00489
2105.49590,0.00414
2103.43573,0.00389
2101.37556,0.00402
2099.31539,0.00421
2097.25521,0.00403
2095.19504,0.00387
2093.13487,0.00421
2091.07470,0.00472
2089.01453,0.00518
2086.95435,0.00519
2084.89418,0.00449
2082.83401,0.00388
2080.77384,0.00429
2078.71367,0.00474
2076.65349,0.00389
2074.59332,0.00272
2072.53315,0.00238
2070.47298,0.00261
2068.41281,0.00323
2066.35263,0.00392
2064.29246,0.00462
2062.23229,0.00542
2060.17212,0.00523
2058.11194,0.00375
2056.05177,0.00296
2053.99160,0.00454
2051.93143,0.00692
2049.87126,0.00700
2047.81108,0.00520
2045.75091,0.00448
2043.69074,0.00511
2041.63057,0.00496
2039.57040,0.00363
2037.51022,0.00300
2035.45005,0.00345
2033.38988,0.00457
2031.32971,0.00584
2029.26954,0.00588
2027.20936,0.00493
2025.14919,0.00428
2023.08902,0.00417
2021.02885,0.00419
2018.96867,0.00426
2016.90850,0.00409
2014.84833,0.00336
2012.78816,0.00236
2010.72799,0.00207
2008.66781,0.00273
2006.60764,0.00375
2004.54747,0.00454
2002.48730,0.00427
2000.42713,0.00300
1998.36695,0.00160
1996.30678,0.00083
1994.24661,0.00108
1992.18644,0.00178
1990.12626,0.00210
1988.06609,0.00157
1986.00592,0.00071
1983.94575,0.00086
1981.88558,0.00187
1979.82540,0.00259
1977.76523,0.00276
1975.70506,0.00235
1973.64489,0.00172
1971.58472,0.00114
1969.52454,0.00095
1967.46437,0.00140
1965.40420,0.00187
1963.34403,0.00232
1961.28386,0.00290
1959.22368,0.00297
1957.16351,0.00232
1955.10334,0.00205
1953.04317,0.00290
1950.98299,0.00429
1948.92282,0.00462
1946.86265,0.00300
1944.80248,0.00087
1942.74231,0.00000
1940.68213,0.00068
1938.62196,0.00214
1936.56179,0.00320
1934.50162,0.00306
1932.44145,0.00202
1930.38127,0.00108
1928.32110,0.00066
1926.26093,0.00076
1924.20076,0.00153
1922.14059,0.00266
1920.08041,0.00327
1918.02024,0.00316
1915.96007,0.00287
1913.89990,0.00293
1911.83972,0.00319
1909.77955,0.00310
1907.71938,0.00272
1905.65921,0.00238
1903.59904,0.00199
1901.53886,0.00151
1899.47869,0.00122
1897.41852,0.00130
1895.35835,0.00166
1893.29818,0.00219
1891.23800,0.00273
1889.17783,0.00297
1887.11766,0.00288
1885.05749,0.00274
1882.99731,0.00270
1880.93714,0.00269
1878.87697,0.00257
1876.81680,0.00231
1874.75663,0.00217
1872.69645,0.00237
1870.63628,0.00251
1868.57611,0.00232
1866.51594,0.00204
1864.45577,0.00187
1862.39559,0.00178
1860.33542,0.00188
1858.27525,0.00230
1856.21508,0.00276
1854.15491,0.00284
1852.09473,0.00270
1850.03456,0.00271
1847.97439,0.00281
1845.91422,0.00276
1843.85404,0.00254
1841.79387,0.00234
1839.73370,0.00227
1837.67353,0.00233
1835.61336,0.00238
1833.55318,0.00234
1831.49301,0.00220
1829.43284,0.00202
1827.37267,0.00191
1825.31250,0.00199
1823.25232,0.00223
1821.19215,0.00228
1819.13198,0.00205
1817.07181,0.00192
1815.01163,0.00218
1812.95146,0.00257
1810.89129,0.00266
1808.83112,0.00250
1806.77095,0.00239
1804.71077,0.00239
1802.65060,0.00249
1800.59043,0.00258
1798.53026,0.00241
1796.47009,0.00232
1794.40991,0.00258
1792.34974,0.00276
1790.28957,0.00262
1788.22940,0.00257
1786.16923,0.00250
1784.10905,0.00218
1782.04888,0.00190
1779.98871,0.00186
1777.92854,0.00195
1775.86836,0.00202
1773.80819,0.00202
1771.74802,0.00203
1769.68785,0.00230
1767.62768,0.00274
1765.56750,0.00320
1763.50733,0.00363
1761.44716,0.00392
1759.38699,0.00407
1757.32682,0.00420
1755.26664,0.00428
1753.20647,0.00434
1751.14630,0.00445
1749.08613,0.00462
1747.02596,0.00489
1744.96578,0.00508
1742.90561,0.00507
1740.84544,0.00513
1738.78527,0.00533
1736.72509,0.00539
1734.66492,0.00523
1732.60475,0.00512
1730.54458,0.00535
1728.48441,0.00575
1726.42423,0.00606
1724.36406,0.00618
1722.30389,0.00617
1720.24372,0.00604
1718.18355,0.00565
1716.12337,0.00531
1714.06320,0.00557
1712.00303,0.00617
1709.94286,0.00663
1707.88268,0.00682
1705.82251,0.00687
1703.76234,0.00704
1701.70217,0.00725
1699.64200,0.00726
1697.58182,0.00741
1695.52165,0.00809
1693.46148,0.00900
1691.40131,0.00972
1689.34114,0.01019
1687.28096,0.01048
1685.22079,0.01073
1683.16062,0.01131
1681.10045,0.01218
1679.04028,0.01297
1676.98010,0.01352
1674.91993,0.01387
1672.85976,0.01413
1670.79959,0.01455
1668.73941,0.01533
1666.67924,0.01619
1664.61907,0.01686
1662.55890,0.01736
1660.49873,0.01776
1658.43855,0.01812
1656.37838,0.01835
1654.31821,0.01818
1652.25804,0.01769
1650.19787,0.01726
1648.13769,0.01700
1646.07752,0.01726
1644.01735,0.01791
1641.95718,0.01823
1639.89701,0.01818
1637.83683,0.01789
1635.77666,0.01729
1633.71649,0.01685
1631.65632,0.01684
1629.59614,0.01668
1627.53597,0.01610
1625.47580,0.01559
1623.41563,0.01542
1621.35546,0.01534
1619.29528,0.01520
1617.23511,0.01501
1615.17494,0.01483
1613.11477,0.01462
1611.05460,0.01435
1608.99442,0.01410
1606.93425,0.01384
1604.87408,0.01352
1602.81391,0.01330
1600.75373,0.01321
1598.69356,0.01308
1596.63339,0.01282
1594.57322,0.01254
1592.51305,0.01231
1590.45287,0.01208
1588.39270,0.01177
1586.33253,0.01138
1584.27236,0.01105
1582.21219,0.01088
1580.15201,0.01074
1578.09184,0.01039
1576.03167,0.00985
1573.97150,0.00959
1571.91133,0.00968
1569.85115,0.00982
1567.79098,0.00990
1565.73081,0.00995
1563.67064,0.01001
1561.61046,0.00990
1559.55029,0.00933
1557.49012,0.00873
1555.42995,0.00876
1553.36978,0.00900
1551.30960,0.00907
1549.24943,0.00899
1547.18926,0.00889
1545.12909,0.00837
1543.06892,0.00713
1541.00874,0.00598
1538.94857,0.00600
1536.88840,0.00649
1534.82823,0.00658
1532.76805,0.00645
1530.70788,0.00652
1528.64771,0.00667
1526.58754,0.00661
1524.52737,0.00620
1522.46719,0.00556
1520.40702,0.00511
1518.34685,0.00496
1516.28668,0.00484
1514.22651,0.00471
1512.16633,0.00458
1510.10616,0.00438
1508.04599,0.00400
1505.98582,0.00361
1503.92565,0.00375
1501.86547,0.00411
1499.80530,0.00425
1497.74513,0.00408
1495.68496,0.00379
1493.62478,0.00353
1491.56461,0.00332
1489.50444,0.00309
1487.44427,0.00295
1485.38410,0.00299
1483.32392,0.00314
1481.26375,0.00322
1479.20358,0.00319
1477.14341,0.00306
1475.08324,0.00290
1473.02306,0.00302
1470.96289,0.00361
1468.90272,0.00419
1466.84255,0.00442
1464.78238,0.00454
1462.72220,0.00474
1460.66203,0.00479
1458.60186,0.00454
1456.54169,0.00439
1454.48151,0.00472
1452.42134,0.00505
1450.36117,0.00505
1448.30100,0.00492
1446.24083,0.00490
1444.18065,0.00499
1442.12048,0.00507
1440.06031,0.00512
1438.00014,0.00504
1435.93997,0.00488
1433.87979,0.00484
1431.81962,0.00498
1429.75945,0.00529
1427.69928,0.00565
1425.63910,0.00584
1423.57893,0.00584
1421.51876,0.00579
1419.45859,0.00578
1417.39842,0.00588
1415.33824,0.00607
1413.27807,0.00617
1411.21790,0.00620
1409.15773,0.00621
1407.09756,0.00621
1405.03738,0.00614
1402.97721,0.00599
1400.91704,0.00577
1398.85687,0.00548
1396.79670,0.00510
1394.73652,0.00470
1392.67635,0.00451
1390.61618,0.00454
1388.55601,0.00454
1386.49583,0.00447
1384.43566,0.00439
1382.37549,0.00430
1380.31532,0.00420
1378.25515,0.00414
1376.19497,0.00406
1374.13480,0.00393
1372.07463,0.00383
1370.01446,0.00375
1367.95429,0.00357
1365.89411,0.00334
1363.83394,0.00321
1361.77377,0.00319
1359.71360,0.00311
1357.65343,0.00299
1355.59325,0.00283
1353.53308,0.00260
1351.47291,0.00237
1349.41274,0.00225
1347.35256,0.00220
1345.29239,0.00217
1343.23222,0.00225
1341.17205,0.00254
1339.11188,0.00290
1337.05170,0.00294
1334.99153,0.00263
1332.93136,0.00236
1330.87119,0.00231
1328.81102,0.00235
1326.75084,0.00236
1324.69067,0.00232
1322.63050,0.00226
1320.57033,0.00228
1318.51015,0.00249
1316.44998,0.00278
1314.38981,0.00292
1312.32964,0.00281
1310.26947,0.00260
1308.20929,0.00248
1306.14912,0.00254
1304.08895,0.00265
1302.02878,0.00266
1299.96861,0.00274
1297.90843,0.00296
1295.84826,0.00308
1293.78809,0.00300
1291.72792,0.00281
1289.66775,0.00266
1287.60757,0.00268
1285.54740,0.00273
1283.48723,0.00271
1281.42706,0.00277
1279.36688,0.00301
1277.30671,0.00320
1275.24654,0.00319
1273.18637,0.00308
1271.12620,0.00310
1269.06602,0.00334
1267.00585,0.00358
1264.94568,0.00367
1262.88551,0.00372
1260.82534,0.00378
1258.76516,0.00379
1256.70499,0.00373
1254.64482,0.00373
1252.58465,0.00388
1250.52447,0.00399
1248.46430,0.00386
1246.40413,0.00365
1244.34396,0.00354
1242.28379,0.00350
1240.22361,0.00351
1238.16344,0.00349
1236.10327,0.00344
1234.04310,0.00347
1231.98293,0.00349
1229.92275,0.00335
1227.86258,0.00300
1225.80241,0.00253
1223.74224,0.00215
1221.68207,0.00199
1219.62189,0.00188
1217.56172,0.00167
1215.50155,0.00136
1213.44138,0.00099
1211.38120,0.00071
1209.32103,0.00058
1207.26086,0.00037
1205.20069,0.00010
1203.14052,0.00000
1201.08034,0.00007
1199.02017,0.00011
1196.96000,-0.00004
1194.89983,-0.00024
1192.83966,-0.00032
1190.77948,-0.00024
1188.71931,-0.00016
1186.65914,-0.00020
1184.59897,-0.00031
1182.53880,-0.00038
1180.47862,-0.00032
1178.41845,0.00003
1176.35828,0.00061
1174.29811,0.00100
1172.23793,0.00116
1170.17776,0.00153
1168.11759,0.00199
1166.05742,0.00217
1163.99725,0.00239
1161.93707,0.00290
1159.87690,0.00339
1157.81673,0.00368
1155.75656,0.00401
1153.69639,0.00467
1151.63621,0.00559
1149.57604,0.00641
1147.51587,0.00695
1145.45570,0.00734
1143.39552,0.00772
1141.33535,0.00827
1139.27518,0.00909
1137.21501,0.00997
1135.15484,0.01083
1133.09466,0.01172
1131.03449,0.01247
1128.97432,0.01320
1126.91415,0.01426
1124.85398,0.01550
1122.79380,0.01681
1120.73363,0.01826
1118.67346,0.01957
1116.61329,0.02067
1114.55312,0.02178
1112.49294,0.02307
1110.43277,0.02439
1108.37260,0.02551
1106.31243,0.02665
1104.25225,0.02783
1102.19208,0.02885
1100.13191,0.02998
1098.07174,0.03121
1096.01157,0.03211
1093.95139,0.03271
1091.89122,0.03341
1089.83105,0.03430
1087.77088,0.03530
1085.71071,0.03631
1083.65053,0.03710
1081.59036,0.03772
1079.53019,0.03834
1077.47002,0.03900
1075.40985,0.03962
1073.34967,0.04001
1071.28950,0.04012
1069.22933,0.04023
1067.16916,0.04051
1065.10898,0.04065
1063.04881,0.04040
1060.98864,0.03998
1058.92847,0.03946
1056.86830,0.03891
1054.80812,0.03842
1052.74795,0.03784
1050.68778,0.03705
1048.62761,0.03602
1046.56744,0.03481
1044.50726,0.03362
1042.44709,0.03224
1040.38692,0.03043
1038.32675,0.02860
1036.26657,0.02688
1034.20640,0.02511
1032.14623,0.02349
1030.08606,0.02210
1028.02589,0.02090
1025.96571,0.02006
1023.90554,0.01928
1021.84537,0.01817
1019.78520,0.01715
1017.72503,0.01652
1015.66485,0.01613
1013.60468,0.01594
1011.54451,0.01583
1009.48434,0.01564
1007.42417,0.01555
1005.36399,0.01583
1003.30382,0.01635
1001.24365,0.01694
999.18348,0.01768
997.12330,0.01847
995.06313,0.01927
993.00296,0.01999
990.94279,0.02064
988.88262,0.02140
986.82244,0.02216
984.76227,0.02272
982.70210,0.02313
980.64193,0.02337
978.58176,0.02320
976.52158,0.02248
974.46141,0.02161
972.40124,0.02074
970.34107,0.01986
968.28089,0.01903
966.22072,0.01813
964.16055,0.01699
962.10038,0.01567
960.04021,0.01431
957.98003,0.01314
955.91986,0.01220
953.85969,0.01118
951.79952,0.01014
949.73935,0.00925
947.67917,0.00834
945.61900,0.00751
943.55883,0.00688
941.49866,0.00607
939.43849,0.00511
937.37831,0.00440
935.31814,0.00391
933.25797,0.00352
931.19780,0.00340
929.13762,0.00336
927.07745,0.00310
925.01728,0.00254
922.95711,0.00176
920.89694,0.00122
918.83676,0.00119
916.77659,0.00126
914.71642,0.00117
912.65625,0.00103
910.59608,0.00079
908.53590,0.00065
906.47573,0.00080
904.41556,0.00096
902.35539,0.00093
900.29522,0.00064
898.23504,0.00043
896.17487,0.00066
894.11470,0.00110
892.05453,0.00161
889.99435,0.00203
887.93418,0.00217
885.87401,0.00250
883.81384,0.00307
881.75367,0.00370
879.69349,0.00437
877.63332,0.00479
875.57315,0.00522
873.51298,0.00585
871.45281,0.00638
869.39263,0.00693
867.33246,0.00740
865.27229,0.00731
863.21212,0.00702
861.15194,0.00717
859.09177,0.00765
857.03160,0.00816
854.97143,0.00853
852.91126,0.00840
850.85108,0.00795
848.79091,0.00754
846.73074,0.00709
844.67057,0.00675
842.61040,0.00642
840.55022,0.00591
838.49005,0.00578
836.42988,0.00590
834.36971,0.00559
832.30954,0.00518
830.24936,0.00521
828.18919,0.00523
826.12902,0.00492
824.06885,0.00470
822.00867,0.00461
819.94850,0.00425
817.88833,0.00375
815.82816,0.00329
813.76799,0.00275
811.70781,0.00217
809.64764,0.00185
807.58747,0.00188
805.52730,0.00206
803.46713,0.00217
801.40695,0.00228
799.34678,0.00226
797.28661,0.00166
795.22644,0.00110
793.16627,0.00130
791.10609,0.00168
789.04592,0.00174
786.98575,0.00194
784.92558,0.00219
782.86540,0.00185
780.80523,0.00119
778.74506,0.00069
776.68489,0.00075
774.62472,0.00174
772.56454,0.00247
770.50437,0.00215
768.44420,0.00185
766.38403,0.00190
764.32386,0.00165
762.26368,0.00104
760.20351,0.00060
758.14334,0.00054
756.08317,0.00075
754.02299,0.00122
751.96282,0.00175
749.90265,0.00180
747.84248,0.00135
745.78231,0.00079
743.72213,0.00041
741.66196,0.00037
739.60179,0.00049
737.54162,0.00075
735.48145,0.00074
733.42127,0.00044
731.36110,0.00049
729.30093,0.00047
727.24076,0.00017
725.18059,-0.00009
723.12041,-0.00018
721.06024,0.00035
719.00007,0.00080
716.93990,0.00079
714.87972,0.00075
712.81955,0.00117
710.75938,0.00183
708.69921,0.00207
706.63904,0.00176
704.57886,0.00150
702.51869,0.00156
700.45852,0.00164
698.39835,0.00175
696.33818,0.00201
694.27800,0.00196
692.21783,0.00141
690.15766,0.00093
688.09749,0.00090
686.03731,0.00099
683.97714,0.00102
681.91697,0.00116
679.85680,0.00143
677.79663,0.00208
675.73645,0.00300
673.67628,0.00294
671.61611,0.00125
669.55594,0.00093
667.49577,0.00194
665.43559,0.00000
663.37542,0.00078
661.31525,0.00174
659.25508,0.00235
657.19491,0.00311
655.13473,0.00395
653.07456,0.00444
651.01439,0.00481
648.95422,0.00527
646.89404,0.00563
644.83387,0.00624
642.77370,0.00628
640.71353,0.00520
638.65336,0.00436
636.59318,0.00446
634.53301,0.00470
632.47284,0.00495
630.41267,0.00536
628.35250,0.00509
626.29232,0.00365
624.23215,0.00260
622.17198,0.00224
620.11181,0.00219
618.05164,0.00332
615.99146,0.00445
613.93129,0.00434
611.87112,0.00348
609.81095,0.00136
607.75077,0.00000
605.69060,0.00032
603.63043,0.00159
601.57026,0.00176
599.51009,0.00000
