3996.73391,-0.00037
3994.67373,-0.00045
3992.61356,-0.00025
3990.55339,0.00003
3988.49322,0.00014
3986.43305,0.00013
3984.37287,0.00005
3982.31270,-0.00007
3980.25253,-0.00004
3978.19236,0.00017
3976.13219,0.00026
3974.07201,0.00018
3972.01184,0.00014
3969.95167,0.00022
3967.89150,0.00049
3965.83133,0.00080
3963.77115,0.00080
3961.71098,0.00050
3959.65081,0.00032
3957.59064,0.00047
3955.53046,0.00084
3953.47029,0.00110
3951.41012,0.00092
3949.34995,0.00035
3947.28978,0.00000
3945.22960,0.00018
3943.16943,0.00043
3941.10926,0.00060
3939.04909,0.00086
3936.98892,0.00100
3934.92874,0.00074
3932.86857,0.00038
3930.80840,0.00055
3928.74823,0.00108
3926.68805,0.00135
3924.62788,0.00116
3922.56771,0.00070
3920.50754,0.00036
3918.44737,0.00030
3916.38719,0.00077
3914.32702,0.00157
3912.26685,0.00205
3910.20668,0.00207
3908.14651,0.00177
3906.08633,0.00117
3904.02616,0.00033
3901.96599,0.00000
3899.90582,0.00064
3897.84565,0.00136
3895.78547,0.00146
3893.72530,0.00116
3891.66513,0.00084
3889.60496,0.00079
3887.54478,0.00086
3885.48461,0.00089
3883.42444,0.00083
3881.36427,0.00084
3879.30410,0.00108
3877.24392,0.00128
3875.18375,0.00110
3873.12358,0.00056
3871.06341,0.00006
3869.00324,0.00012
3866.94306,0.00038
3864.88289,0.00037
3862.82272,0.00032
3860.76255,0.00041
3858.70237,0.00034
3856.64220,-0.00005
3854.58203,0.00000
3852.52186,0.00103
3850.46169,0.00206
3848.40151,0.00199
3846.34134,0.00150
3844.28117,0.00136
3842.22100,0.00141
3840.16083,0.00122
3838.10065,0.00090
3836.04048,0.00115
3833.98031,0.00190
3831.92014,0.00260
3829.85997,0.00305
3827.79979,0.00309
3825.73962,0.00280
3823.67945,0.00251
3821.61928,0.00241
3819.55910,0.00228
3817.49893,0.00231
3815.43876,0.00277
3813.37859,0.00325
3811.31842,0.00324
3809.25824,0.00304
3807.19807,0.00299
3805.13790,0.00313
3803.07773,0.00349
3801.01756,0.00381
3798.95738,0.00373
3796.89721,0.00371
3794.83704,0.00428
3792.77687,0.00493
3790.71670,0.00505
3788.65652,0.00494
3786.59635,0.00498
3784.53618,0.00506
3782.47601,0.00511
3780.41583,0.00535
3778.35566,0.00573
3776.29549,0.00596
3774.23532,0.00591
3772.17515,0.00566
3770.11497,0.00524
3768.05480,0.00479
3765.99463,0.00456
3763.93446,0.00452
3761.87429,0.00434
3759.81411,0.00380
3757.75394,0.00318
3755.69377,0.00291
3753.63360,0.00272
3751.57342,0.00189
3749.51325,0.00069
3747.45308,0.00015
3745.39291,0.00000
3743.33274,0.00053
3741.27256,0.00123
3739.21239,0.00129
3737.15222,0.00125
3735.09205,0.00141
3733.03188,0.00198
3730.97170,0.00266
3728.91153,0.00300
3726.85136,0.00300
3724.79119,0.00295
3722.73102,0.00319
3720.67084,0.00379
3718.61067,0.00412
3716.55050,0.00386
3714.49033,0.00357
3712.43015,0.00390
3710.36998,0.00455
3708.30981,0.00512
3706.24964,0.00541
3704.18947,0.00550
3702.12929,0.00562
3700.06912,0.00577
3698.00895,0.00589
3695.94878,0.00590
3693.88861,0.00585
3691.82843,0.00580
3689.76826,0.00577
3687.70809,0.00590
3685.64792,0.00616
3683.58775,0.00628
3681.52757,0.00629
3679.46740,0.00613
3677.40723,0.00578
3675.34706,0.00551
3673.28688,0.00537
3671.22671,0.00545
3669.16654,0.00594
3667.10637,0.00639
3665.04620,0.00646
3662.98602,0.00643
3660.92585,0.00641
3658.86568,0.00639
3656.80551,0.00635
3654.74534,0.00618
3652.68516,0.00587
3650.62499,0.00569
3648.56482,0.00597
3646.50465,0.00679
3644.44447,0.00704
3642.38430,0.00692
3640.32413,0.00711
3638.26396,0.00740
3636.20379,0.00747
3634.14361,0.00743
3632.08344,0.00735
3630.02327,0.00742
3627.96310,0.00789
3625.90293,0.00852
3623.84275,0.00877
3621.78258,0.00863
3619.72241,0.00830
3617.66224,0.00789
3615.60207,0.00750
3613.54189,0.00720
3611.48172,0.00719
3609.42155,0.00770
3607.36138,0.00867
3605.30120,0.00970
3603.24103,0.01048
3601.18086,0.01094
3599.12069,0.01105
3597.06052,0.01100
3595.00034,0.01107
3592.94017,0.01136
3590.88000,0.01165
3588.81983,0.01166
3586.75966,0.01166
3584.69948,0.01203
3582.63931,0.01252
3580.57914,0.01290
3578.51897,0.01321
3576.45879,0.01352
3574.39862,0.01387
3572.33845,0.01424
3570.27828,0.01441
3568.21811,0.01420
3566.15793,0.01407
3564.09776,0.01449
3562.03759,0.01497
3559.97742,0.01537
3557.91725,0.01576
3555.85707,0.01593
3553.79690,0.01586
3551.73673,0.01592
3549.67656,0.01602
3547.61639,0.01577
3545.55621,0.01559
3543.49604,0.01607
3541.43587,0.01688
3539.37570,0.01746
3537.31552,0.01773
3535.25535,0.01800
3533.19518,0.01847
3531.13501,0.01878
3529.07484,0.01872
3527.01466,0.01848
3524.95449,0.01842
3522.89432,0.01883
3520.83415,0.01955
3518.77398,0.02009
3516.71380,0.02034
3514.65363,0.02056
3512.59346,0.02076
3510.53329,0.02076
3508.47312,0.02066
3506.41294,0.02066
3504.35277,0.02062
3502.29260,0.02064
3500.23243,0.02113
3498.17225,0.02198
3496.11208,0.02255
3494.05191,0.02263
3491.99174,0.02263
3489.93157,0.02288
3487.87139,0.02320
3485.81122,0.02334
3483.75105,0.02347
3481.69088,0.02373
3479.63071,0.02400
3477.57053,0.02435
3475.51036,0.02480
3473.45019,0.02497
3471.39002,0.02489
3469.32984,0.02498
3467.26967,0.02524
3465.20950,0.02547
3463.14933,0.02555
3461.08916,0.02545
3459.02898,0.02542
3456.96881,0.02563
3454.90864,0.02602
3452.84847,0.02643
3450.78830,0.02654
3448.72812,0.02631
3446.66795,0.02613
3444.60778,0.02615
3442.54761,0.02617
3440.48744,0.02622
3438.42726,0.02649
3436.36709,0.02688
3434.30692,0.02720
3432.24675,0.02734
3430.18657,0.02742
3428.12640,0.02763
3426.06623,0.02786
3424.00606,0.02790
3421.94589,0.02792
3419.88571,0.02808
3417.82554,0.02840
3415.76537,0.02866
3413.70520,0.02877
3411.64503,0.02887
3409.58485,0.02890
3407.52468,0.02893
3405.46451,0.02909
3403.40434,0.02915
3401.34416,0.02902
3399.28399,0.02829
3397.22382,0.02855
3395.16365,0.02887
3393.10348,0.02886
3391.04330,0.02892
3388.98313,0.02934
3386.92296,0.02981
3384.86279,0.03009
3382.80262,0.03020
3380.74244,0.03031
3378.68227,0.03059
3376.62210,0.03089
3374.56193,0.03109
3372.50176,0.03111
3370.44158,0.03103
3368.38141,0.03100
3366.32124,0.03102
3364.26107,0.03119
3362.20089,0.03144
3360.14072,0.03158
3358.08055,0.03165
3356.02038,0.03171
3353.96021,0.03178
3351.90003,0.03185
3349.83986,0.03193
3347.77969,0.03205
3345.71952,0.03213
3343.65935,0.03223
3341.59917,0.03224
3339.53900,0.03191
3337.47883,0.03159
3335.41866,0.03172
3333.35849,0.03215
3331.29831,0.03251
3329.23814,0.03265
3327.17797,0.03269
3325.11780,0.03277
3323.05762,0.03285
3320.99745,0.03291
3318.93728,0.03293
3316.87711,0.03281
3314.81694,0.03254
3312.75676,0.03218
3310.69659,0.03207
3308.63642,0.03240
3306.57625,0.03285
3304.51608,0.03322
3302.45590,0.03350
3300.39573,0.03353
3298.33556,0.03331
3296.27539,0.03307
3294.21521,0.03292
3292.15504,0.03292
3290.09487,0.03303
3288.03470,0.03314
3285.97453,0.03328
3283.91435,0.03343
3281.85418,0.03364
3279.79401,0.03372
3277.73384,0.03359
3275.67367,0.03350
3273.61349,0.03354
3271.55332,0.03359
3269.49315,0.03362
3267.43298,0.03367
3265.37281,0.03376
3263.31263,0.03382
3261.25246,0.03383
3259.19229,0.03385
3257.13212,0.03385
3255.07194,0.03381
3253.01177,0.03391
3250.95160,0.03411
3248.89143,0.03420
3246.83126,0.03413
3244.77108,0.03411
3242.71091,0.03411
3240.65074,0.03402
3238.59057,0.03397
3236.53040,0.03411
3234.47022,0.03429
3232.41005,0.03434
3230.34988,0.03431
3228.28971,0.03426
3226.22954,0.03422
3224.16936,0.03420
3222.10919,0.03409
3220.04902,0.03395
3217.98885,0.03399
3215.92867,0.03410
3213.86850,0.03418
3211.80833,0.03425
3209.74816,0.03420
3207.68799,0.03408
3205.62781,0.03405
3203.56764,0.03415
3201.50747,0.03428
3199.44730,0.03433
3197.38713,0.03434
3195.32695,0.03434
3193.26678,0.03425
3191.20661,0.03413
3189.14644,0.03412
3187.08626,0.03414
3185.02609,0.03411
3182.96592,0.03406
3180.90575,0.03398
3178.84558,0.03391
3176.78540,0.03406
3174.72523,0.03434
3172.66506,0.03429
3170.60489,0.03407
3168.54472,0.03402
3166.48454,0.03407
3164.42437,0.03410
3162.36420,0.03411
3160.30403,0.03416
3158.24386,0.03423
3156.18368,0.03407
3154.12351,0.03373
3152.06334,0.03365
3150.00317,0.03381
3147.94299,0.03382
3145.88282,0.03369
3143.82265,0.03357
3141.76248,0.03356
3139.70231,0.03372
3137.64213,0.03390
3135.58196,0.03379
3133.52179,0.03339
3131.46162,0.03321
3129.40145,0.03335
3127.34127,0.03343
3125.28110,0.03330
3123.22093,0.03306
3121.16076,0.03284
3119.10058,0.03273
3117.04041,0.03267
3114.98024,0.03265
3112.92007,0.03273
3110.85990,0.03285
3108.79972,0.03290
3106.73955,0.03281
3104.67938,0.03257
3102.61921,0.03226
3100.55904,0.03210
3098.49886,0.03214
3096.43869,0.03211
3094.37852,0.03203
3092.31835,0.03211
3090.25818,0.03221
3088.19800,0.03222
3086.13783,0.03222
3084.07766,0.03206
3082.01749,0.03169
3079.95731,0.03147
3077.89714,0.03154
3075.83697,0.03171
3073.77680,0.03183
3071.71663,0.03181
3069.65645,0.03162
3067.59628,0.03132
3065.53611,0.03110
3063.47594,0.03111
3061.41577,0.03127
3059.35559,0.03127
3057.29542,0.03111
3055.23525,0.03109
3053.17508,0.03119
3051.11491,0.03109
3049.05473,0.03088
3046.99456,0.03077
3044.93439,0.03070
3042.87422,0.03063
3040.81404,0.03059
3038.75387,0.03050
3036.69370,0.03030
3034.63353,0.03007
3032.57336,0.02990
3030.51318,0.02981
3028.45301,0.02974
3026.39284,0.02958
3024.33267,0.02947
3022.27250,0.02958
3020.21232,0.02977
3018.15215,0.02963
3016.09198,0.02911
3014.03181,0.02865
3011.97163,0.02852
3009.91146,0.02862
3007.85129,0.02876
3005.79112,0.02879
3003.73095,0.02863
3001.67077,0.02843
2999.61060,0.02844
2997.55043,0.02844
2995.49026,0.02843
2993.43009,0.02835
2991.36991,0.02830
2989.30974,0.02825
2987.24957,0.02827
2985.18940,0.02837
2983.12923,0.02838
2981.06905,0.02833
2979.00888,0.02833
2976.94871,0.02831
2974.88854,0.02812
2972.82836,0.02797
2970.76819,0.02803
2968.70802,0.02805
2966.64785,0.02799
2964.58768,0.02802
2962.52750,0.02813
2960.46733,0.02817
2958.40716,0.02819
2956.34699,0.02823
2954.28682,0.02819
2952.22664,0.02812
2950.16647,0.02816
2948.10630,0.02823
2946.04613,0.02821
2943.98596,0.02810
2941.92578,0.02804
2939.86561,0.02807
2937.80544,0.02812
2935.74527,0.02816
2933.68509,0.02824
2931.62492,0.02833
2929.56475,0.02829
2927.50458,0.02810
2925.44441,0.02792
2923.38423,0.02791
2921.32406,0.02810
2919.26389,0.02820
2917.20372,0.02811
2915.14355,0.02808
2913.08337,0.02812
2911.02320,0.02806
2908.96303,0.02790
2906.90286,0.02778
2904.84268,0.02773
2902.78251,0.02767
2900.72234,0.02762
2898.66217,0.02767
2896.60200,0.02775
2894.54182,0.02774
2892.48165,0.02762
2890.42148,0.02745
2888.36131,0.02744
2886.30114,0.02755
2884.24096,0.02766
2882.18079,0.02769
2880.12062,0.02755
2878.06045,0.02732
2876.00028,0.02722
2873.94010,0.02724
2871.87993,0.02729
2869.81976,0.02727
2867.75959,0.02723
2865.69941,0.02719
2863.63924,0.02712
2861.57907,0.02708
2859.51890,0.02702
2857.45873,0.02698
2855.39855,0.02703
2853.33838,0.02709
2851.27821,0.02704
2849.21804,0.02691
2847.15787,0.02684
2845.09769,0.02677
2843.03752,0.02665
2840.97735,0.02662
2838.91718,0.02657
2836.85700,0.02635
2834.79683,0.02618
2832.73666,0.02614
2830.67649,0.02608
2828.61632,0.02599
2826.55614,0.02593
2824.49597,0.02589
2822.43580,0.02580
2820.37563,0.02561
2818.31546,0.02540
2816.25528,0.02538
2814.19511,0.02550
2812.13494,0.02552
2810.07477,0.02531
2808.01460,0.02505
2805.95442,0.02494
2803.89425,0.02497
2801.83408,0.02496
2799.77391,0.02483
2797.71373,0.02472
2795.65356,0.02462
2793.59339,0.02446
2791.53322,0.02440
2789.47305,0.02448
2787.41287,0.02450
2785.35270,0.02437
2783.29253,0.02422
2781.23236,0.02414
2779.17219,0.02417
2777.11201,0.02422
2775.05184,0.02415
2772.99167,0.02393
2770.93150,0.02375
2768.87133,0.02374
2766.81115,0.02375
2764.75098,0.02364
2762.69081,0.02350
2760.63064,0.02340
2758.57046,0.02333
2756.51029,0.02336
2754.45012,0.02343
2752.38995,0.02353
2750.32978,0.02355
2748.26960,0.02337
2746.20943,0.02311
2744.14926,0.02292
2742.08909,0.02283
2740.02892,0.02278
2737.96874,0.02276
2735.90857,0.02273
2733.84840,0.02263
2731.78823,0.02254
2729.72805,0.02256
2727.66788,0.02261
2725.60771,0.02252
2723.54754,0.02239
2721.48737,0.02235
2719.42719,0.02232
2717.36702,0.02222
2715.30685,0.02214
2713.24668,0.02201
2711.18651,0.02188
2709.12633,0.02184
2707.06616,0.02177
2705.00599,0.02174
2702.94582,0.02170
2700.88565,0.02160
2698.82547,0.02151
2696.76530,0.02145
2694.70513,0.02147
2692.64496,0.02150
2690.58478,0.02143
2688.52461,0.02129
2686.46444,0.02119
2684.40427,0.02125
2682.34410,0.02136
2680.28392,0.02133
2678.22375,0.02126
2676.16358,0.02114
2674.10341,0.02095
2672.04324,0.02088
2669.98306,0.02087
2667.92289,0.02083
2665.86272,0.02090
2663.80255,0.02103
2661.74238,0.02103
2659.68220,0.02091
2657.62203,0.02078
2655.56186,0.02066
2653.50169,0.02054
2651.44151,0.02049
2649.38134,0.02046
2647.32117,0.02039
2645.26100,0.02030
2643.20083,0.02022
2641.14065,0.02014
2639.08048,0.02010
2637.02031,0.02020
2634.96014,0.02035
2632.89997,0.02043
2630.83979,0.02046
2628.77962,0.02035
2626.71945,0.02011
2624.65928,0.01995
2622.59910,0.01989
2620.53893,0.01991
2618.47876,0.02002
2616.41859,0.02010
2614.35842,0.02008
2612.29824,0.01997
2610.23807,0.01977
2608.17790,0.01957
2606.11773,0.01953
2604.05756,0.01956
2601.99738,0.01964
2599.93721,0.01975
2597.87704,0.01968
2595.81687,0.01949
2593.75670,0.01947
2591.69652,0.01958
2589.63635,0.01965
2587.57618,0.01981
2585.51601,0.01996
2583.45583,0.01988
2581.39566,0.01975
2579.33549,0.01972
2577.27532,0.01972
2575.21515,0.01979
2573.15497,0.01982
2571.09480,0.01958
2569.03463,0.01939
2566.97446,0.01960
2564.91429,0.01993
2562.85411,0.01991
2560.79394,0.01972
2558.73377,0.01967
2556.67360,0.01975
2554.61342,0.01989
2552.55325,0.02002
2550.49308,0.02006
2548.43291,0.02003
2546.37274,0.01994
2544.31256,0.01982
2542.25239,0.01978
2540.19222,0.01980
2538.13205,0.01983
2536.07188,0.01988
2534.01170,0.01990
2531.95153,0.02000
2529.89136,0.02020
2527.83119,0.02029
2525.77102,0.02019
2523.71084,0.02006
2521.65067,0.02000
2519.59050,0.02013
2517.53033,0.02034
2515.47015,0.02038
2513.40998,0.02034
2511.34981,0.02043
2509.28964,0.02065
2507.22947,0.02094
2505.16929,0.02105
2503.10912,0.02084
2501.04895,0.02049
2498.98878,0.02014
2496.92861,0.02001
2494.86843,0.02030
2492.80826,0.02069
2490.74809,0.02081
2488.68792,0.02071
2486.62775,0.02072
2484.56757,0.02087
2482.50740,0.02097
2480.44723,0.02106
2478.38706,0.02124
2476.32688,0.02128
2474.26671,0.02116
2472.20654,0.02123
2470.14637,0.02141
2468.08620,0.02144
2466.02602,0.02126
2463.96585,0.02112
2461.90568,0.02137
2459.84551,0.02177
2457.78534,0.02182
2455.72516,0.02165
2453.66499,0.02153
2451.60482,0.02150
2449.54465,0.02157
2447.48447,0.02172
2445.42430,0.02189
2443.36413,0.02197
2441.30396,0.02189
2439.24379,0.02186
2437.18361,0.02188
2435.12344,0.02181
2433.06327,0.02170
2431.00310,0.02156
2428.94293,0.02158
2426.88275,0.02179
2424.82258,0.02187
2422.76241,0.02180
2420.70224,0.02175
2418.64207,0.02167
2416.58189,0.02163
2414.52172,0.02172
2412.46155,0.02175
2410.40138,0.02159
2408.34120,0.02145
2406.28103,0.02149
2404.22086,0.02166
2402.16069,0.02180
2400.10052,0.02168
2398.04034,0.02159
2395.98017,0.02165
2393.92000,0.02180
2391.85983,0.02180
2389.79966,0.02156
2387.73948,0.02119
2385.67931,0.02072
2383.61914,0.02021
2381.55897,0.01980
2379.49880,0.01953
2377.43862,0.01935
2375.37845,0.01933
2373.31828,0.01963
2371.25811,0.02040
2369.19793,0.02158
2367.13776,0.02264
2365.07759,0.02292
2363.01742,0.02241
2360.95725,0.02155
2358.89707,0.02085
2356.83690,0.02060
2354.77673,0.02051
2352.71656,0.02019
2350.65639,0.01980
2348.59621,0.01970
2346.53604,0.01999
2344.47587,0.02069
2342.41570,0.02164
2340.35552,0.02219
2338.29535,0.02195
2336.23518,0.02140
2334.17501,0.02094
2332.11484,0.02053
2330.05466,0.02008
2327.99449,0.01962
2325.93432,0.01914
2323.87415,0.01870
2321.81398,0.01845
2319.75380,0.01831
2317.69363,0.01808
2315.63346,0.01777
2313.57329,0.01756
2311.51312,0.01761
2309.45294,0.01791
2307.39277,0.01824
2305.33260,0.01839
2303.27243,0.01842
2301.21225,0.01841
2299.15208,0.01832
2297.09191,0.01828
2295.03174,0.01850
2292.97157,0.01886
2290.91139,0.01918
2288.85122,0.01939
2286.79105,0.01942
2284.73088,0.01937
2282.67071,0.01947
2280.61053,0.01970
2278.55036,0.01975
2276.49019,0.01961
2274.43002,0.01941
2272.36984,0.01910
2270.30967,0.01880
2268.24950,0.01884
2266.18933,0.01913
2264.12916,0.01933
2262.06898,0.01937
2260.00881,0.01935
2257.94864,0.01925
2255.88847,0.01906
2253.82830,0.01894
2251.76812,0.01882
2249.70795,0.01853
2247.64778,0.01833
2245.58761,0.01847
2243.52744,0.01829
2241.46726,0.01794
2239.40709,0.01818
2237.34692,0.01853
2235.28675,0.01821
2233.22657,0.01791
2231.16640,0.01823
2229.10623,0.01866
2227.04606,0.01886
2224.98589,0.01860
2222.92571,0.01801
2220.86554,0.01751
2218.80537,0.01725
2216.74520,0.01733
2214.68503,0.01731
2212.62485,0.01719
2210.56468,0.01734
2208.50451,0.01732
2206.44434,0.01716
2204.38417,0.01750
2202.32399,0.01797
2200.26382,0.01767
2198.20365,0.01733
2196.14348,0.01758
2194.08330,0.01729
2192.02313,0.01655
2189.96296,0.01635
2187.90279,0.01621
2185.84262,0.01576
2183.78244,0.01563
2181.72227,0.01604
2179.66210,0.01666
2177.60193,0.01713
2175.54176,0.01700
2173.48158,0.01643
2171.42141,0.01594
2169.36124,0.01585
2167.30107,0.01601
2165.24089,0.01628
2163.18072,0.01629
2161.12055,0.01534
2159.06038,0.01401
2157.00021,0.01396
2154.94003,0.01511
2152.87986,0.01599
2150.81969,0.01603
2148.75952,0.01554
2146.69935,0.01494
2144.63917,0.01481
2142.57900,0.01511
2140.51883,0.01531
2138.45866,0.01538
2136.39849,0.01563
2134.33831,0.01597
2132.27814,0.01604
2130.21797,0.01592
2128.15780,0.01599
2126.09762,0.01598
2124.03745,0.01570
2121.97728,0.01572
2119.91711,0.01602
2117.85694,0.01599
2115.79676,0.01558
2113.73659,0.01533
2111.67642,0.01540
2109.61625,0.01552
2107.55608,0.01563
2105.49590,0.01559
2103.43573,0.01549
2101.37556,0.01576
2099.31539,0.01666
2097.25521,0.01674
2095.19504,0.01605
2093.13487,0.01528
2091.07470,0.01485
2089.01453,0.01476
2086.95435,0.01497
2084.89418,0.01541
2082.83401,0.01588
2080.77384,0.01630
2078.71367,0.01652
2076.65349,0.01648
2074.59332,0.01653
2072.53315,0.01664
2070.47298,0.01644
2068.41281,0.01630
2066.35263,0.01659
2064.29246,0.01658
2062.23229,0.01573
2060.17212,0.01489
2058.11194,0.01473
2056.05177,0.01508
2053.99160,0.01570
2051.93143,0.01632
2049.87126,0.01685
2047.81108,0.01762
2045.75091,0.01836
2043.69074,0.01808
2041.63057,0.01722
2039.57040,0.01690
2037.51022,0.01703
2035.45005,0.01730
2033.38988,0.01685
2031.32971,0.01545
2029.26954,0.01503
2027.20936,0.01609
2025.14919,0.01672
2023.08902,0.01619
2021.02885,0.01564
2018.96867,0.01568
2016.90850,0.01617
2014.84833,0.01697
2012.78816,0.01730
2010.72799,0.01725
2008.66781,0.01770
2006.60764,0.01792
2004.54747,0.01676
2002.48730,0.01506
2000.42713,0.01431
1998.36695,0.01456
1996.30678,0.01505
1994.24661,0.01511
1992.18644,0.01437
1990.12626,0.01369
1988.06609,0.01410
1986.00592,0.01503
1983.94575,0.01592
1981.88558,0.01702
1979.82540,0.01835
1977.76523,0.01890
1975.70506,0.01815
1973.64489,0.01712
1971.58472,0.01674
1969.52454,0.01659
1967.46437,0.01636
1965.40420,0.01608
1963.34403,0.01570
1961.28386,0.01543
1959.22368,0.01536
1957.16351,0.01499
1955.10334,0.01437
1953.04317,0.01437
1950.98299,0.01493
1948.92282,0.01536
1946.86265,0.01560
1944.80248,0.01581
1942.74231,0.01609
1940.68213,0.01613
1938.62196,0.01595
1936.56179,0.01592
1934.50162,0.01603
1932.44145,0.01608
1930.38127,0.01606
1928.32110,0.01594
1926.26093,0.01559
1924.20076,0.01515
1922.14059,0.01504
1920.08041,0.01538
1918.02024,0.01578
1915.96007,0.01599
1913.89990,0.01617
1911.83972,0.01628
1909.77955,0.01615
1907.71938,0.01595
1905.65921,0.01605
1903.59904,0.01625
1901.53886,0.01607
1899.47869,0.01569
1897.41852,0.01562
1895.35835,0.01588
1893.29818,0.01616
1891.23800,0.01642
1889.17783,0.01660
1887.11766,0.01657
1885.05749,0.01647
1882.99731,0.01640
1880.93714,0.01632
1878.87697,0.01632
1876.81680,0.01650
1874.75663,0.01678
1872.69645,0.01698
1870.63628,0.01699
1868.57611,0.01684
1866.51594,0.01670
1864.45577,0.01670
1862.39559,0.01670
1860.33542,0.01668
1858.27525,0.01682
1856.21508,0.01704
1854.15491,0.01700
1852.09473,0.01674
1850.03456,0.01657
1847.97439,0.01648
1845.91422,0.01625
1843.85404,0.01597
1841.79387,0.01608
1839.73370,0.01646
1837.67353,0.01664
1835.61336,0.01652
1833.55318,0.01661
1831.49301,0.01711
1829.43284,0.01745
1827.37267,0.01743
1825.31250,0.01737
1823.25232,0.01746
1821.19215,0.01764
1819.13198,0.01762
1817.07181,0.01736
1815.01163,0.01712
1812.95146,0.01698
1810.89129,0.01682
1808.83112,0.01668
1806.77095,0.01669
1804.71077,0.01669
1802.65060,0.01654
1800.59043,0.01652
1798.53026,0.01656
1796.47009,0.01654
1794.40991,0.01662
1792.34974,0.01669
1790.28957,0.01654
1788.22940,0.01630
1786.16923,0.01608
1784.10905,0.01612
1782.04888,0.01646
1779.98871,0.01666
1777.92854,0.01666
1775.86836,0.01681
1773.80819,0.01703
1771.74802,0.01672
1769.68785,0.01589
1767.62768,0.01547
1765.56750,0.01574
1763.50733,0.01617
1761.44716,0.01621
1759.38699,0.01593
1757.32682,0.01579
1755.26664,0.01580
1753.20647,0.01572
1751.14630,0.01553
1749.08613,0.01552
1747.02596,0.01570
1744.96578,0.01586
1742.90561,0.01611
1740.84544,0.01637
1738.78527,0.01638
1736.72509,0.01625
1734.66492,0.01612
1732.60475,0.01604
1730.54458,0.01621
1728.48441,0.01641
1726.42423,0.01651
1724.36406,0.01645
1722.30389,0.01646
1720.24372,0.01684
1718.18355,0.01692
1716.12337,0.01605
1714.06320,0.01546
1712.00303,0.01545
1709.94286,0.01570
1707.88268,0.01596
1705.82251,0.01584
1703.76234,0.01557
1701.70217,0.01576
1699.64200,0.01596
1697.58182,0.01579
1695.52165,0.01573
1693.46148,0.01598
1691.40131,0.01627
1689.34114,0.01667
1687.28096,0.01736
1685.22079,0.01821
1683.16062,0.01833
1681.10045,0.01815
1679.04028,0.01849
1676.98010,0.01928
1674.91993,0.02012
1672.85976,0.02085
1670.79959,0.02143
1668.73941,0.02154
1666.67924,0.02145
1664.61907,0.02167
1662.55890,0.02190
1660.49873,0.02169
1658.43855,0.02154
1656.37838,0.02199
1654.31821,0.02263
1652.25804,0.02238
1650.19787,0.02202
1648.13769,0.02195
1646.07752,0.02177
1644.01735,0.02139
1641.95718,0.02135
1639.89701,0.02187
1637.83683,0.02259
1635.77666,0.02269
1633.71649,0.02224
1631.65632,0.02203
1629.59614,0.02218
1627.53597,0.02239
1625.47580,0.02246
1623.41563,0.02227
1621.35546,0.02195
1619.29528,0.02217
1617.23511,0.02270
1615.17494,0.02257
1613.11477,0.02211
1611.05460,0.02200
1608.99442,0.02215
1606.93425,0.02226
1604.87408,0.02235
1602.81391,0.02240
1600.75373,0.02236
1598.69356,0.02233
1596.63339,0.02233
1594.57322,0.02223
1592.51305,0.02193
1590.45287,0.02156
1588.39270,0.02128
1586.33253,0.02106
1584.27236,0.02071
1582.21219,0.02029
1580.15201,0.02017
1578.09184,0.02026
1576.03167,0.01969
1573.97150,0.01860
1571.91133,0.01809
1569.85115,0.01795
1567.79098,0.01742
1565.73081,0.01676
1563.67064,0.01666
1561.61046,0.01737
1559.55029,0.01761
1557.49012,0.01585
1555.42995,0.01434
1553.36978,0.01381
1551.30960,0.01369
1549.24943,0.01360
1547.18926,0.01356
1545.12909,0.01371
1543.06892,0.01411
1541.00874,0.01463
1538.94857,0.01436
1536.88840,0.01354
1534.82823,0.01310
1532.76805,0.01308
1530.70788,0.01293
1528.64771,0.01267
1526.58754,0.01226
1524.52737,0.01184
1522.46719,0.01159
1520.40702,0.01121
1518.34685,0.01095
1516.28668,0.01080
1514.22651,0.01054
1512.16633,0.01040
1510.10616,0.01068
1508.04599,0.01124
1505.98582,0.01154
1503.92565,0.01136
1501.86547,0.01109
1499.80530,0.01136
1497.74513,0.01191
1495.68496,0.01221
1493.62478,0.01242
1491.56461,0.01262
1489.50444,0.01250
1487.44427,0.01236
1485.38410,0.01250
1483.32392,0.01266
1481.26375,0.01274
1479.20358,0.01285
1477.14341,0.01298
1475.08324,0.01300
1473.02306,0.01293
1470.96289,0.01294
1468.90272,0.01308
1466.84255,0.01342
1464.78238,0.01368
1462.72220,0.01371
1460.66203,0.01395
1458.60186,0.01405
1456.54169,0.01331
1454.48151,0.01281
1452.42134,0.01298
1450.36117,0.01359
1448.30100,0.01426
1446.24083,0.01467
1444.18065,0.01488
1442.12048,0.01504
1440.06031,0.01510
1438.00014,0.01492
1435.93997,0.01462
1433.87979,0.01468
1431.81962,0.01507
1429.75945,0.01550
1427.69928,0.01574
1425.63910,0.01586
1423.57893,0.01593
1421.51876,0.01591
1419.45859,0.01574
1417.39842,0.01581
1415.33824,0.01643
1413.27807,0.01715
1411.21790,0.01759
1409.15773,0.01784
1407.09756,0.01804
1405.03738,0.01815
1402.97721,0.01822
1400.91704,0.01822
1398.85687,0.01794
1396.79670,0.01763
1394.73652,0.01772
1392.67635,0.01796
1390.61618,0.01806
1388.55601,0.01807
1386.49583,0.01817
1384.43566,0.01845
1382.37549,0.01866
1380.31532,0.01869
1378.25515,0.01876
1376.19497,0.01896
1374.13480,0.01897
1372.07463,0.01886
1370.01446,0.01898
1367.95429,0.01920
1365.89411,0.01926
1363.83394,0.01907
1361.77377,0.01888
1359.71360,0.01905
1357.65343,0.01935
1355.59325,0.01945
1353.53308,0.01938
1351.47291,0.01926
1349.41274,0.01911
1347.35256,0.01887
1345.29239,0.01852
1343.23222,0.01806
1341.17205,0.01736
1339.11188,0.01661
1337.05170,0.01645
1334.99153,0.01682
1332.93136,0.01703
1330.87119,0.01688
1328.81102,0.01669
1326.75084,0.01658
1324.69067,0.01638
1322.63050,0.01612
1320.57033,0.01588
1318.51015,0.01559
1316.44998,0.01532
1314.38981,0.01516
1312.32964,0.01512
1310.26947,0.01519
1308.20929,0.01523
1306.14912,0.01513
1304.08895,0.01509
1302.02878,0.01513
1299.96861,0.01505
1297.90843,0.01493
1295.84826,0.01499
1293.78809,0.01508
1291.72792,0.01491
1289.66775,0.01460
1287.60757,0.01444
1285.54740,0.01444
1283.48723,0.01450
1281.42706,0.01451
1279.36688,0.01445
1277.30671,0.01439
1275.24654,0.01433
1273.18637,0.01429
1271.12620,0.01428
1269.06602,0.01424
1267.00585,0.01414
1264.94568,0.01408
1262.88551,0.01412
1260.82534,0.01415
1258.76516,0.01412
1256.70499,0.01406
1254.64482,0.01401
1252.58465,0.01395
1250.52447,0.01382
1248.46430,0.01369
1246.40413,0.01357
1244.34396,0.01342
1242.28379,0.01335
1240.22361,0.01332
1238.16344,0.01328
1236.10327,0.01320
1234.04310,0.01305
1231.98293,0.01293
1229.92275,0.01289
1227.86258,0.01278
1225.80241,0.01258
1223.74224,0.01247
1221.68207,0.01241
1219.62189,0.01231
1217.56172,0.01223
1215.50155,0.01218
1213.44138,0.01212
1211.38120,0.01205
1209.32103,0.01206
1207.26086,0.01219
1205.20069,0.01242
1203.14052,0.01265
1201.08034,0.01282
1199.02017,0.01305
1196.96000,0.01362
1194.89983,0.01427
1192.83966,0.01483
1190.77948,0.01548
1188.71931,0.01624
1186.65914,0.01709
1184.59897,0.01813
1182.53880,0.01927
1180.47862,0.02038
1178.41845,0.02148
1176.35828,0.02247
1174.29811,0.02339
1172.23793,0.02436
1170.17776,0.02530
1168.11759,0.02618
1166.05742,0.02707
1163.99725,0.02801
1161.93707,0.02895
1159.87690,0.02989
1157.81673,0.03075
1155.75656,0.03154
1153.69639,0.03237
1151.63621,0.03326
1149.57604,0.03414
1147.51587,0.03489
1145.45570,0.03542
1143.39552,0.03574
1141.33535,0.03600
1139.27518,0.03627
1137.21501,0.03643
1135.15484,0.03653
1133.09466,0.03668
1131.03449,0.03685
1128.97432,0.03703
1126.91415,0.03731
1124.85398,0.03772
1122.79380,0.03821
1120.73363,0.03868
1118.67346,0.03909
1116.61329,0.03960
1114.55312,0.04032
1112.49294,0.04108
1110.43277,0.04184
1108.37260,0.04269
1106.31243,0.04369
1104.25225,0.04466
1102.19208,0.04547
1100.13191,0.04628
1098.07174,0.04726
1096.01157,0.04827
1093.95139,0.04924
1091.89122,0.05030
1089.83105,0.05144
1087.77088,0.05254
1085.71071,0.05359
1083.65053,0.05467
1081.59036,0.05571
1079.53019,0.05672
1077.47002,0.05773
1075.40985,0.05864
1073.34967,0.05943
1071.28950,0.06007
1069.22933,0.06038
1067.16916,0.06042
1065.10898,0.06021
1063.04881,0.05982
1060.98864,0.05934
1058.92847,0.05874
1056.86830,0.05802
1054.80812,0.05719
1052.74795,0.05615
1050.68778,0.05483
1048.62761,0.05343
1046.56744,0.05207
1044.50726,0.05064
1042.44709,0.04900
1040.38692,0.04722
1038.32675,0.04550
1036.26657,0.04377
1034.20640,0.04191
1032.14623,0.04020
1030.08606,0.03885
1028.02589,0.03764
1025.96571,0.03641
1023.90554,0.03528
1021.84537,0.03428
1019.78520,0.03329
1017.72503,0.03237
1015.66485,0.03178
1013.60468,0.03154
1011.54451,0.03150
1009.48434,0.03159
1007.42417,0.03175
1005.36399,0.03203
1003.30382,0.03261
1001.24365,0.03351
999.18348,0.03451
997.12330,0.03541
995.06313,0.03611
993.00296,0.03663
990.94279,0.03725
988.88262,0.03803
986.82244,0.03869
984.76227,0.03912
982.70210,0.03935
980.64193,0.03957
978.58176,0.03980
976.52158,0.03983
974.46141,0.03987
972.40124,0.04001
970.34107,0.03996
968.28089,0.03962
966.22072,0.03916
964.16055,0.03880
962.10038,0.03856
960.04021,0.03831
957.98003,0.03801
955.91986,0.03772
953.85969,0.03745
951.79952,0.03712
949.73935,0.03676
947.67917,0.03652
945.61900,0.03627
943.55883,0.03587
941.49866,0.03533
939.43849,0.03471
937.37831,0.03412
935.31814,0.03348
933.25797,0.03262
931.19780,0.03162
929.13762,0.03067
927.07745,0.02979
925.01728,0.02900
922.95711,0.02826
920.89694,0.02754
918.83676,0.02679
916.77659,0.02584
914.71642,0.02469
912.65625,0.02379
910.59608,0.02322
908.53590,0.02259
906.47573,0.02186
904.41556,0.02124
902.35539,0.02088
900.29522,0.02066
898.23504,0.02039
896.17487,0.02040
894.11470,0.02071
892.05453,0.02092
889.99435,0.02114
887.93418,0.02164
885.87401,0.02238
883.81384,0.02326
881.75367,0.02421
879.69349,0.02512
877.63332,0.02615
875.57315,0.02735
873.51298,0.02861
871.45281,0.03012
869.39263,0.03182
867.33246,0.03340
865.27229,0.03493
863.21212,0.03647
861.15194,0.03778
859.09177,0.03866
857.03160,0.03915
854.97143,0.03927
852.91126,0.03908
850.85108,0.03877
848.79091,0.03818
846.73074,0.03725
844.67057,0.03625
842.61040,0.03517
840.55022,0.03396
838.49005,0.03270
836.42988,0.03138
834.36971,0.03021
832.30954,0.02934
830.24936,0.02856
828.18919,0.02782
826.12902,0.02700
824.06885,0.02618
822.00867,0.02568
819.94850,0.02520
817.88833,0.02450
815.82816,0.02380
813.76799,0.02314
811.70781,0.02238
809.64764,0.02154
807.58747,0.02081
805.52730,0.02040
803.46713,0.02038
801.40695,0.02041
799.34678,0.01986
797.28661,0.01886
795.22644,0.01819
793.16627,0.01790
791.10609,0.01767
789.04592,0.01739
786.98575,0.01712
784.92558,0.01696
782.86540,0.01677
780.80523,0.01648
778.74506,0.01623
776.68489,0.01602
774.62472,0.01547
772.56454,0.01480
770.50437,0.01460
768.44420,0.01466
766.38403,0.01448
764.32386,0.01423
762.26368,0.01414
760.20351,0.01387
758.14334,0.01334
756.08317,0.01290
754.02299,0.01263
751.96282,0.01250
749.90265,0.01248
747.84248,0.01219
745.78231,0.01170
743.72213,0.01137
741.66196,0.01099
739.60179,0.01046
737.54162,0.01021
735.48145,0.01035
733.42127,0.01068
731.36110,0.01085
729.30093,0.01060
727.24076,0.01012
725.18059,0.00974
723.12041,0.00930
721.06024,0.00917
719.00007,0.00943
716.93990,0.00967
714.87972,0.00955
712.81955,0.00930
710.75938,0.00900
708.69921,0.00844
706.63904,0.00817
704.57886,0.00869
702.51869,0.00929
700.45852,0.00919
698.39835,0.00848
696.33818,0.00774
694.27800,0.00745
692.21783,0.00762
690.15766,0.00775
688.09749,0.00763
686.03731,0.00770
683.97714,0.00803
681.91697,0.00810
679.85680,0.00758
677.79663,0.00679
675.73645,0.00653
673.67628,0.00674
671.61611,0.00655
669.55594,0.00579
667.49577,0.00523
665.43559,0.00538
663.37542,0.00557
661.31525,0.00552
659.25508,0.00516
657.19491,0.00490
655.13473,0.00499
653.07456,0.00522
651.01439,0.00529
648.95422,0.00512
646.89404,0.00520
644.83387,0.00576
642.77370,0.00601
640.71353,0.00540
638.65336,0.00446
636.59318,0.00379
634.53301,0.00345
632.47284,0.00327
630.41267,0.00313
628.35250,0.00306
626.29232,0.00319
624.23215,0.00347
622.17198,0.00326
620.11181,0.00161
618.05164,0.00000
615.99146,0.00023
613.93129,0.00114
611.87112,0.00152
609.81095,0.00168
607.75077,0.00152
605.69060,0.00073
603.63043,-0.00005
601.57026,-0.00023
599.51009,0.00000
