3996.73391,-0.00025
3994.67373,-0.00052
3992.61356,-0.00056
3990.55339,-0.00038
3988.49322,-0.00018
3986.43305,0.00002
3984.37287,0.00023
3982.31270,0.00027
3980.25253,0.00013
3978.19236,0.00017
3976.13219,0.00042
3974.07201,0.00060
3972.01184,0.00062
3969.95167,0.00066
3967.89150,0.00090
3965.83133,0.00113
3963.77115,0.00101
3961.71098,0.00065
3959.65081,0.00047
3957.59064,0.00057
3955.53046,0.00081
3953.47029,0.00103
3951.41012,0.00089
3949.34995,0.00032
3947.28978,0.00000
3945.22960,0.00031
3943.16943,0.00068
3941.10926,0.00084
3939.04909,0.00099
3936.98892,0.00104
3934.92874,0.00081
3932.86857,0.00065
3930.80840,0.00100
3928.74823,0.00149
3926.68805,0.00168
3924.62788,0.00153
3922.56771,0.00103
3920.50754,0.00043
3918.44737,0.00007
3916.38719,0.00047
3914.32702,0.00141
3912.26685,0.00201
3910.20668,0.00206
3908.14651,0.00188
3906.08633,0.00146
3904.02616,0.00059
3901.96599,0.00005
3899.90582,0.00056
3897.84565,0.00121
3895.78547,0.00130
3893.72530,0.00114
3891.66513,0.00104
3889.60496,0.00092
3887.54478,0.00073
3885.48461,0.00066
3883.42444,0.00071
3881.36427,0.00083
3879.30410,0.00105
3877.24392,0.00111
3875.18375,0.00082
3873.12358,0.00029
3871.06341,-0.00013
3869.00324,0.00005
3866.94306,0.00049
3864.88289,0.00063
3862.82272,0.00063
3860.76255,0.00067
3858.70237,0.00049
3856.64220,0.00000
3854.58203,0.00026
3852.52186,0.00156
3850.46169,0.00233
3848.40151,0.00191
3846.34134,0.00148
3844.28117,0.00160
3842.22100,0.00183
3840.16083,0.00175
3838.10065,0.00157
3836.04048,0.00178
3833.98031,0.00213
3831.92014,0.00239
3829.85997,0.00275
3827.79979,0.00304
3825.73962,0.00289
3823.67945,0.00257
3821.61928,0.00261
3819.55910,0.00278
3817.49893,0.00293
3815.43876,0.00310
3813.37859,0.00312
3811.31842,0.00288
3809.25824,0.00273
3807.19807,0.00279
3805.13790,0.00291
3803.07773,0.00320
3801.01756,0.00365
3798.95738,0.00370
3796.89721,0.00348
3794.83704,0.00373
3792.77687,0.00421
3790.71670,0.00439
3788.65652,0.00441
3786.59635,0.00455
3784.53618,0.00467
3782.47601,0.00474
3780.41583,0.00496
3778.35566,0.00522
3776.29549,0.00524
3774.23532,0.00504
3772.17515,0.00482
3770.11497,0.00469
3768.05480,0.00461
3765.99463,0.00443
3763.93446,0.00406
3761.87429,0.00365
3759.81411,0.00329
3757.75394,0.00283
3755.69377,0.00244
3753.63360,0.00223
3751.57342,0.00172
3749.51325,0.00083
3747.45308,0.00023
3745.39291,0.00000
3743.33274,0.00077
3741.27256,0.00172
3739.21239,0.00183
3737.15222,0.00167
3735.09205,0.00166
3733.03188,0.00193
3730.97170,0.00235
3728.91153,0.00229
3726.85136,0.00187
3724.79119,0.00178
3722.73102,0.00223
3720.67084,0.00306
3718.61067,0.00337
3716.55050,0.00333
3714.49033,0.00350
3712.43015,0.00389
3710.36998,0.00433
3708.30981,0.00455
3706.24964,0.00482
3704.18947,0.00495
3702.12929,0.00486
3700.06912,0.00475
3698.00895,0.00471
3695.94878,0.00482
3693.88861,0.00491
3691.82843,0.00511
3689.76826,0.00517
3687.70809,0.00526
3685.64792,0.00533
3683.58775,0.00528
3681.52757,0.00507
3679.46740,0.00477
3677.40723,0.00455
3675.34706,0.00477
3673.28688,0.00511
3671.22671,0.00537
3669.16654,0.00569
3667.10637,0.00567
3665.04620,0.00542
3662.98602,0.00543
3660.92585,0.00556
3658.86568,0.00551
3656.80551,0.00544
3654.74534,0.00554
3652.68516,0.00578
3650.62499,0.00607
3648.56482,0.00617
3646.50465,0.00638
3644.44447,0.00640
3642.38430,0.00649
3640.32413,0.00676
3638.26396,0.00676
3636.20379,0.00652
3634.14361,0.00647
3632.08344,0.00681
3630.02327,0.00727
3627.96310,0.00759
3625.90293,0.00760
3623.84275,0.00765
3621.78258,0.00778
3619.72241,0.00777
3617.66224,0.00753
3615.60207,0.00709
3613.54189,0.00685
3611.48172,0.00681
3609.42155,0.00718
3607.36138,0.00793
3605.30120,0.00865
3603.24103,0.00937
3601.18086,0.01000
3599.12069,0.01041
3597.06052,0.01045
3595.00034,0.01049
3592.94017,0.01064
3590.88000,0.01104
3588.81983,0.01127
3586.75966,0.01143
3584.69948,0.01180
3582.63931,0.01219
3580.57914,0.01253
3578.51897,0.01301
3576.45879,0.01346
3574.39862,0.01365
3572.33845,0.01375
3570.27828,0.01380
3568.21811,0.01371
3566.15793,0.01384
3564.09776,0.01435
3562.03759,0.01467
3559.97742,0.01480
3557.91725,0.01495
3555.85707,0.01513
3553.79690,0.01544
3551.73673,0.01581
3549.67656,0.01584
3547.61639,0.01539
3545.55621,0.01505
3543.49604,0.01534
3541.43587,0.01604
3539.37570,0.01675
3537.31552,0.01730
3535.25535,0.01771
3533.19518,0.01805
3531.13501,0.01825
3529.07484,0.01818
3527.01466,0.01781
3524.95449,0.01767
3522.89432,0.01824
3520.83415,0.01922
3518.77398,0.01995
3516.71380,0.02022
3514.65363,0.02027
3512.59346,0.02023
3510.53329,0.02016
3508.47312,0.02024
3506.41294,0.02039
3504.35277,0.02039
3502.29260,0.02033
3500.23243,0.02070
3498.17225,0.02136
3496.11208,0.02177
3494.05191,0.02186
3491.99174,0.02195
3489.93157,0.02223
3487.87139,0.02250
3485.81122,0.02257
3483.75105,0.02265
3481.69088,0.02294
3479.63071,0.02335
3477.57053,0.02365
3475.51036,0.02384
3473.45019,0.02396
3471.39002,0.02410
3469.32984,0.02435
3467.26967,0.02465
3465.20950,0.02477
3463.14933,0.02466
3461.08916,0.02463
3459.02898,0.02483
3456.96881,0.02512
3454.90864,0.02544
3452.84847,0.02581
3450.78830,0.02596
3448.72812,0.02582
3446.66795,0.02565
3444.60778,0.02576
3442.54761,0.02607
3440.48744,0.02625
3438.42726,0.02631
3436.36709,0.02651
3434.30692,0.02680
3432.24675,0.02702
3430.18657,0.02716
3428.12640,0.02727
3426.06623,0.02733
3424.00606,0.02744
3421.94589,0.02769
3419.88571,0.02784
3417.82554,0.02799
3415.76537,0.02825
3413.70520,0.02854
3411.64503,0.02871
3409.58485,0.02863
3407.52468,0.02852
3405.46451,0.02862
3403.40434,0.02868
3401.34416,0.02855
3399.28399,0.02778
3397.22382,0.02807
3395.16365,0.02846
3393.10348,0.02862
3391.04330,0.02880
3388.98313,0.02907
3386.92296,0.02930
3384.86279,0.02956
3382.80262,0.02998
3380.74244,0.03028
3378.68227,0.03036
3376.62210,0.03048
3374.56193,0.03063
3372.50176,0.03057
3370.44158,0.03040
3368.38141,0.03027
3366.32124,0.03025
3364.26107,0.03043
3362.20089,0.03062
3360.14072,0.03067
3358.08055,0.03069
3356.02038,0.03075
3353.96021,0.03079
3351.90003,0.03083
3349.83986,0.03098
3347.77969,0.03129
3345.71952,0.03156
3343.65935,0.03170
3341.59917,0.03166
3339.53900,0.03147
3337.47883,0.03139
3335.41866,0.03152
3333.35849,0.03168
3331.29831,0.03178
3329.23814,0.03186
3327.17797,0.03186
3325.11780,0.03180
3323.05762,0.03183
3320.99745,0.03204
3318.93728,0.03229
3316.87711,0.03240
3314.81694,0.03228
3312.75676,0.03192
3310.69659,0.03164
3308.63642,0.03179
3306.57625,0.03221
3304.51608,0.03256
3302.45590,0.03282
3300.39573,0.03293
3298.33556,0.03284
3296.27539,0.03268
3294.21521,0.03252
3292.15504,0.03243
3290.09487,0.03250
3288.03470,0.03265
3285.97453,0.03270
3283.91435,0.03270
3281.85418,0.03270
3279.79401,0.03258
3277.73384,0.03247
3275.67367,0.03254
3273.61349,0.03276
3271.55332,0.03296
3269.49315,0.03304
3267.43298,0.03305
3265.37281,0.03308
3263.31263,0.03312
3261.25246,0.03316
3259.19229,0.03320
3257.13212,0.03315
3255.07194,0.03301
3253.01177,0.03305
3250.95160,0.03333
3248.89143,0.03350
3246.83126,0.03333
3244.77108,0.03305
3242.71091,0.03310
3240.65074,0.03333
3238.59057,0.03336
3236.53040,0.03325
3234.47022,0.03323
3232.41005,0.03338
3230.34988,0.03355
3228.28971,0.03360
3226.22954,0.03361
3224.16936,0.03366
3222.10919,0.03359
3220.04902,0.03341
3217.98885,0.03343
3215.92867,0.03360
3213.86850,0.03362
3211.80833,0.03347
3209.74816,0.03333
3207.68799,0.03329
3205.62781,0.03334
3203.56764,0.03337
3201.50747,0.03334
3199.44730,0.03337
3197.38713,0.03351
3195.32695,0.03354
3193.26678,0.03343
3191.20661,0.03331
3189.14644,0.03320
3187.08626,0.03304
3185.02609,0.03293
3182.96592,0.03299
3180.90575,0.03315
3178.84558,0.03323
3176.78540,0.03335
3174.72523,0.03345
3172.66506,0.03333
3170.60489,0.03315
3168.54472,0.03312
3166.48454,0.03325
3164.42437,0.03338
3162.36420,0.03337
3160.30403,0.03322
3158.24386,0.03302
3156.18368,0.03281
3154.12351,0.03263
3152.06334,0.03262
3150.00317,0.03274
3147.94299,0.03277
3145.88282,0.03275
3143.82265,0.03281
3141.76248,0.03287
3139.70231,0.03293
3137.64213,0.03291
3135.58196,0.03266
3133.52179,0.03233
3131.46162,0.03227
3129.40145,0.03238
3127.34127,0.03232
3125.28110,0.03208
3123.22093,0.03189
3121.16076,0.03188
3119.10058,0.03189
3117.04041,0.03173
3114.98024,0.03159
3112.92007,0.03165
3110.85990,0.03178
3108.79972,0.03188
3106.73955,0.03194
3104.67938,0.03188
3102.61921,0.03163
3100.55904,0.03142
3098.49886,0.03146
3096.43869,0.03146
3094.37852,0.03134
3092.31835,0.03136
3090.25818,0.03140
3088.19800,0.03131
3086.13783,0.03135
3084.07766,0.03139
3082.01749,0.03114
3079.95731,0.03089
3077.89714,0.03089
3075.83697,0.03094
3073.77680,0.03093
3071.71663,0.03091
3069.65645,0.03086
3067.59628,0.03068
3065.53611,0.03049
3063.47594,0.03045
3061.41577,0.03048
3059.35559,0.03045
3057.29542,0.03038
3055.23525,0.03032
3053.17508,0.03026
3051.11491,0.03014
3049.05473,0.03003
3046.99456,0.02991
3044.93439,0.02973
3042.87422,0.02964
3040.81404,0.02969
3038.75387,0.02974
3036.69370,0.02967
3034.63353,0.02958
3032.57336,0.02944
3030.51318,0.02928
3028.45301,0.02916
3026.39284,0.02906
3024.33267,0.02905
3022.27250,0.02911
3020.21232,0.02905
3018.15215,0.02878
3016.09198,0.02838
3014.03181,0.02815
3011.97163,0.02817
3009.91146,0.02823
3007.85129,0.02819
3005.79112,0.02810
3003.73095,0.02802
3001.67077,0.02794
2999.61060,0.02798
2997.55043,0.02786
2995.49026,0.02771
2993.43009,0.02771
2991.36991,0.02793
2989.30974,0.02801
2987.24957,0.02789
2985.18940,0.02789
2983.12923,0.02799
2981.06905,0.02797
2979.00888,0.02794
2976.94871,0.02792
2974.88854,0.02784
2972.82836,0.02780
2970.76819,0.02782
2968.70802,0.02782
2966.64785,0.02779
2964.58768,0.02784
2962.52750,0.02803
2960.46733,0.02822
2958.40716,0.02832
2956.34699,0.02838
2954.28682,0.02830
2952.22664,0.02812
2950.16647,0.02804
2948.10630,0.02810
2946.04613,0.02820
2943.98596,0.02821
2941.92578,0.02811
2939.86561,0.02805
2937.80544,0.02810
2935.74527,0.02819
2933.68509,0.02831
2931.62492,0.02844
2929.56475,0.02847
2927.50458,0.02839
2925.44441,0.02834
2923.38423,0.02840
2921.32406,0.02855
2919.26389,0.02863
2917.20372,0.02858
2915.14355,0.02854
2913.08337,0.02847
2911.02320,0.02825
2908.96303,0.02803
2906.90286,0.02797
2904.84268,0.02802
2902.78251,0.02811
2900.72234,0.02818
2898.66217,0.02818
2896.60200,0.02818
2894.54182,0.02820
2892.48165,0.02817
2890.42148,0.02804
2888.36131,0.02795
2886.30114,0.02799
2884.24096,0.02806
2882.18079,0.02809
2880.12062,0.02800
2878.06045,0.02787
2876.00028,0.02778
2873.94010,0.02774
2871.87993,0.02776
2869.81976,0.02778
2867.75959,0.02779
2865.69941,0.02773
2863.63924,0.02758
2861.57907,0.02751
2859.51890,0.02755
2857.45873,0.02760
2855.39855,0.02762
2853.33838,0.02759
2851.27821,0.02745
2849.21804,0.02735
2847.15787,0.02736
2845.09769,0.02731
2843.03752,0.02714
2840.97735,0.02699
2838.91718,0.02690
2836.85700,0.02684
2834.79683,0.02680
2832.73666,0.02676
2830.67649,0.02673
2828.61632,0.02662
2826.55614,0.02643
2824.49597,0.02628
2822.43580,0.02617
2820.37563,0.02608
2818.31546,0.02601
2816.25528,0.02595
2814.19511,0.02592
2812.13494,0.02593
2810.07477,0.02593
2808.01460,0.02581
2805.95442,0.02565
2803.89425,0.02556
2801.83408,0.02554
2799.77391,0.02551
2797.71373,0.02539
2795.65356,0.02526
2793.59339,0.02516
2791.53322,0.02512
2789.47305,0.02516
2787.41287,0.02518
2785.35270,0.02512
2783.29253,0.02506
2781.23236,0.02496
2779.17219,0.02487
2777.11201,0.02488
2775.05184,0.02481
2772.99167,0.02462
2770.93150,0.02446
2768.87133,0.02438
2766.81115,0.02431
2764.75098,0.02420
2762.69081,0.02405
2760.63064,0.02389
2758.57046,0.02381
2756.51029,0.02387
2754.45012,0.02394
2752.38995,0.02395
2750.32978,0.02392
2748.26960,0.02382
2746.20943,0.02368
2744.14926,0.02352
2742.08909,0.02342
2740.02892,0.02339
2737.96874,0.02341
2735.90857,0.02345
2733.84840,0.02342
2731.78823,0.02333
2729.72805,0.02325
2727.66788,0.02315
2725.60771,0.02302
2723.54754,0.02293
2721.48737,0.02290
2719.42719,0.02286
2717.36702,0.02288
2715.30685,0.02292
2713.24668,0.02282
2711.18651,0.02268
2709.12633,0.02261
2707.06616,0.02244
2705.00599,0.02229
2702.94582,0.02232
2700.88565,0.02241
2698.82547,0.02237
2696.76530,0.02230
2694.70513,0.02230
2692.64496,0.02230
2690.58478,0.02228
2688.52461,0.02222
2686.46444,0.02212
2684.40427,0.02204
2682.34410,0.02200
2680.28392,0.02198
2678.22375,0.02202
2676.16358,0.02202
2674.10341,0.02196
2672.04324,0.02186
2669.98306,0.02174
2667.92289,0.02167
2665.86272,0.02171
2663.80255,0.02171
2661.74238,0.02167
2659.68220,0.02163
2657.62203,0.02155
2655.56186,0.02146
2653.50169,0.02146
2651.44151,0.02149
2649.38134,0.02150
2647.32117,0.02147
2645.26100,0.02135
2643.20083,0.02116
2641.14065,0.02107
2639.08048,0.02110
2637.02031,0.02121
2634.96014,0.02132
2632.89997,0.02139
2630.83979,0.02137
2628.77962,0.02124
2626.71945,0.02108
2624.65928,0.02105
2622.59910,0.02116
2620.53893,0.02120
2618.47876,0.02116
2616.41859,0.02113
2614.35842,0.02113
2612.29824,0.02116
2610.23807,0.02122
2608.17790,0.02122
2606.11773,0.02104
2604.05756,0.02084
2601.99738,0.02091
2599.93721,0.02105
2597.87704,0.02100
2595.81687,0.02099
2593.75670,0.02112
2591.69652,0.02115
2589.63635,0.02116
2587.57618,0.02131
2585.51601,0.02130
2583.45583,0.02110
2581.39566,0.02101
2579.33549,0.02104
2577.27532,0.02111
2575.21515,0.02115
2573.15497,0.02106
2571.09480,0.02099
2569.03463,0.02115
2566.97446,0.02138
2564.91429,0.02134
2562.85411,0.02116
2560.79394,0.02118
2558.73377,0.02126
2556.67360,0.02125
2554.61342,0.02123
2552.55325,0.02130
2550.49308,0.02138
2548.43291,0.02139
2546.37274,0.02126
2544.31256,0.02107
2542.25239,0.02100
2540.19222,0.02103
2538.13205,0.02105
2536.07188,0.02113
2534.01170,0.02133
2531.95153,0.02159
2529.89136,0.02179
2527.83119,0.02187
2525.77102,0.02187
2523.71084,0.02178
2521.65067,0.02169
2519.59050,0.02168
2517.53033,0.02167
2515.47015,0.02163
2513.40998,0.02158
2511.34981,0.02165
2509.28964,0.02191
2507.22947,0.02220
2505.16929,0.02233
2503.10912,0.02220
2501.04895,0.02193
2498.98878,0.02181
2496.92861,0.02199
2494.86843,0.02232
2492.80826,0.02254
2490.74809,0.02253
2488.68792,0.02237
2486.62775,0.02235
2484.56757,0.02248
2482.50740,0.02256
2480.44723,0.02255
2478.38706,0.02248
2476.32688,0.02249
2474.26671,0.02281
2472.20654,0.02317
2470.14637,0.02329
2468.08620,0.02320
2466.02602,0.02305
2463.96585,0.02300
2461.90568,0.02310
2459.84551,0.02329
2457.78534,0.02339
2455.72516,0.02331
2453.66499,0.02323
2451.60482,0.02317
2449.54465,0.02318
2447.48447,0.02345
2445.42430,0.02373
2443.36413,0.02372
2441.30396,0.02357
2439.24379,0.02355
2437.18361,0.02355
2435.12344,0.02353
2433.06327,0.02360
2431.00310,0.02363
2428.94293,0.02366
2426.88275,0.02380
2424.82258,0.02379
2422.76241,0.02361
2420.70224,0.02355
2418.64207,0.02359
2416.58189,0.02358
2414.52172,0.02357
2412.46155,0.02351
2410.40138,0.02332
2408.34120,0.02313
2406.28103,0.02312
2404.22086,0.02335
2402.16069,0.02361
2400.10052,0.02354
2398.04034,0.02337
2395.98017,0.02334
2393.92000,0.02340
2391.85983,0.02334
2389.79966,0.02322
2387.73948,0.02311
2385.67931,0.02306
2383.61914,0.02278
2381.55897,0.02214
2379.49880,0.02161
2377.43862,0.02137
2375.37845,0.02044
2373.31828,0.02075
2371.25811,0.02177
2369.19793,0.02186
2367.13776,0.02203
2365.07759,0.02276
2363.01742,0.02059
2360.95725,0.02219
2358.89707,0.02174
2356.83690,0.02089
2354.77673,0.01889
2352.71656,0.01925
2350.65639,0.02561
2348.59621,0.02981
2346.53604,0.01948
2344.47587,0.01779
2342.41570,0.02084
2340.35552,0.02310
2338.29535,0.02346
2336.23518,0.02295
2334.17501,0.02246
2332.11484,0.02135
2330.05466,0.02068
2327.99449,0.01891
2325.93432,0.02046
2323.87415,0.01964
2321.81398,0.01978
2319.75380,0.01871
2317.69363,0.02010
2315.63346,0.02011
2313.57329,0.01907
2311.51312,0.01922
2309.45294,0.01971
2307.39277,0.02010
2305.33260,0.02029
2303.27243,0.02046
2301.21225,0.02011
2299.15208,0.02006
2297.09191,0.02019
2295.03174,0.02042
2292.97157,0.02108
2290.91139,0.02157
2288.85122,0.02165
2286.79105,0.02161
2284.73088,0.02158
2282.67071,0.02159
2280.61053,0.02160
2278.55036,0.02151
2276.49019,0.02128
2274.43002,0.02107
2272.36984,0.02072
2270.30967,0.02055
2268.24950,0.02075
2266.18933,0.02105
2264.12916,0.02123
2262.06898,0.02135
2260.00881,0.02131
2257.94864,0.02125
2255.88847,0.02086
2253.82830,0.02032
2251.76812,0.01999
2249.70795,0.01999
2247.64778,0.02044
2245.58761,0.02078
2243.52744,0.02050
2241.46726,0.02016
2239.40709,0.02030
2237.34692,0.02066
2235.28675,0.02073
2233.22657,0.02067
2231.16640,0.02089
2229.10623,0.02093
2227.04606,0.02063
2224.98589,0.02053
2222.92571,0.02039
2220.86554,0.02005
2218.80537,0.02003
2216.74520,0.01997
2214.68503,0.01958
2212.62485,0.01953
2210.56468,0.01985
2208.50451,0.02002
2206.44434,0.01978
2204.38417,0.01965
2202.32399,0.01996
2200.26382,0.01982
2198.20365,0.01935
2196.14348,0.01924
2194.08330,0.01909
2192.02313,0.01902
2189.96296,0.01916
2187.90279,0.01896
2185.84262,0.01852
2183.78244,0.01841
2181.72227,0.01856
2179.66210,0.01907
2177.60193,0.01973
2175.54176,0.01947
2173.48158,0.01849
2171.42141,0.01797
2169.36124,0.01803
2167.30107,0.01843
2165.24089,0.01892
2163.18072,0.01891
2161.12055,0.01837
2159.06038,0.01752
2157.00021,0.01678
2154.94003,0.01707
2152.87986,0.01817
2150.81969,0.01874
2148.75952,0.01853
2146.69935,0.01822
2144.63917,0.01795
2142.57900,0.01779
2140.51883,0.01778
2138.45866,0.01790
2136.39849,0.01814
2134.33831,0.01826
2132.27814,0.01818
2130.21797,0.01815
2128.15780,0.01817
2126.09762,0.01803
2124.03745,0.01790
2121.97728,0.01791
2119.91711,0.01776
2117.85694,0.01751
2115.79676,0.01755
2113.73659,0.01787
2111.67642,0.01813
2109.61625,0.01813
2107.55608,0.01815
2105.49590,0.01815
2103.43573,0.01785
2101.37556,0.01771
2099.31539,0.01836
2097.25521,0.01852
2095.19504,0.01813
2093.13487,0.01749
2091.07470,0.01718
2089.01453,0.01730
2086.95435,0.01758
2084.89418,0.01787
2082.83401,0.01818
2080.77384,0.01874
2078.71367,0.01942
2076.65349,0.01980
2074.59332,0.01971
2072.53315,0.01914
2070.47298,0.01847
2068.41281,0.01827
2066.35263,0.01829
2064.29246,0.01787
2062.23229,0.01722
2060.17212,0.01705
2058.11194,0.01738
2056.05177,0.01769
2053.99160,0.01796
2051.93143,0.01819
2049.87126,0.01851
2047.81108,0.01932
2045.75091,0.02009
2043.69074,0.01989
2041.63057,0.01949
2039.57040,0.01984
2037.51022,0.02027
2035.45005,0.02006
2033.38988,0.01915
2031.32971,0.01789
2029.26954,0.01732
2027.20936,0.01778
2025.14919,0.01856
2023.08902,0.01883
2021.02885,0.01857
2018.96867,0.01811
2016.90850,0.01812
2014.84833,0.01903
2012.78816,0.01983
2010.72799,0.02016
2008.66781,0.02053
2006.60764,0.02019
2004.54747,0.01892
2002.48730,0.01796
2000.42713,0.01758
1998.36695,0.01742
1996.30678,0.01734
1994.24661,0.01726
1992.18644,0.01701
1990.12626,0.01661
1988.06609,0.01648
1986.00592,0.01698
1983.94575,0.01810
1981.88558,0.01972
1979.82540,0.02164
1977.76523,0.02259
1975.70506,0.02165
1973.64489,0.02043
1971.58472,0.02010
1969.52454,0.01984
1967.46437,0.01935
1965.40420,0.01887
1963.34403,0.01837
1961.28386,0.01801
1959.22368,0.01783
1957.16351,0.01755
1955.10334,0.01738
1953.04317,0.01765
1950.98299,0.01800
1948.92282,0.01820
1946.86265,0.01842
1944.80248,0.01877
1942.74231,0.01908
1940.68213,0.01897
1938.62196,0.01866
1936.56179,0.01852
1934.50162,0.01855
1932.44145,0.01845
1930.38127,0.01818
1928.32110,0.01799
1926.26093,0.01800
1924.20076,0.01818
1922.14059,0.01834
1920.08041,0.01830
1918.02024,0.01826
1915.96007,0.01838
1913.89990,0.01867
1911.83972,0.01889
1909.77955,0.01889
1907.71938,0.01887
1905.65921,0.01905
1903.59904,0.01927
1901.53886,0.01934
1899.47869,0.01924
1897.41852,0.01908
1895.35835,0.01886
1893.29818,0.01866
1891.23800,0.01877
1889.17783,0.01910
1887.11766,0.01936
1885.05749,0.01950
1882.99731,0.01944
1880.93714,0.01925
1878.87697,0.01918
1876.81680,0.01941
1874.75663,0.01974
1872.69645,0.01997
1870.63628,0.02014
1868.57611,0.02020
1866.51594,0.02002
1864.45577,0.01981
1862.39559,0.01968
1860.33542,0.01964
1858.27525,0.01982
1856.21508,0.02009
1854.15491,0.02013
1852.09473,0.01997
1850.03456,0.01977
1847.97439,0.01960
1845.91422,0.01936
1843.85404,0.01918
1841.79387,0.01936
1839.73370,0.01977
1837.67353,0.02002
1835.61336,0.01999
1833.55318,0.02005
1831.49301,0.02047
1829.43284,0.02077
1827.37267,0.02071
1825.31250,0.02061
1823.25232,0.02065
1821.19215,0.02079
1819.13198,0.02073
1817.07181,0.02046
1815.01163,0.02026
1812.95146,0.02017
1810.89129,0.02004
1808.83112,0.01995
1806.77095,0.02000
1804.71077,0.02003
1802.65060,0.01996
1800.59043,0.02006
1798.53026,0.02023
1796.47009,0.02034
1794.40991,0.02051
1792.34974,0.02056
1790.28957,0.02024
1788.22940,0.01978
1786.16923,0.01951
1784.10905,0.01973
1782.04888,0.02029
1779.98871,0.02054
1777.92854,0.02044
1775.86836,0.02056
1773.80819,0.02099
1771.74802,0.02095
1769.68785,0.02015
1767.62768,0.01956
1765.56750,0.01964
1763.50733,0.01998
1761.44716,0.02006
1759.38699,0.01990
1757.32682,0.01982
1755.26664,0.01982
1753.20647,0.01984
1751.14630,0.01990
1749.08613,0.02003
1747.02596,0.02009
1744.96578,0.02016
1742.90561,0.02039
1740.84544,0.02056
1738.78527,0.02048
1736.72509,0.02039
1734.66492,0.02044
1732.60475,0.02048
1730.54458,0.02048
1728.48441,0.02028
1726.42423,0.02003
1724.36406,0.01991
1722.30389,0.02011
1720.24372,0.02076
1718.18355,0.02115
1716.12337,0.02035
1714.06320,0.01950
1712.00303,0.01913
1709.94286,0.01925
1707.88268,0.01964
1705.82251,0.01970
1703.76234,0.01946
1701.70217,0.01968
1699.64200,0.02008
1697.58182,0.02004
1695.52165,0.01981
1693.46148,0.01979
1691.40131,0.02000
1689.34114,0.02053
1687.28096,0.02153
1685.22079,0.02282
1683.16062,0.02310
1681.10045,0.02263
1679.04028,0.02265
1676.98010,0.02342
1674.91993,0.02452
1672.85976,0.02549
1670.79959,0.02613
1668.73941,0.02613
1666.67924,0.02588
1664.61907,0.02608
1662.55890,0.02629
1660.49873,0.02595
1658.43855,0.02573
1656.37838,0.02630
1654.31821,0.02719
1652.25804,0.02709
1650.19787,0.02683
1648.13769,0.02696
1646.07752,0.02688
1644.01735,0.02627
1641.95718,0.02595
1639.89701,0.02645
1637.83683,0.02746
1635.77666,0.02778
1633.71649,0.02714
1631.65632,0.02669
1629.59614,0.02676
1627.53597,0.02698
1625.47580,0.02706
1623.41563,0.02690
1621.35546,0.02656
1619.29528,0.02674
1617.23511,0.02726
1615.17494,0.02706
1613.11477,0.02653
1611.05460,0.02643
1608.99442,0.02661
1606.93425,0.02666
1604.87408,0.02669
1602.81391,0.02674
1600.75373,0.02665
1598.69356,0.02655
1596.63339,0.02654
1594.57322,0.02643
1592.51305,0.02612
1590.45287,0.02579
1588.39270,0.02554
1586.33253,0.02532
1584.27236,0.02496
1582.21219,0.02454
1580.15201,0.02448
1578.09184,0.02470
1576.03167,0.02425
1573.97150,0.02314
1571.91133,0.02262
1569.85115,0.02265
1567.79098,0.02229
1565.73081,0.02164
1563.67064,0.02146
1561.61046,0.02219
1559.55029,0.02258
1557.49012,0.02078
1555.42995,0.01907
1553.36978,0.01845
1551.30960,0.01836
1549.24943,0.01830
1547.18926,0.01830
1545.12909,0.01876
1543.06892,0.01977
1541.00874,0.02059
1538.94857,0.01980
1536.88840,0.01840
1534.82823,0.01781
1532.76805,0.01778
1530.70788,0.01763
1528.64771,0.01752
1526.58754,0.01739
1524.52737,0.01726
1522.46719,0.01720
1520.40702,0.01678
1518.34685,0.01642
1516.28668,0.01615
1514.22651,0.01560
1512.16633,0.01521
1510.10616,0.01565
1508.04599,0.01666
1505.98582,0.01691
1503.92565,0.01618
1501.86547,0.01559
1499.80530,0.01587
1497.74513,0.01651
1495.68496,0.01677
1493.62478,0.01694
1491.56461,0.01729
1489.50444,0.01741
1487.44427,0.01720
1485.38410,0.01703
1483.32392,0.01705
1481.26375,0.01714
1479.20358,0.01733
1477.14341,0.01770
1475.08324,0.01810
1473.02306,0.01817
1470.96289,0.01781
1468.90272,0.01752
1466.84255,0.01773
1464.78238,0.01805
1462.72220,0.01808
1460.66203,0.01835
1458.60186,0.01869
1456.54169,0.01823
1454.48151,0.01774
1452.42134,0.01778
1450.36117,0.01833
1448.30100,0.01904
1446.24083,0.01946
1444.18065,0.01960
1442.12048,0.01964
1440.06031,0.01974
1438.00014,0.01983
1435.93997,0.01974
1433.87979,0.01974
1431.81962,0.01998
1429.75945,0.02028
1427.69928,0.02042
1425.63910,0.02063
1423.57893,0.02095
1421.51876,0.02118
1419.45859,0.02124
1417.39842,0.02135
1415.33824,0.02182
1413.27807,0.02243
1411.21790,0.02289
1409.15773,0.02327
1407.09756,0.02361
1405.03738,0.02379
1402.97721,0.02382
1400.91704,0.02377
1398.85687,0.02352
1396.79670,0.02325
1394.73652,0.02332
1392.67635,0.02351
1390.61618,0.02363
1388.55601,0.02376
1386.49583,0.02393
1384.43566,0.02409
1382.37549,0.02418
1380.31532,0.02424
1378.25515,0.02442
1376.19497,0.02473
1374.13480,0.02478
1372.07463,0.02460
1370.01446,0.02465
1367.95429,0.02494
1365.89411,0.02511
1363.83394,0.02492
1361.77377,0.02460
1359.71360,0.02467
1357.65343,0.02499
1355.59325,0.02516
1353.53308,0.02509
1351.47291,0.02491
1349.41274,0.02467
1347.35256,0.02436
1345.29239,0.02402
1343.23222,0.02362
1341.17205,0.02300
1339.11188,0.02229
1337.05170,0.02203
1334.99153,0.02219
1332.93136,0.02226
1330.87119,0.02205
1328.81102,0.02174
1326.75084,0.02149
1324.69067,0.02129
1322.63050,0.02115
1320.57033,0.02101
1318.51015,0.02075
1316.44998,0.02046
1314.38981,0.02026
1312.32964,0.02015
1310.26947,0.02013
1308.20929,0.02006
1306.14912,0.01994
1304.08895,0.01992
1302.02878,0.01995
1299.96861,0.01985
1297.90843,0.01967
1295.84826,0.01963
1293.78809,0.01970
1291.72792,0.01960
1289.66775,0.01931
1287.60757,0.01910
1285.54740,0.01907
1283.48723,0.01905
1281.42706,0.01894
1279.36688,0.01888
1277.30671,0.01896
1275.24654,0.01906
1273.18637,0.01902
1271.12620,0.01886
1269.06602,0.01869
1267.00585,0.01859
1264.94568,0.01857
1262.88551,0.01862
1260.82534,0.01872
1258.76516,0.01879
1256.70499,0.01872
1254.64482,0.01857
1252.58465,0.01849
1250.52447,0.01846
1248.46430,0.01838
1246.40413,0.01823
1244.34396,0.01810
1242.28379,0.01801
1240.22361,0.01794
1238.16344,0.01789
1236.10327,0.01783
1234.04310,0.01770
1231.98293,0.01758
1229.92275,0.01752
1227.86258,0.01742
1225.80241,0.01732
1223.74224,0.01729
1221.68207,0.01728
1219.62189,0.01721
1217.56172,0.01707
1215.50155,0.01692
1213.44138,0.01679
1211.38120,0.01670
1209.32103,0.01675
1207.26086,0.01693
1205.20069,0.01715
1203.14052,0.01743
1201.08034,0.01777
1199.02017,0.01814
1196.96000,0.01878
1194.89983,0.01962
1192.83966,0.02048
1190.77948,0.02128
1188.71931,0.02214
1186.65914,0.02318
1184.59897,0.02453
1182.53880,0.02590
1180.47862,0.02715
1178.41845,0.02842
1176.35828,0.02961
1174.29811,0.03068
1172.23793,0.03186
1170.17776,0.03313
1168.11759,0.03425
1166.05742,0.03529
1163.99725,0.03636
1161.93707,0.03740
1159.87690,0.03836
1157.81673,0.03931
1155.75656,0.04026
1153.69639,0.04110
1151.63621,0.04193
1149.57604,0.04273
1147.51587,0.04341
1145.45570,0.04394
1143.39552,0.04427
1141.33535,0.04444
1139.27518,0.04449
1137.21501,0.04439
1135.15484,0.04423
1133.09466,0.04411
1131.03449,0.04402
1128.97432,0.04394
1126.91415,0.04391
1124.85398,0.04404
1122.79380,0.04438
1120.73363,0.04481
1118.67346,0.04518
1116.61329,0.04564
1114.55312,0.04628
1112.49294,0.04704
1110.43277,0.04788
1108.37260,0.04878
1106.31243,0.04981
1104.25225,0.05082
1102.19208,0.05175
1100.13191,0.05275
1098.07174,0.05382
1096.01157,0.05490
1093.95139,0.05601
1091.89122,0.05716
1089.83105,0.05835
1087.77088,0.05955
1085.71071,0.06076
1083.65053,0.06195
1081.59036,0.06311
1079.53019,0.06426
1077.47002,0.06544
1075.40985,0.06653
1073.34967,0.06741
1071.28950,0.06801
1069.22933,0.06832
1067.16916,0.06830
1065.10898,0.06800
1063.04881,0.06763
1060.98864,0.06729
1058.92847,0.06688
1056.86830,0.06623
1054.80812,0.06528
1052.74795,0.06404
1050.68778,0.06261
1048.62761,0.06116
1046.56744,0.05982
1044.50726,0.05849
1042.44709,0.05697
1040.38692,0.05530
1038.32675,0.05366
1036.26657,0.05196
1034.20640,0.05005
1032.14623,0.04824
1030.08606,0.04687
1028.02589,0.04573
1025.96571,0.04458
1023.90554,0.04337
1021.84537,0.04219
1019.78520,0.04114
1017.72503,0.04026
1015.66485,0.03953
1013.60468,0.03900
1011.54451,0.03869
1009.48434,0.03864
1007.42417,0.03877
1005.36399,0.03899
1003.30382,0.03946
1001.24365,0.04024
999.18348,0.04108
997.12330,0.04191
995.06313,0.04264
993.00296,0.04318
990.94279,0.04370
988.88262,0.04432
986.82244,0.04492
984.76227,0.04535
982.70210,0.04549
980.64193,0.04557
978.58176,0.04567
976.52158,0.04576
974.46141,0.04593
972.40124,0.04597
970.34107,0.04578
968.28089,0.04553
966.22072,0.04528
964.16055,0.04507
962.10038,0.04498
960.04021,0.04493
957.98003,0.04497
955.91986,0.04513
953.85969,0.04515
951.79952,0.04493
949.73935,0.04468
947.67917,0.04455
945.61900,0.04443
943.55883,0.04410
941.49866,0.04357
939.43849,0.04293
937.37831,0.04220
935.31814,0.04136
933.25797,0.04035
931.19780,0.03939
929.13762,0.03859
927.07745,0.03771
925.01728,0.03660
922.95711,0.03546
920.89694,0.03446
918.83676,0.03367
916.77659,0.03275
914.71642,0.03159
912.65625,0.03056
910.59608,0.02976
908.53590,0.02895
906.47573,0.02815
904.41556,0.02756
902.35539,0.02725
900.29522,0.02697
898.23504,0.02667
896.17487,0.02664
894.11470,0.02668
892.05453,0.02670
889.99435,0.02696
887.93418,0.02745
885.87401,0.02811
883.81384,0.02908
881.75367,0.03015
879.69349,0.03109
877.63332,0.03223
875.57315,0.03384
873.51298,0.03566
871.45281,0.03752
869.39263,0.03931
867.33246,0.04098
865.27229,0.04280
863.21212,0.04469
861.15194,0.04611
859.09177,0.04694
857.03160,0.04754
854.97143,0.04796
852.91126,0.04803
850.85108,0.04766
848.79091,0.04682
846.73074,0.04577
844.67057,0.04477
842.61040,0.04362
840.55022,0.04224
838.49005,0.04083
836.42988,0.03937
834.36971,0.03805
832.30954,0.03725
830.24936,0.03681
828.18919,0.03612
826.12902,0.03495
824.06885,0.03393
822.00867,0.03348
819.94850,0.03298
817.88833,0.03201
815.82816,0.03097
813.76799,0.03011
811.70781,0.02920
809.64764,0.02816
807.58747,0.02749
805.52730,0.02727
803.46713,0.02705
801.40695,0.02670
799.34678,0.02623
797.28661,0.02545
795.22644,0.02461
793.16627,0.02421
791.10609,0.02417
789.04592,0.02394
786.98575,0.02344
784.92558,0.02298
782.86540,0.02261
780.80523,0.02244
778.74506,0.02245
776.68489,0.02232
774.62472,0.02182
772.56454,0.02116
770.50437,0.02077
768.44420,0.02043
766.38403,0.02002
764.32386,0.01994
762.26368,0.02006
760.20351,0.01997
758.14334,0.01962
756.08317,0.01912
754.02299,0.01866
751.96282,0.01856
749.90265,0.01873
747.84248,0.01865
745.78231,0.01817
743.72213,0.01762
741.66196,0.01710
739.60179,0.01652
737.54162,0.01625
735.48145,0.01648
733.42127,0.01685
731.36110,0.01682
729.30093,0.01635
727.24076,0.01599
725.18059,0.01585
723.12041,0.01598
721.06024,0.01475
719.00007,0.01559
716.93990,0.01573
714.87972,0.01540
712.81955,0.01539
710.75938,0.01549
708.69921,0.01527
706.63904,0.01487
704.57886,0.01507
702.51869,0.01571
700.45852,0.01606
698.39835,0.01571
696.33818,0.01507
694.27800,0.01506
692.21783,0.01575
690.15766,0.01651
688.09749,0.01703
686.03731,0.01743
683.97714,0.01799
681.91697,0.01855
679.85680,0.01843
677.79663,0.01731
675.73645,0.01598
673.67628,0.01769
671.61611,0.02572
669.55594,0.02159
667.49577,0.00000
665.43559,0.02293
663.37542,0.01957
661.31525,0.01333
659.25508,0.01246
657.19491,0.01264
655.13473,0.01240
653.07456,0.01227
651.01439,0.01205
648.95422,0.01109
646.89404,0.01121
644.83387,0.01081
642.77370,0.01015
640.71353,0.00965
638.65336,0.00911
636.59318,0.00838
634.53301,0.00782
632.47284,0.00747
630.41267,0.00696
628.35250,0.00624
626.29232,0.00591
624.23215,0.00562
622.17198,0.00567
620.11181,0.00529
618.05164,0.00396
615.99146,0.00318
613.93129,0.00303
611.87112,0.00257
609.81095,0.00173
607.75077,0.00061
605.69060,0.00000
603.63043,-0.00003
601.57026,0.00012
599.51009,0.00000
