3996.73391,-0.00035
3994.67373,-0.00047
3992.61356,-0.00053
3990.55339,-0.00035
3988.49322,-0.00017
3986.43305,-0.00009
3984.37287,-0.00009
3982.31270,-0.00015
3980.25253,-0.00016
3978.19236,-0.00012
3976.13219,-0.00018
3974.07201,-0.00018
3972.01184,0.00004
3969.95167,0.00031
3967.89150,0.00051
3965.83133,0.00061
3963.77115,0.00048
3961.71098,0.00017
3959.65081,-0.00003
3957.59064,0.00008
3955.53046,0.00044
3953.47029,0.00080
3951.41012,0.00076
3949.34995,0.00028
3947.28978,0.00000
3945.22960,0.00023
3943.16943,0.00037
3941.10926,0.00032
3939.04909,0.00055
3936.98892,0.00086
3934.92874,0.00071
3932.86857,0.00030
3930.80840,0.00034
3928.74823,0.00081
3926.68805,0.00108
3924.62788,0.00083
3922.56771,0.00037
3920.50754,0.00011
3918.44737,0.00003
3916.38719,0.00033
3914.32702,0.00096
3912.26685,0.00141
3910.20668,0.00159
3908.14651,0.00163
3906.08633,0.00127
3904.02616,0.00047
3901.96599,0.00009
3899.90582,0.00046
3897.84565,0.00078
3895.78547,0.00087
3893.72530,0.00092
3891.66513,0.00088
3889.60496,0.00089
3887.54478,0.00089
3885.48461,0.00064
3883.42444,0.00022
3881.36427,-0.00000
3879.30410,0.00023
3877.24392,0.00069
3875.18375,0.00083
3873.12358,0.00051
3871.06341,0.00005
3869.00324,-0.00001
3866.94306,0.00034
3864.88289,0.00059
3862.82272,0.00059
3860.76255,0.00056
3858.70237,0.00043
3856.64220,-0.00000
3854.58203,0.00000
3852.52186,0.00079
3850.46169,0.00156
3848.40151,0.00165
3846.34134,0.00165
3844.28117,0.00171
3842.22100,0.00153
3840.16083,0.00120
3838.10065,0.00101
3836.04048,0.00123
3833.98031,0.00161
3831.92014,0.00189
3829.85997,0.00229
3827.79979,0.00260
3825.73962,0.00250
3823.67945,0.00229
3821.61928,0.00223
3819.55910,0.00204
3817.49893,0.00194
3815.43876,0.00206
3813.37859,0.00240
3811.31842,0.00277
3809.25824,0.00306
3807.19807,0.00314
3805.13790,0.00314
3803.07773,0.00332
3801.01756,0.00347
3798.95738,0.00340
3796.89721,0.00339
3794.83704,0.00374
3792.77687,0.00420
3790.71670,0.00441
3788.65652,0.00452
3786.59635,0.00469
3784.53618,0.00485
3782.47601,0.00503
3780.41583,0.00525
3778.35566,0.00532
3776.29549,0.00535
3774.23532,0.00540
3772.17515,0.00527
3770.11497,0.00472
3768.05480,0.00412
3765.99463,0.00395
3763.93446,0.00400
3761.87429,0.00395
3759.81411,0.00354
3757.75394,0.00275
3755.69377,0.00214
3753.63360,0.00169
3751.57342,0.00085
3749.51325,0.00001
3747.45308,-0.00001
3745.39291,0.00000
3743.33274,0.00027
3741.27256,0.00091
3739.21239,0.00110
3737.15222,0.00086
3735.09205,0.00051
3733.03188,0.00058
3730.97170,0.00103
3728.91153,0.00153
3726.85136,0.00184
3724.79119,0.00195
3722.73102,0.00217
3720.67084,0.00254
3718.61067,0.00281
3716.55050,0.00297
3714.49033,0.00332
3712.43015,0.00382
3710.36998,0.00386
3708.30981,0.00392
3706.24964,0.00436
3704.18947,0.00470
3702.12929,0.00466
3700.06912,0.00450
3698.00895,0.00458
3695.94878,0.00485
3693.88861,0.00525
3691.82843,0.00561
3689.76826,0.00541
3687.70809,0.00484
3685.64792,0.00477
3683.58775,0.00505
3681.52757,0.00529
3679.46740,0.00523
3677.40723,0.00482
3675.34706,0.00437
3673.28688,0.00436
3671.22671,0.00469
3669.16654,0.00512
3667.10637,0.00543
3665.04620,0.00555
3662.98602,0.00559
3660.92585,0.00562
3658.86568,0.00569
3656.80551,0.00576
3654.74534,0.00579
3652.68516,0.00600
3650.62499,0.00624
3648.56482,0.00614
3646.50465,0.00630
3644.44447,0.00638
3642.38430,0.00640
3640.32413,0.00667
3638.26396,0.00699
3636.20379,0.00714
3634.14361,0.00717
3632.08344,0.00724
3630.02327,0.00749
3627.96310,0.00794
3625.90293,0.00839
3623.84275,0.00860
3621.78258,0.00860
3619.72241,0.00834
3617.66224,0.00789
3615.60207,0.00760
3613.54189,0.00751
3611.48172,0.00777
3609.42155,0.00860
3607.36138,0.00969
3605.30120,0.01054
3603.24103,0.01111
3601.18086,0.01155
3599.12069,0.01181
3597.06052,0.01196
3595.00034,0.01221
3592.94017,0.01264
3590.88000,0.01295
3588.81983,0.01283
3586.75966,0.01260
3584.69948,0.01295
3582.63931,0.01362
3580.57914,0.01423
3578.51897,0.01477
3576.45879,0.01526
3574.39862,0.01567
3572.33845,0.01598
3570.27828,0.01614
3568.21811,0.01610
3566.15793,0.01620
3564.09776,0.01659
3562.03759,0.01689
3559.97742,0.01734
3557.91725,0.01807
3555.85707,0.01861
3553.79690,0.01876
3551.73673,0.01879
3549.67656,0.01874
3547.61639,0.01836
3545.55621,0.01802
3543.49604,0.01838
3541.43587,0.01937
3539.37570,0.02036
3537.31552,0.02085
3535.25535,0.02098
3533.19518,0.02120
3531.13501,0.02153
3529.07484,0.02165
3527.01466,0.02149
3524.95449,0.02152
3522.89432,0.02210
3520.83415,0.02290
3518.77398,0.02345
3516.71380,0.02379
3514.65363,0.02410
3512.59346,0.02429
3510.53329,0.02426
3508.47312,0.02425
3506.41294,0.02440
3504.35277,0.02447
3502.29260,0.02451
3500.23243,0.02499
3498.17225,0.02577
3496.11208,0.02640
3494.05191,0.02678
3491.99174,0.02705
3489.93157,0.02733
3487.87139,0.02751
3485.81122,0.02750
3483.75105,0.02754
3481.69088,0.02776
3479.63071,0.02813
3477.57053,0.02866
3475.51036,0.02914
3473.45019,0.02932
3471.39002,0.02935
3469.32984,0.02941
3467.26967,0.02958
3465.20950,0.02981
3463.14933,0.02998
3461.08916,0.03020
3459.02898,0.03063
3456.96881,0.03102
3454.90864,0.03126
3452.84847,0.03151
3450.78830,0.03171
3448.72812,0.03165
3446.66795,0.03150
3444.60778,0.03162
3442.54761,0.03191
3440.48744,0.03204
3438.42726,0.03213
3436.36709,0.03235
3434.30692,0.03279
3432.24675,0.03326
3430.18657,0.03352
3428.12640,0.03364
3426.06623,0.03364
3424.00606,0.03352
3421.94589,0.03357
3419.88571,0.03384
3417.82554,0.03429
3415.76537,0.03480
3413.70520,0.03519
3411.64503,0.03534
3409.58485,0.03519
3407.52468,0.03502
3405.46451,0.03518
3403.40434,0.03547
3401.34416,0.03563
3399.28399,0.03501
3397.22382,0.03514
3395.16365,0.03537
3393.10348,0.03556
3391.04330,0.03579
3388.98313,0.03612
3386.92296,0.03653
3384.86279,0.03677
3382.80262,0.03686
3380.74244,0.03704
3378.68227,0.03729
3376.62210,0.03750
3374.56193,0.03775
3372.50176,0.03792
3370.44158,0.03785
3368.38141,0.03758
3366.32124,0.03746
3364.26107,0.03775
3362.20089,0.03813
3360.14072,0.03829
3358.08055,0.03844
3356.02038,0.03861
3353.96021,0.03859
3351.90003,0.03839
3349.83986,0.03829
3347.77969,0.03848
3345.71952,0.03872
3343.65935,0.03885
3341.59917,0.03893
3339.53900,0.03896
3337.47883,0.03895
3335.41866,0.03898
3333.35849,0.03911
3331.29831,0.03934
3329.23814,0.03955
3327.17797,0.03959
3325.11780,0.03944
3323.05762,0.03939
3320.99745,0.03958
3318.93728,0.03984
3316.87711,0.04005
3314.81694,0.04008
3312.75676,0.03985
3310.69659,0.03967
3308.63642,0.03969
3306.57625,0.03983
3304.51608,0.04007
3302.45590,0.04035
3300.39573,0.04045
3298.33556,0.04034
3296.27539,0.04016
3294.21521,0.04000
3292.15504,0.03993
3290.09487,0.03999
3288.03470,0.04019
3285.97453,0.04046
3283.91435,0.04073
3281.85418,0.04090
3279.79401,0.04079
3277.73384,0.04048
3275.67367,0.04033
3273.61349,0.04042
3271.55332,0.04055
3269.49315,0.04068
3267.43298,0.04089
3265.37281,0.04110
3263.31263,0.04118
3261.25246,0.04108
3259.19229,0.04096
3257.13212,0.04092
3255.07194,0.04096
3253.01177,0.04096
3250.95160,0.04094
3248.89143,0.04104
3246.83126,0.04117
3244.77108,0.04125
3242.71091,0.04124
3240.65074,0.04110
3238.59057,0.04098
3236.53040,0.04097
3234.47022,0.04105
3232.41005,0.04124
3230.34988,0.04142
3228.28971,0.04143
3226.22954,0.04134
3224.16936,0.04121
3222.10919,0.04096
3220.04902,0.04079
3217.98885,0.04090
3215.92867,0.04106
3213.86850,0.04100
3211.80833,0.04083
3209.74816,0.04072
3207.68799,0.04080
3205.62781,0.04102
3203.56764,0.04110
3201.50747,0.04092
3199.44730,0.04076
3197.38713,0.04078
3195.32695,0.04089
3193.26678,0.04088
3191.20661,0.04074
3189.14644,0.04065
3187.08626,0.04063
3185.02609,0.04051
3182.96592,0.04047
3180.90575,0.04056
3178.84558,0.04049
3176.78540,0.04042
3174.72523,0.04056
3172.66506,0.04064
3170.60489,0.04057
3168.54472,0.04047
3166.48454,0.04043
3164.42437,0.04049
3162.36420,0.04053
3160.30403,0.04047
3158.24386,0.04039
3156.18368,0.04029
3154.12351,0.04012
3152.06334,0.03999
3150.00317,0.03989
3147.94299,0.03972
3145.88282,0.03960
3143.82265,0.03958
3141.76248,0.03953
3139.70231,0.03943
3137.64213,0.03937
3135.58196,0.03931
3133.52179,0.03920
3131.46162,0.03917
3129.40145,0.03915
3127.34127,0.03898
3125.28110,0.03870
3123.22093,0.03850
3121.16076,0.03844
3119.10058,0.03837
3117.04041,0.03826
3114.98024,0.03816
3112.92007,0.03812
3110.85990,0.03805
3108.79972,0.03792
3106.73955,0.03778
3104.67938,0.03757
3102.61921,0.03734
3100.55904,0.03731
3098.49886,0.03746
3096.43869,0.03746
3094.37852,0.03724
3092.31835,0.03710
3090.25818,0.03712
3088.19800,0.03713
3086.13783,0.03711
3084.07766,0.03707
3082.01749,0.03693
3079.95731,0.03678
3077.89714,0.03672
3075.83697,0.03660
3073.77680,0.03644
3071.71663,0.03637
3069.65645,0.03628
3067.59628,0.03607
3065.53611,0.03595
3063.47594,0.03599
3061.41577,0.03601
3059.35559,0.03584
3057.29542,0.03556
3055.23525,0.03537
3053.17508,0.03530
3051.11491,0.03513
3049.05473,0.03484
3046.99456,0.03465
3044.93439,0.03459
3042.87422,0.03458
3040.81404,0.03449
3038.75387,0.03438
3036.69370,0.03429
3034.63353,0.03420
3032.57336,0.03406
3030.51318,0.03389
3028.45301,0.03371
3026.39284,0.03352
3024.33267,0.03336
3022.27250,0.03334
3020.21232,0.03334
3018.15215,0.03314
3016.09198,0.03276
3014.03181,0.03243
3011.97163,0.03228
3009.91146,0.03226
3007.85129,0.03221
3005.79112,0.03198
3003.73095,0.03173
3001.67077,0.03163
2999.61060,0.03167
2997.55043,0.03149
2995.49026,0.03132
2993.43009,0.03134
2991.36991,0.03148
2989.30974,0.03148
2987.24957,0.03142
2985.18940,0.03145
2983.12923,0.03146
2981.06905,0.03145
2979.00888,0.03148
2976.94871,0.03142
2974.88854,0.03121
2972.82836,0.03110
2970.76819,0.03122
2968.70802,0.03131
2966.64785,0.03122
2964.58768,0.03117
2962.52750,0.03128
2960.46733,0.03138
2958.40716,0.03144
2956.34699,0.03146
2954.28682,0.03147
2952.22664,0.03155
2950.16647,0.03154
2948.10630,0.03137
2946.04613,0.03128
2943.98596,0.03129
2941.92578,0.03115
2939.86561,0.03092
2937.80544,0.03092
2935.74527,0.03112
2933.68509,0.03131
2931.62492,0.03149
2929.56475,0.03155
2927.50458,0.03138
2925.44441,0.03114
2923.38423,0.03109
2921.32406,0.03128
2919.26389,0.03140
2917.20372,0.03131
2915.14355,0.03116
2913.08337,0.03103
2911.02320,0.03087
2908.96303,0.03074
2906.90286,0.03070
2904.84268,0.03059
2902.78251,0.03036
2900.72234,0.03021
2898.66217,0.03026
2896.60200,0.03031
2894.54182,0.03025
2892.48165,0.03016
2890.42148,0.03016
2888.36131,0.03017
2886.30114,0.03002
2884.24096,0.02991
2882.18079,0.03006
2880.12062,0.03013
2878.06045,0.02996
2876.00028,0.02980
2873.94010,0.02974
2871.87993,0.02972
2869.81976,0.02976
2867.75959,0.02978
2865.69941,0.02963
2863.63924,0.02932
2861.57907,0.02915
2859.51890,0.02910
2857.45873,0.02903
2855.39855,0.02903
2853.33838,0.02903
2851.27821,0.02882
2849.21804,0.02862
2847.15787,0.02863
2845.09769,0.02856
2843.03752,0.02827
2840.97735,0.02804
2838.91718,0.02790
2836.85700,0.02771
2834.79683,0.02752
2832.73666,0.02739
2830.67649,0.02730
2828.61632,0.02718
2826.55614,0.02707
2824.49597,0.02704
2822.43580,0.02685
2820.37563,0.02655
2818.31546,0.02649
2816.25528,0.02660
2814.19511,0.02665
2812.13494,0.02659
2810.07477,0.02636
2808.01460,0.02607
2805.95442,0.02588
2803.89425,0.02573
2801.83408,0.02561
2799.77391,0.02550
2797.71373,0.02537
2795.65356,0.02525
2793.59339,0.02521
2791.53322,0.02516
2789.47305,0.02502
2787.41287,0.02486
2785.35270,0.02477
2783.29253,0.02473
2781.23236,0.02465
2779.17219,0.02451
2777.11201,0.02437
2775.05184,0.02422
2772.99167,0.02397
2770.93150,0.02370
2768.87133,0.02359
2766.81115,0.02363
2764.75098,0.02365
2762.69081,0.02355
2760.63064,0.02333
2758.57046,0.02322
2756.51029,0.02325
2754.45012,0.02322
2752.38995,0.02315
2750.32978,0.02311
2748.26960,0.02307
2746.20943,0.02291
2744.14926,0.02264
2742.08909,0.02244
2740.02892,0.02240
2737.96874,0.02242
2735.90857,0.02236
2733.84840,0.02218
2731.78823,0.02203
2729.72805,0.02200
2727.66788,0.02191
2725.60771,0.02165
2723.54754,0.02143
2721.48737,0.02141
2719.42719,0.02144
2717.36702,0.02142
2715.30685,0.02138
2713.24668,0.02126
2711.18651,0.02111
2709.12633,0.02103
2707.06616,0.02097
2705.00599,0.02087
2702.94582,0.02079
2700.88565,0.02075
2698.82547,0.02067
2696.76530,0.02058
2694.70513,0.02046
2692.64496,0.02030
2690.58478,0.02026
2688.52461,0.02032
2686.46444,0.02028
2684.40427,0.02019
2682.34410,0.02007
2680.28392,0.01986
2678.22375,0.01977
2676.16358,0.01983
2674.10341,0.01983
2672.04324,0.01972
2669.98306,0.01960
2667.92289,0.01952
2665.86272,0.01948
2663.80255,0.01944
2661.74238,0.01943
2659.68220,0.01943
2657.62203,0.01940
2655.56186,0.01934
2653.50169,0.01925
2651.44151,0.01915
2649.38134,0.01906
2647.32117,0.01897
2645.26100,0.01886
2643.20083,0.01873
2641.14065,0.01864
2639.08048,0.01860
2637.02031,0.01851
2634.96014,0.01843
2632.89997,0.01843
2630.83979,0.01856
2628.77962,0.01862
2626.71945,0.01846
2624.65928,0.01829
2622.59910,0.01820
2620.53893,0.01811
2618.47876,0.01804
2616.41859,0.01809
2614.35842,0.01821
2612.29824,0.01820
2610.23807,0.01806
2608.17790,0.01796
2606.11773,0.01788
2604.05756,0.01779
2601.99738,0.01790
2599.93721,0.01807
2597.87704,0.01802
2595.81687,0.01774
2593.75670,0.01755
2591.69652,0.01763
2589.63635,0.01785
2587.57618,0.01796
2585.51601,0.01786
2583.45583,0.01768
2581.39566,0.01764
2579.33549,0.01774
2577.27532,0.01783
2575.21515,0.01783
2573.15497,0.01782
2571.09480,0.01774
2569.03463,0.01775
2566.97446,0.01796
2564.91429,0.01804
2562.85411,0.01792
2560.79394,0.01791
2558.73377,0.01789
2556.67360,0.01771
2554.61342,0.01770
2552.55325,0.01794
2550.49308,0.01810
2548.43291,0.01814
2546.37274,0.01807
2544.31256,0.01791
2542.25239,0.01775
2540.19222,0.01764
2538.13205,0.01774
2536.07188,0.01808
2534.01170,0.01830
2531.95153,0.01825
2529.89136,0.01816
2527.83119,0.01815
2525.77102,0.01820
2523.71084,0.01826
2521.65067,0.01817
2519.59050,0.01809
2517.53033,0.01818
2515.47015,0.01824
2513.40998,0.01823
2511.34981,0.01828
2509.28964,0.01829
2507.22947,0.01832
2505.16929,0.01847
2503.10912,0.01862
2501.04895,0.01856
2498.98878,0.01824
2496.92861,0.01802
2494.86843,0.01822
2492.80826,0.01863
2490.74809,0.01899
2488.68792,0.01913
2486.62775,0.01908
2484.56757,0.01903
2482.50740,0.01916
2480.44723,0.01944
2478.38706,0.01968
2476.32688,0.01967
2474.26671,0.01958
2472.20654,0.01962
2470.14637,0.01967
2468.08620,0.01960
2466.02602,0.01952
2463.96585,0.01960
2461.90568,0.01980
2459.84551,0.01997
2457.78534,0.02013
2455.72516,0.02028
2453.66499,0.02028
2451.60482,0.02011
2449.54465,0.02000
2447.48447,0.02012
2445.42430,0.02022
2443.36413,0.02011
2441.30396,0.01994
2439.24379,0.01993
2437.18361,0.01989
2435.12344,0.01971
2433.06327,0.01960
2431.00310,0.01962
2428.94293,0.01974
2426.88275,0.01988
2424.82258,0.01992
2422.76241,0.01997
2420.70224,0.02009
2418.64207,0.02008
2416.58189,0.01997
2414.52172,0.01988
2412.46155,0.01974
2410.40138,0.01957
2408.34120,0.01941
2406.28103,0.01937
2404.22086,0.01954
2402.16069,0.01970
2400.10052,0.01955
2398.04034,0.01946
2395.98017,0.01965
2393.92000,0.01977
2391.85983,0.01953
2389.79966,0.01913
2387.73948,0.01865
2385.67931,0.01796
2383.61914,0.01721
2381.55897,0.01663
2379.49880,0.01616
2377.43862,0.01564
2375.37845,0.01517
2373.31828,0.01470
2371.25811,0.01436
2369.19793,0.01467
2367.13776,0.01524
2365.07759,0.01490
2363.01742,0.01386
2360.95725,0.01258
2358.89707,0.01241
2356.83690,0.01317
2354.77673,0.01428
2352.71656,0.01479
2350.65639,0.01427
2348.59621,0.01390
2346.53604,0.01481
2344.47587,0.01497
2342.41570,0.01522
2340.35552,0.01555
2338.29535,0.01526
2336.23518,0.01466
2334.17501,0.01421
2332.11484,0.01409
2330.05466,0.01409
2327.99449,0.01416
2325.93432,0.01375
2323.87415,0.01329
2321.81398,0.01286
2319.75380,0.01299
2317.69363,0.01318
2315.63346,0.01344
2313.57329,0.01367
2311.51312,0.01391
2309.45294,0.01427
2307.39277,0.01468
2305.33260,0.01519
2303.27243,0.01564
2301.21225,0.01575
2299.15208,0.01550
2297.09191,0.01539
2295.03174,0.01571
2292.97157,0.01610
2290.91139,0.01637
2288.85122,0.01662
2286.79105,0.01680
2284.73088,0.01675
2282.67071,0.01668
2280.61053,0.01677
2278.55036,0.01683
2276.49019,0.01671
2274.43002,0.01648
2272.36984,0.01625
2270.30967,0.01625
2268.24950,0.01650
2266.18933,0.01657
2264.12916,0.01640
2262.06898,0.01616
2260.00881,0.01583
2257.94864,0.01548
2255.88847,0.01553
2253.82830,0.01583
2251.76812,0.01566
2249.70795,0.01523
2247.64778,0.01547
2245.58761,0.01586
2243.52744,0.01546
2241.46726,0.01483
2239.40709,0.01506
2237.34692,0.01557
2235.28675,0.01533
2233.22657,0.01489
2231.16640,0.01502
2229.10623,0.01534
2227.04606,0.01538
2224.98589,0.01520
2222.92571,0.01479
2220.86554,0.01419
2218.80537,0.01392
2216.74520,0.01411
2214.68503,0.01416
2212.62485,0.01412
2210.56468,0.01434
2208.50451,0.01436
2206.44434,0.01392
2204.38417,0.01386
2202.32399,0.01427
2200.26382,0.01369
2198.20365,0.01281
2196.14348,0.01328
2194.08330,0.01363
2192.02313,0.01314
2189.96296,0.01318
2187.90279,0.01369
2185.84262,0.01351
2183.78244,0.01275
2181.72227,0.01237
2179.66210,0.01258
2177.60193,0.01293
2175.54176,0.01312
2173.48158,0.01328
2171.42141,0.01326
2169.36124,0.01274
2167.30107,0.01212
2165.24089,0.01204
2163.18072,0.01192
2161.12055,0.01108
2159.06038,0.01016
2157.00021,0.00992
2154.94003,0.01047
2152.87986,0.01147
2150.81969,0.01258
2148.75952,0.01280
2146.69935,0.01193
2144.63917,0.01141
2142.57900,0.01147
2140.51883,0.01143
2138.45866,0.01117
2136.39849,0.01068
2134.33831,0.01047
2132.27814,0.01067
2130.21797,0.01089
2128.15780,0.01096
2126.09762,0.01106
2124.03745,0.01153
2121.97728,0.01209
2119.91711,0.01235
2117.85694,0.01220
2115.79676,0.01177
2113.73659,0.01148
2111.67642,0.01144
2109.61625,0.01128
2107.55608,0.01092
2105.49590,0.01066
2103.43573,0.01078
2101.37556,0.01151
2099.31539,0.01270
2097.25521,0.01267
2095.19504,0.01177
2093.13487,0.01079
2091.07470,0.01022
2089.01453,0.01009
2086.95435,0.01009
2084.89418,0.01036
2082.83401,0.01109
2080.77384,0.01197
2078.71367,0.01242
2076.65349,0.01243
2074.59332,0.01245
2072.53315,0.01231
2070.47298,0.01180
2068.41281,0.01160
2066.35263,0.01180
2064.29246,0.01145
2062.23229,0.01054
2060.17212,0.00983
2058.11194,0.00966
2056.05177,0.01002
2053.99160,0.01090
2051.93143,0.01212
2049.87126,0.01322
2047.81108,0.01381
2045.75091,0.01393
2043.69074,0.01351
2041.63057,0.01253
2039.57040,0.01191
2037.51022,0.01226
2035.45005,0.01249
2033.38988,0.01177
2031.32971,0.01062
2029.26954,0.00968
2027.20936,0.00981
2025.14919,0.01104
2023.08902,0.01178
2021.02885,0.01168
2018.96867,0.01158
2016.90850,0.01180
2014.84833,0.01201
2012.78816,0.01185
2010.72799,0.01190
2008.66781,0.01254
2006.60764,0.01272
2004.54747,0.01177
2002.48730,0.01050
2000.42713,0.00966
1998.36695,0.00926
1996.30678,0.00931
1994.24661,0.00959
1992.18644,0.00949
1990.12626,0.00931
1988.06609,0.00985
1986.00592,0.01063
1983.94575,0.01116
1981.88558,0.01212
1979.82540,0.01359
1977.76523,0.01422
1975.70506,0.01351
1973.64489,0.01256
1971.58472,0.01215
1969.52454,0.01207
1967.46437,0.01197
1965.40420,0.01186
1963.34403,0.01184
1961.28386,0.01152
1959.22368,0.01071
1957.16351,0.00994
1955.10334,0.00975
1953.04317,0.00998
1950.98299,0.01022
1948.92282,0.01061
1946.86265,0.01124
1944.80248,0.01164
1942.74231,0.01167
1940.68213,0.01145
1938.62196,0.01115
1936.56179,0.01095
1934.50162,0.01111
1932.44145,0.01148
1930.38127,0.01166
1928.32110,0.01155
1926.26093,0.01111
1924.20076,0.01058
1922.14059,0.01050
1920.08041,0.01074
1918.02024,0.01085
1915.96007,0.01100
1913.89990,0.01147
1911.83972,0.01190
1909.77955,0.01208
1907.71938,0.01213
1905.65921,0.01211
1903.59904,0.01206
1901.53886,0.01196
1899.47869,0.01178
1897.41852,0.01157
1895.35835,0.01136
1893.29818,0.01123
1891.23800,0.01139
1889.17783,0.01182
1887.11766,0.01219
1885.05749,0.01224
1882.99731,0.01199
1880.93714,0.01171
1878.87697,0.01168
1876.81680,0.01192
1874.75663,0.01223
1872.69645,0.01249
1870.63628,0.01268
1868.57611,0.01276
1866.51594,0.01276
1864.45577,0.01280
1862.39559,0.01274
1860.33542,0.01254
1858.27525,0.01242
1856.21508,0.01243
1854.15491,0.01251
1852.09473,0.01266
1850.03456,0.01279
1847.97439,0.01267
1845.91422,0.01227
1843.85404,0.01197
1841.79387,0.01216
1839.73370,0.01257
1837.67353,0.01279
1835.61336,0.01271
1833.55318,0.01274
1831.49301,0.01312
1829.43284,0.01347
1827.37267,0.01355
1825.31250,0.01362
1823.25232,0.01379
1821.19215,0.01390
1819.13198,0.01378
1817.07181,0.01353
1815.01163,0.01342
1812.95146,0.01330
1810.89129,0.01296
1808.83112,0.01262
1806.77095,0.01264
1804.71077,0.01279
1802.65060,0.01277
1800.59043,0.01285
1798.53026,0.01301
1796.47009,0.01301
1794.40991,0.01299
1792.34974,0.01303
1790.28957,0.01296
1788.22940,0.01275
1786.16923,0.01253
1784.10905,0.01260
1782.04888,0.01293
1779.98871,0.01305
1777.92854,0.01293
1775.86836,0.01300
1773.80819,0.01327
1771.74802,0.01318
1769.68785,0.01268
1767.62768,0.01248
1765.56750,0.01273
1763.50733,0.01306
1761.44716,0.01316
1759.38699,0.01308
1757.32682,0.01306
1755.26664,0.01310
1753.20647,0.01316
1751.14630,0.01323
1749.08613,0.01336
1747.02596,0.01344
1744.96578,0.01348
1742.90561,0.01369
1740.84544,0.01396
1738.78527,0.01401
1736.72509,0.01396
1734.66492,0.01383
1732.60475,0.01365
1730.54458,0.01376
1728.48441,0.01392
1726.42423,0.01389
1724.36406,0.01371
1722.30389,0.01371
1720.24372,0.01416
1718.18355,0.01432
1716.12337,0.01346
1714.06320,0.01283
1712.00303,0.01283
1709.94286,0.01313
1707.88268,0.01346
1705.82251,0.01352
1703.76234,0.01354
1701.70217,0.01400
1699.64200,0.01438
1697.58182,0.01431
1695.52165,0.01443
1693.46148,0.01485
1691.40131,0.01525
1689.34114,0.01579
1687.28096,0.01671
1685.22079,0.01800
1683.16062,0.01864
1681.10045,0.01868
1679.04028,0.01906
1676.98010,0.02003
1674.91993,0.02123
1672.85976,0.02224
1670.79959,0.02300
1668.73941,0.02333
1666.67924,0.02332
1664.61907,0.02351
1662.55890,0.02385
1660.49873,0.02384
1658.43855,0.02377
1656.37838,0.02422
1654.31821,0.02498
1652.25804,0.02491
1650.19787,0.02451
1648.13769,0.02437
1646.07752,0.02430
1644.01735,0.02393
1641.95718,0.02372
1639.89701,0.02404
1637.83683,0.02461
1635.77666,0.02469
1633.71649,0.02428
1631.65632,0.02395
1629.59614,0.02385
1627.53597,0.02384
1625.47580,0.02380
1623.41563,0.02362
1621.35546,0.02325
1619.29528,0.02329
1617.23511,0.02373
1615.17494,0.02365
1613.11477,0.02313
1611.05460,0.02280
1608.99442,0.02274
1606.93425,0.02275
1604.87408,0.02280
1602.81391,0.02279
1600.75373,0.02260
1598.69356,0.02239
1596.63339,0.02224
1594.57322,0.02200
1592.51305,0.02159
1590.45287,0.02116
1588.39270,0.02081
1586.33253,0.02048
1584.27236,0.02006
1582.21219,0.01961
1580.15201,0.01945
1578.09184,0.01947
1576.03167,0.01898
1573.97150,0.01797
1571.91133,0.01737
1569.85115,0.01713
1567.79098,0.01655
1565.73081,0.01582
1563.67064,0.01560
1561.61046,0.01625
1559.55029,0.01660
1557.49012,0.01500
1555.42995,0.01345
1553.36978,0.01283
1551.30960,0.01263
1549.24943,0.01238
1547.18926,0.01217
1545.12909,0.01237
1543.06892,0.01301
1541.00874,0.01359
1538.94857,0.01302
1536.88840,0.01190
1534.82823,0.01135
1532.76805,0.01127
1530.70788,0.01106
1528.64771,0.01078
1526.58754,0.01048
1524.52737,0.01018
1522.46719,0.00987
1520.40702,0.00929
1518.34685,0.00892
1516.28668,0.00874
1514.22651,0.00833
1512.16633,0.00795
1510.10616,0.00805
1508.04599,0.00864
1505.98582,0.00909
1503.92565,0.00891
1501.86547,0.00852
1499.80530,0.00868
1497.74513,0.00912
1495.68496,0.00931
1493.62478,0.00944
1491.56461,0.00961
1489.50444,0.00955
1487.44427,0.00944
1485.38410,0.00954
1483.32392,0.00974
1481.26375,0.00990
1479.20358,0.01002
1477.14341,0.01017
1475.08324,0.01036
1473.02306,0.01052
1470.96289,0.01054
1468.90272,0.01051
1466.84255,0.01077
1464.78238,0.01110
1462.72220,0.01114
1460.66203,0.01133
1458.60186,0.01153
1456.54169,0.01112
1454.48151,0.01081
1452.42134,0.01095
1450.36117,0.01153
1448.30100,0.01224
1446.24083,0.01271
1444.18065,0.01294
1442.12048,0.01305
1440.06031,0.01313
1438.00014,0.01310
1435.93997,0.01293
1433.87979,0.01295
1431.81962,0.01326
1429.75945,0.01370
1427.69928,0.01403
1425.63910,0.01433
1423.57893,0.01464
1421.51876,0.01481
1419.45859,0.01479
1417.39842,0.01491
1415.33824,0.01549
1413.27807,0.01622
1411.21790,0.01674
1409.15773,0.01705
1407.09756,0.01729
1405.03738,0.01746
1402.97721,0.01753
1400.91704,0.01738
1398.85687,0.01691
1396.79670,0.01654
1394.73652,0.01666
1392.67635,0.01695
1390.61618,0.01714
1388.55601,0.01729
1386.49583,0.01748
1384.43566,0.01764
1382.37549,0.01769
1380.31532,0.01768
1378.25515,0.01782
1376.19497,0.01813
1374.13480,0.01826
1372.07463,0.01820
1370.01446,0.01825
1367.95429,0.01838
1365.89411,0.01842
1363.83394,0.01824
1361.77377,0.01803
1359.71360,0.01808
1357.65343,0.01823
1355.59325,0.01826
1353.53308,0.01818
1351.47291,0.01802
1349.41274,0.01771
1347.35256,0.01724
1345.29239,0.01675
1343.23222,0.01619
1341.17205,0.01540
1339.11188,0.01458
1337.05170,0.01435
1334.99153,0.01464
1332.93136,0.01488
1330.87119,0.01480
1328.81102,0.01455
1326.75084,0.01431
1324.69067,0.01409
1322.63050,0.01386
1320.57033,0.01362
1318.51015,0.01334
1316.44998,0.01308
1314.38981,0.01291
1312.32964,0.01281
1310.26947,0.01279
1308.20929,0.01279
1306.14912,0.01274
1304.08895,0.01271
1302.02878,0.01273
1299.96861,0.01275
1297.90843,0.01276
1295.84826,0.01281
1293.78809,0.01284
1291.72792,0.01267
1289.66775,0.01241
1287.60757,0.01225
1285.54740,0.01223
1283.48723,0.01227
1281.42706,0.01230
1279.36688,0.01232
1277.30671,0.01235
1275.24654,0.01234
1273.18637,0.01226
1271.12620,0.01213
1269.06602,0.01200
1267.00585,0.01188
1264.94568,0.01187
1262.88551,0.01194
1260.82534,0.01197
1258.76516,0.01200
1256.70499,0.01206
1254.64482,0.01208
1252.58465,0.01203
1250.52447,0.01196
1248.46430,0.01186
1246.40413,0.01172
1244.34396,0.01156
1242.28379,0.01140
1240.22361,0.01125
1238.16344,0.01119
1236.10327,0.01118
1234.04310,0.01103
1231.98293,0.01081
1229.92275,0.01063
1227.86258,0.01038
1225.80241,0.01018
1223.74224,0.01012
1221.68207,0.01002
1219.62189,0.00984
1217.56172,0.00968
1215.50155,0.00945
1213.44138,0.00919
1211.38120,0.00905
1209.32103,0.00908
1207.26086,0.00926
1205.20069,0.00958
1203.14052,0.00994
1201.08034,0.01032
1199.02017,0.01073
1196.96000,0.01135
1194.89983,0.01219
1192.83966,0.01312
1190.77948,0.01399
1188.71931,0.01496
1186.65914,0.01623
1184.59897,0.01777
1182.53880,0.01932
1180.47862,0.02075
1178.41845,0.02213
1176.35828,0.02337
1174.29811,0.02455
1172.23793,0.02599
1170.17776,0.02755
1168.11759,0.02888
1166.05742,0.03003
1163.99725,0.03126
1161.93707,0.03259
1159.87690,0.03388
1157.81673,0.03518
1155.75656,0.03643
1153.69639,0.03757
1151.63621,0.03871
1149.57604,0.03985
1147.51587,0.04085
1145.45570,0.04165
1143.39552,0.04233
1141.33535,0.04295
1139.27518,0.04343
1137.21501,0.04369
1135.15484,0.04390
1133.09466,0.04428
1131.03449,0.04475
1128.97432,0.04515
1126.91415,0.04555
1124.85398,0.04616
1122.79380,0.04703
1120.73363,0.04798
1118.67346,0.04883
1116.61329,0.04964
1114.55312,0.05067
1112.49294,0.05195
1110.43277,0.05329
1108.37260,0.05461
1106.31243,0.05597
1104.25225,0.05723
1102.19208,0.05839
1100.13191,0.05969
1098.07174,0.06111
1096.01157,0.06250
1093.95139,0.06389
1091.89122,0.06528
1089.83105,0.06671
1087.77088,0.06821
1085.71071,0.06960
1083.65053,0.07092
1081.59036,0.07219
1079.53019,0.07346
1077.47002,0.07488
1075.40985,0.07625
1073.34967,0.07724
1071.28950,0.07786
1069.22933,0.07820
1067.16916,0.07829
1065.10898,0.07812
1063.04881,0.07784
1060.98864,0.07740
1058.92847,0.07662
1056.86830,0.07560
1054.80812,0.07442
1052.74795,0.07296
1050.68778,0.07131
1048.62761,0.06951
1046.56744,0.06749
1044.50726,0.06543
1042.44709,0.06337
1040.38692,0.06119
1038.32675,0.05891
1036.26657,0.05651
1034.20640,0.05392
1032.14623,0.05149
1030.08606,0.04962
1028.02589,0.04809
1025.96571,0.04644
1023.90554,0.04462
1021.84537,0.04286
1019.78520,0.04140
1017.72503,0.04025
1015.66485,0.03931
1013.60468,0.03874
1011.54451,0.03861
1009.48434,0.03870
1007.42417,0.03891
1005.36399,0.03940
1003.30382,0.04041
1001.24365,0.04179
999.18348,0.04318
997.12330,0.04436
995.06313,0.04528
993.00296,0.04606
990.94279,0.04693
988.88262,0.04787
986.82244,0.04869
984.76227,0.04935
982.70210,0.04985
980.64193,0.05020
978.58176,0.05040
976.52158,0.05041
974.46141,0.05034
972.40124,0.05031
970.34107,0.05012
968.28089,0.04960
966.22072,0.04890
964.16055,0.04829
962.10038,0.04780
960.04021,0.04732
957.98003,0.04684
955.91986,0.04646
953.85969,0.04615
951.79952,0.04571
949.73935,0.04506
947.67917,0.04440
945.61900,0.04389
943.55883,0.04336
941.49866,0.04264
939.43849,0.04171
937.37831,0.04068
935.31814,0.03950
933.25797,0.03810
931.19780,0.03676
929.13762,0.03566
927.07745,0.03466
925.01728,0.03355
922.95711,0.03240
920.89694,0.03126
918.83676,0.03013
916.77659,0.02904
914.71642,0.02797
912.65625,0.02689
910.59608,0.02585
908.53590,0.02491
906.47573,0.02421
904.41556,0.02373
902.35539,0.02341
900.29522,0.02312
898.23504,0.02285
896.17487,0.02271
894.11470,0.02275
892.05453,0.02317
889.99435,0.02383
887.93418,0.02439
885.87401,0.02508
883.81384,0.02627
881.75367,0.02770
879.69349,0.02906
877.63332,0.03064
875.57315,0.03250
873.51298,0.03435
871.45281,0.03626
869.39263,0.03825
867.33246,0.04011
865.27229,0.04195
863.21212,0.04377
861.15194,0.04526
859.09177,0.04645
857.03160,0.04734
854.97143,0.04763
852.91126,0.04738
850.85108,0.04698
848.79091,0.04631
846.73074,0.04510
844.67057,0.04379
842.61040,0.04261
840.55022,0.04127
838.49005,0.03969
836.42988,0.03812
834.36971,0.03686
832.30954,0.03576
830.24936,0.03454
828.18919,0.03327
826.12902,0.03208
824.06885,0.03104
822.00867,0.03016
819.94850,0.02938
817.88833,0.02845
815.82816,0.02747
813.76799,0.02671
811.70781,0.02592
809.64764,0.02501
807.58747,0.02448
805.52730,0.02425
803.46713,0.02381
801.40695,0.02312
799.34678,0.02227
797.28661,0.02143
795.22644,0.02099
793.16627,0.02075
791.10609,0.02022
789.04592,0.01959
786.98575,0.01929
784.92558,0.01908
782.86540,0.01865
780.80523,0.01823
778.74506,0.01801
776.68489,0.01777
774.62472,0.01711
772.56454,0.01637
770.50437,0.01604
768.44420,0.01582
766.38403,0.01547
764.32386,0.01521
762.26368,0.01492
760.20351,0.01463
758.14334,0.01443
756.08317,0.01411
754.02299,0.01364
751.96282,0.01333
749.90265,0.01330
747.84248,0.01316
745.78231,0.01265
743.72213,0.01203
741.66196,0.01172
739.60179,0.01156
737.54162,0.01124
735.48145,0.01106
733.42127,0.01122
731.36110,0.01133
729.30093,0.01123
727.24076,0.01111
725.18059,0.01083
723.12041,0.01004
721.06024,0.00940
719.00007,0.00936
716.93990,0.00981
714.87972,0.01013
712.81955,0.01027
710.75938,0.01026
708.69921,0.00986
706.63904,0.00931
704.57886,0.00912
702.51869,0.00921
700.45852,0.00905
698.39835,0.00841
696.33818,0.00760
694.27800,0.00714
692.21783,0.00731
690.15766,0.00769
688.09749,0.00774
686.03731,0.00755
683.97714,0.00748
681.91697,0.00755
679.85680,0.00750
677.79663,0.00713
675.73645,0.00677
673.67628,0.00635
671.61611,0.00511
669.55594,0.00489
667.49577,0.00665
665.43559,0.00503
663.37542,0.00554
661.31525,0.00605
659.25508,0.00594
657.19491,0.00561
655.13473,0.00552
653.07456,0.00567
651.01439,0.00568
648.95422,0.00535
646.89404,0.00469
644.83387,0.00437
642.77370,0.00456
640.71353,0.00459
638.65336,0.00420
636.59318,0.00401
634.53301,0.00434
632.47284,0.00466
630.41267,0.00440
628.35250,0.00376
626.29232,0.00328
624.23215,0.00324
622.17198,0.00356
620.11181,0.00337
618.05164,0.00235
615.99146,0.00184
613.93129,0.00236
611.87112,0.00306
609.81095,0.00330
607.75077,0.00282
605.69060,0.00168
603.63043,0.00052
601.57026,0.00000
599.51009,0.00000
